frame_number,force
0,869.4658200006005
1,869.6096791976576
2,869.7523427154603
3,869.8926430427398
4,870.0294676175661
5,870.1617829651433
6,870.2886551357991
7,870.409265606796
8,870.5229220521788
9,870.6290636530016
10,870.727260886475
11,870.8172100006651
12,870.8987227214795
13,870.9717121615354
14,871.0361762704096
15,871.0921803293819
16,871.1398399483794
17,871.1793058842027
18,871.2107518318534
19,871.2343660845871
20,871.2503475334371
21,871.2589059378076
22,871.260265944592
23,871.2546741257953
24,871.2424082874699
25,871.2237882717322
26,871.1991873349472
27,871.1690430505521
28,871.1338666857556
29,871.0942501258892
30,871.0508695831302
31,871.0044854906222
32,870.9559381608864
33,870.9061389883973
34,870.8560571991184
35,870.8067023956518
36,870.7591034060546
37,870.7142841879081
38,870.6732377415125
39,870.6368991453937
40,870.606118952754
41,870.5816382701046
42,870.5640668381344
43,870.5538653126932
44,870.5513327124066
45,870.5565996965197
46,870.569627985635
47,870.5902158639038
48,870.6180093411348
49,870.6525182333045
50,870.6931361599468
51,870.7391632993711
52,870.7898307349465
53,870.844325356922
54,870.9018144666985
55,870.9614693658234
56,871.0224872672329
57,871.084110877726
58,871.1456450274857
59,871.2064698207761
60,871.2660499912197
61,871.323940446076
62,871.3797882891528
63,871.4333318348929
64,871.4843972383503
65,871.5328933892246
66,871.5788056937188
67,871.6221893095213
68,871.6631622816428
69,871.7018988489996
70,871.7386230022273
71,871.7736022262363
72,871.8071413073686
73,871.8395761603533
74,871.8712677829312
75,871.9025965365533
76,871.9339568736651
77,871.9657524253428
78,871.9983911958547
79,872.0322806061399
80,872.0678222183636
81,872.1054060177722
82,872.1454041208638
83,872.1881638160631
84,872.2339999565002
85,872.2831868675108
86,872.3359500536801
87,872.3924580558744
88,872.4528148003114
89,872.5170527278113
90,872.5851269600822
91,872.6569107940667
92,872.7321928858407
93,872.8106765232196
94,872.8919813357826
95,872.9756476291121
96,873.0611432803589
97,873.1478728869073
98,873.2351887388575
99,873.3224032252903
100,873.4088023932571
101,873.493660460092
102,873.5762551365416
103,873.6558836617442
104,873.7318793905591
105,873.8036285236033
106,873.8705862233438
107,873.9322911365958
108,873.9883773705171
109,874.0385831772048
110,874.0827558601226
111,874.1208526760362
112,874.1529377695401
113,874.1791754025212
114,874.1998198769679
115,874.2152026063649
116,874.2257168308278
117,874.2318005562682
118,874.2339184374065
119,874.2325434544051
120,874.2281392804202
121,874.2211442021908
122,874.2119573762648
123,874.2009280651316
124,874.1883482543811
125,874.1744487256543
126,874.1593983433958
127,874.1433060862563
128,874.1262252539636
129,874.1081593237633
130,874.0890690897232
131,874.0688808971361
132,874.047495872003
133,874.0247999994895
134,874.0006747755473
135,873.9750080367288
136,873.9477045265153
137,873.918695786815
138,873.8879490436241
139,873.855474844494
140,873.8213332771027
141,873.7856386739114
142,873.7485627940065
143,873.7103365053365
144,873.6712499227333
145,873.6316508557093
146,873.5919413957887
147,873.5525725620413
148,873.514037072952
149,873.4768604525508
150,873.4415907793514
151,873.4087874583921
152,873.379009451628
153,873.3528034293545
154,873.3306922874661
155,873.3131644191144
156,873.3006640622833
157,873.2935829770065
158,873.2922536251533
159,873.2969439377355
160,873.3078536903238
161,873.3251124759504
162,873.3487792452631
163,873.3788433633878
164,873.4152271080559
165,873.4577894852403
166,873.5063311691514
167,873.560600339427
168,873.6202992476722
169,873.685091483834
170,873.7546100462173
171,873.8284663644963
172,873.906260354777
173,873.9875914286264
174,874.0720701965678
175,874.1593304547335
176,874.249040937069
177,874.3409162574394
178,874.4347264713675
179,874.5303047553969
180,874.6275527983676
181,874.7264435901549
182,874.8270213719978
183,874.9293985847388
184,875.0337497357248
185,875.1403022197806
186,875.2493242712713
187,875.3611103939004
188,875.4759648204752
189,875.5941837429398
190,875.7160371297548
191,875.8417509262217
192,875.9714904361684
193,876.1053457315888
194,876.2433198765528
195,876.3853204677314
196,876.531154581967
197,876.6805268920833
198,876.8330405899846
199,876.9882007960507
200,877.1454202004397
201,877.3040266862527
202,877.4632726416548
203,877.6223456414994
204,877.7803802051673
205,877.9364704116597
206,878.0896832501247
207,878.2390726676339
208,878.3836943193223
209,878.5226210368194
210,878.6549590211101
211,878.7798647019619
212,878.8965620493938
213,879.0043599181079
214,879.1026688608302
215,879.19101681198
216,879.2690630675348
217,879.3366100035348
218,879.3936119904076
219,879.4401810254545
220,879.4765887318254
221,879.5032645114902
222,879.5207897488826
223,879.5298880356618
224,879.5314114397366
225,879.5263228953065
226,879.5156748716031
227,879.5005846059238
228,879.4822063793592
229,879.4617015979878
230,879.4402078002843
231,879.418808003518
232,879.3985018364965
233,879.3801796420875
234,879.3646003556232
235,879.3523737240743
236,879.3439474208058
237,879.339599697544
238,879.3394381544472
239,879.3434048666121
240,879.351287582403
241,879.3627362314019
242,879.3772836794574
243,879.3943695233987
244,879.4133656551285
245,879.4336022929807
246,879.4543931693407
247,879.4750586330048
248,879.4949456523898
249,879.5134440896219
250,879.5299990270373
251,879.5441192065525
252,879.5553817453625
253,879.563433320856
254,879.5679881000999
255,879.5688228675117
256,879.5657700397849
257,879.5587094647739
258,879.5475599780483
259,879.5322715873541
260,879.5128189312634
261,879.4891964210698
262,879.4614152778552
263,879.4295025192376
264,879.3935018262753
265,879.3534761147495
266,879.3095115148419
267,879.2617223146315
268,879.2102562746877
269,879.1552996431911
270,879.0970812651086
271,879.0358753694111
272,878.9720028057627
273,878.9058305747312
274,878.837769483745
275,878.7682697746332
276,878.6978146665923
277,878.6269119310789
278,878.5560838221943
279,878.4858558539423
280,878.4167449638912
281,878.3492475291644
282,878.283827589424
283,878.2209055465095
284,878.1608475409151
285,878.1039556371807
286,878.0504589150997
287,878.0005055868093
288,877.9541563241719
289,877.9113790604563
290,877.872045605084
291,877.8359304456691
292,877.8027120699533
293,877.7719770169448
294,877.7432266976599
295,877.7158868571978
296,877.6893194116383
297,877.6628363095124
298,877.6357150513741
299,877.6072155140977
300,877.576597693218
301,877.5431398676533
302,877.5061565597443
303,877.4650155950591
304,877.419153623543
305,877.3680896541663
306,877.3114364022993
307,877.2489094231856
308,877.1803340390878
309,877.105650012656
310,877.0249138656797
311,876.9382987371944
312,876.8460917106975
313,876.7486885736735
314,876.646585958746
315,876.5403707763654
316,876.4307068959156
317,876.3183192665881
318,876.2039760542273
319,876.0884697308857
320,875.9725982052005
321,875.8571469629534
322,875.7428728841207
323,875.6304900473951
324,875.5206575167032
325,875.4139688920862
326,875.3109433639968
327,875.2120181550113
328,875.1175424929944
329,875.0277734913893
330,874.9428743811458
331,874.8629154151707
332,874.7878775559282
333,874.7176588903403
334,874.652083618624
335,874.590913378516
336,874.5338605458867
337,874.4806029890469
338,874.4307995908316
339,874.3841057774811
340,874.3401883696271
341,874.2987392686457
342,874.2594876906459
343,874.2222107408786
344,874.1867420807355
345,874.1529783906773
346,874.1208833759689
347,874.0904891873553
348,874.0618952466295
349,874.0352645176944
350,874.0108172741307
351,873.9888224624633
352,873.9695869009793
353,873.953442754528
354,873.9407338740174
355,873.9318016020286
356,873.9269705520003
357,873.9265347560936
358,873.9307445014404
359,873.9397941376466
360,873.953811120547
361,873.972846553569
362,873.9968675078286
363,874.0257514332966
364,874.0592829855223
365,874.0971535786387
366,874.1389639534957
367,874.1842300114549
368,874.2323920540988
369,874.2828273419486
370,874.3348655651345
371,874.3878064754404
372,874.4409386306952
373,874.4935580091981
374,874.5449852232521
375,874.5945802383303
376,874.6417538589612
377,874.6859756627798
378,874.7267784469694
379,874.763759571305
380,874.7965798329274
381,874.8249606355345
382,874.8486801672486
383,874.8675691144128
384,874.8815062372532
385,874.890414028925
386,874.8942546837527
387,874.8930266465179
388,874.8867620415791
389,874.8755252688737
390,874.8594129972048
391,874.8385556728076
392,874.8131204916934
393,874.7833155811595
394,874.7493949389409
395,874.7116635122566
396,874.6704816657972
397,874.6262682086737
398,874.5795011773713
399,874.5307157336907
400,874.4804988038336
401,874.4294803913775
402,874.37832177893
403,874.3277010604073
404,874.2782966306379
405,874.2307694288804
406,874.1857448933009
407,874.1437957023163
408,874.1054263922098
409,874.0710607844165
410,874.0410328305743
411,874.0155810864801
412,873.9948466835084
413,873.9788744512574
414,873.9676167922465
415,873.9609400258137
416,873.9586331231491
417,873.9604188818764
418,873.9659675248521
419,873.9749125043252
420,873.9868680813098
421,874.00144809387
422,874.0182852083963
423,874.0370498538442
424,874.0574679846911
425,874.079336799807
426,874.102537541253
427,874.1270445195177
428,874.1529296194221
429,874.1803617857934
430,874.2096013355076
431,874.2409893043509
432,874.2749323791062
433,874.3118842873461
434,874.3523247471093
435,874.3967371204634
436,874.4455857970769
437,874.499294197948
438,874.5582242513797
439,874.6226582537505
440,874.6927840768415
441,874.7686845949266
442,874.8503319445986
443,874.9375868488027
444,875.0302027936538
445,875.1278344119578
446,875.2300490978969
447,875.3363407250446
448,875.4461443693789
449,875.558851112151
450,875.6738222730309
451,875.7904027525037
452,875.9079334522669
453,876.025762893293
454,876.1432581525922
455,876.2598151790553
456,876.3748685139852
457,876.4879004417895
458,876.5984495586134
459,876.706118601528
460,876.8105811703358
461,876.9115868460725
462,877.0089642724303
463,877.1026219753954
464,877.1925469306341
465,877.2788010910082
466,877.3615162715353
467,877.4408879430258
468,877.5171685448676
469,877.5906608345038
470,877.6617115615151
471,877.730705498947
472,877.7980597036787
473,877.8642178179368
474,877.9296441825473
475,877.994817469569
476,878.0602234927519
477,878.126346854841
478,878.1936611632688
479,878.2626177267603
480,878.3336329348069
481,878.4070748201447
482,878.483249475981
483,878.562388009747
484,878.6446346647185
485,878.7300367550803
486,878.8185371458122
487,878.9099700288549
488,879.004060555195
489,879.1004284965775
490,879.1985957114337
491,879.2979969247272
492,879.3979931869314
493,879.497887287578
494,879.5969403715577
495,879.6943890554388
496,879.7894624069293
497,879.8813981868899
498,879.9694578115696
499,880.0529396503797
500,880.1311905252245
501,880.203615526996
502,880.2696864100609
503,880.3289488209837
504,880.3810284889706
505,880.4256363280199
506,880.4625722635328
507,880.4917275607085
508,880.5130855098149
509,880.526720474444
510,880.5327954500725
511,880.5315583293464
512,880.5233370240087
513,880.5085335380722
514,880.4876170974945
515,880.4611164977193
516,880.429611857122
517,880.3937259185335
518,880.3541149434363
519,880.3114591638158
520,880.2664527674236
521,880.2197934876073
522,880.1721719439904
523,880.1242608617224
524,880.0767042508317
525,880.0301066470457
526,879.9850225832012
527,879.9419465154755
528,879.9013034837009
529,879.8634408885154
530,879.8286219053934
531,879.7970211251529
532,879.7687229011236
533,879.7437226004921
534,879.7219306491893
535,879.7031790479774
536,879.6872298755814
537,879.6737850996104
538,879.6624968650797
539,879.6529774876616
540,879.6448086858819
541,879.6375500146261
542,879.6307468169331
543,879.6239381614037
544,879.616665176931
545,879.6084800140247
546,879.5989554420379
547,879.5876949101166
548,879.5743427831501
549,879.5585943624654
550,879.5402051526497
551,879.5189986531301
552,879.4948718165289
553,879.4677973155439
554,879.4378219641326
555,879.4050610586933
556,879.3696889496033
557,879.3319266407599
558,879.2920274713829
559,879.2502619261079
560,879.2069024788277
561,879.1622092522422
562,879.1164171832729
563,879.0697252568683
564,879.0222882103844
565,878.9742110076288
566,878.9255463769712
567,878.876295706713
568,878.8264134460168
569,878.7758148172029
570,878.7243862064814
571,878.6719972663423
572,878.6185136866591
573,878.5638097548216
574,878.5077800806156
575,878.4503500816882
576,878.3914849751698
577,878.3311971052385
578,878.2695514461051
579,878.206669074525
580,878.1427284000134
581,878.0779640502722
582,878.0126634673135
583,877.947161359239
584,877.8818321988515
585,877.8170810735072
586,877.7533333456307
587,877.6910236300243
588,877.6305844738425
589,877.5724349431791
590,877.5169692114544
591,877.4645452519715
592,877.4154738146515
593,877.3700079438917
594,877.328333335303
595,877.2905598678799
596,877.2567147399294
597,877.2267377587863
598,877.2004793869481
599,877.1777020695661
600,877.1580851774737
601,877.1412336196071
602,877.12668982192
603,877.1139483975958
604,877.1024725405354
605,877.0917110176965
606,877.0811146297505
607,877.0701511667818
608,877.0583182057882
609,877.0451535000385
610,877.0302430278397
611,877.013226875447
612,876.9938031010753
613,876.97172973997
614,876.9468251725685
615,876.9189670286426
616,876.8880895972616
617,876.8541795434763
618,876.817269783295
619,876.7774315872891
620,876.7347651739963
621,876.6893891398078
622,876.6414291283131
623,876.5910062187833
624,876.5382255888275
625,876.4831660835321
626,876.4258714212109
627,876.3663438412297
628,876.3045409729998
629,876.2403765409581
630,876.1737252304152
631,876.1044316392283
632,876.0323227663973
633,875.9572230635014
634,875.8789708716972
635,875.797435146077
636,875.712531589439
637,875.6242374669919
638,875.5326043692114
639,875.4377681166677
640,875.3399549889706
641,875.23948358665
642,875.1367619178641
643,875.0322797083171
644,874.9265963731358
645,874.8203254593302
646,874.7141166064474
647,874.6086361742351
648,874.5045476748112
649,874.4024930469965
650,874.3030756082887
651,874.2068451906096
652,874.1142855616724
653,874.0258038910501
654,873.941721836
655,873.8622677718398
656,873.7875697101331
657,873.717648547387
658,873.6524115330097
659,873.591646224118
660,873.5350155660815
661,873.4820549586949
662,873.4321722131962
663,873.3846512260761
664,873.3386600306252
665,873.293263662486
666,873.2474420314435
667,873.200112752518
668,873.1501586320873
669,873.0964592037648
670,873.0379253761859
671,872.9735359021539
672,872.9023740102322
673,872.8236622279271
674,872.7367933182669
675,872.6413554502491
676,872.5371501892068
677,872.4242025072255
678,872.30276267231
679,872.1733004848252
680,872.0364928043491
681,871.8932056244503
682,871.7444721244713
683,871.5914681244235
684,871.4354861410586
685,871.2779088679102
686,871.1201825907776
687,870.9637909416149
688,870.8102294120471
689,870.6609810254598
690,870.517493462696
691,870.3811578560665
692,870.2532894860635
693,870.135110678971
694,870.0277362143992
695,869.9321614878401
696,869.84925358286
697,869.7797453377663
698,869.7242324481165
699,869.6831736068108
700,869.6568936206652
701,869.6455893138694
702,869.649337796829
703,869.6681063903997
704,869.7017632763975
705,869.7500878800785
706,869.8127800723769
707,869.889467473501
708,869.9797104197077
709,870.0830044962775
710,870.1987809037626
711,870.3264052407645
712,870.4651754638404
713,870.6143197954074
714,870.7729952698505
715,870.9402875238854
716,871.1152123467713
717,871.2967193596224
718,871.4836980040468
719,871.6749858568317
720,871.8693791744813
721,872.0656454765007
722,872.2625378733787
723,872.4588107324255
724,872.653236157269
725,872.8446206642905
726,873.0318214353077
727,873.2137616517252
728,873.3894446246654
729,873.5579666137613
730,873.7185282683299
731,873.8704444946576
732,874.0131523260561
733,874.1462161989614
734,874.2693300334412
735,874.3823156817729
736,874.4851175833721
737,874.5777937986281
738,874.6605039316573
739,874.7334947164411
740,874.7970841982221
741,874.8516455056179
742,874.8975911905139
743,874.9353590335161
744,874.9654000878465
745,874.9881695351246
746,875.0041206634932
747,875.0137020599217
748,875.017357992149
749,875.0155318406129
750,875.0086722111259
751,874.9972410501093
752,874.9817228107689
753,874.9626335335489
754,874.9405286312823
755,874.9160082803203
756,874.8897196597022
757,874.8623557579091
758,874.8346508767906
759,874.8073731607998
760,874.7813145068
761,874.7572781987382
762,874.7360646312612
763,874.7184555486897
764,874.7051973518309
765,874.6969841960797
766,874.6944417154493
767,874.6981121635266
768,874.7084415801513
769,874.7257693509632
770,874.7503202716382
771,874.7821989828934
772,874.8213864640577
773,874.8677382370184
774,874.9209840626403
775,874.9807291513317
776,875.0464571532917
777,875.1175353427466
778,875.1932224001173
779,875.2726790194362
780,875.3549813048525
781,875.4391367071194
782,875.5241021697407
783,875.6088041482243
784,875.6921601101483
785,875.7731009780018
786,875.8505938163071
787,875.9236639570157
788,875.991415693703
789,876.0530506505931
790,876.1078829975944
791,876.1553508690808
792,876.1950236003097
793,876.2266046262929
794,876.2499300411753
795,876.2649629347662
796,876.2717838134906
797,876.2705777210582
798,876.2616190017935
799,876.245254849108
800,876.2218888020699
801,876.1919652377089
802,876.1559556876105
803,876.1143474854894
804,876.0676348735083
805,876.0163123587954
806,875.9608698773033
807,875.9017891713414
808,875.8395407078398
809,875.7745805086477
810,875.7073464776206
811,875.6382541256769
812,875.5676918530406
813,875.4960160569963
814,875.4235463759935
815,875.350561459399
816,875.2772956981543
817,875.2039372351383
818,875.1306273541766
819,875.0574612245987
820,874.9844900133719
821,874.9117244150792
822,874.8391395355491
823,874.7666808186663
824,874.6942704959904
825,874.6218140109137
826,874.5492060079447
827,874.4763356438758
828,874.4030910697204
829,874.329362989192
830,874.2550473254945
831,874.1800472258126
832,874.1042747692877
833,874.0276527033772
834,873.9501163417833
835,873.8716155557813
836,873.7921167344485
837,873.711604742336
838,873.6300851619164
839,873.5475872407554
840,873.4641677962031
841,873.3799159166081
842,873.2949578845883
843,873.2094615651735
844,873.1236395788417
845,873.0377507728514
846,872.9520996860934
847,872.867033860161
848,872.7829390064957
849,872.7002321816573
850,872.6193532275671
851,872.5407548042898
852,872.46489138728
853,872.3922076201724
854,872.3231264153451
855,872.2580371810839
856,872.1972845110673
857,872.141157594476
858,872.0898805329367
859,872.0436037387326
860,872.0023966534616
861,871.9662421292076
862,871.935032883854
863,871.9085704241751
864,871.8865667371114
865,871.8686489485946
866,871.8543670927984
867,871.8432051016458
868,871.8345950370076
869,871.8279343862158
870,871.8226059246359
871,871.8179992681357
872,871.8135328995792
873,871.8086753007092
874,871.8029639367707
875,871.7960211536082
876,871.7875663708936
877,871.7774241557431
878,871.7655278703611
879,871.7519187503995
880,871.7367405798935
881,871.7202305191787
882,871.7027069456283
883,871.6845552632496
884,871.6662125457964
885,871.6481516990661
886,871.6308656460621
887,871.6148519179889
888,871.6005980186303
889,871.5885679848815
890,871.5791905849375
891,871.5728495003584
892,871.569875646577
893,871.570541573551
894,871.5750577077835
895,871.5835700594888
896,871.5961589362505
897,871.6128382023662
898,871.6335546996095
899,871.6581875603387
900,871.6865472576374
901,871.7183743533344
902,871.7533380655743
903,871.7910349858555
904,871.8309884522015
905,871.8726491630736
906,871.91539762971
907,871.9585490681883
908,872.0013612828714
909,872.0430458968581
910,872.0827829538682
911,872.1197385900978
912,872.1530852738265
913,872.1820240135773
914,872.2058078419298
915,872.2237657456867
916,872.2353260727463
917,872.2400383668822
