acceleration,velocity,displacement
-0.06337839116515909,0.0,0.0
-0.06228360096392719,-3.141549803227157e-05,-7.853874508067893e-09
-0.061193608379841495,-6.228480036821374e-05,-3.127894910818922e-08
-0.06011316704542564,-9.261149422453052e-05,-7.000302275637528e-08
-0.05904694334348539,-0.00012240152182175828,-1.2375627676794747e-07
-0.057999474543735205,-0.00015166312629356343,-1.9227243879677792e-07
-0.05697512896335791,-0.00018040677717033672,-2.7528991466275297e-07
-0.05597806870484356,-0.00020864507658738707,-3.7255287810218393e-07
-0.05501221544633373,-0.00023639264762518138,-4.83812309155326e-07
-0.05408121967082008,-0.00026366600640446986,-6.088269726627389e-07
-0.05318843362882203,-0.0002904834197293804,-7.473643291962015e-07
-0.05233688823396188,-0.00031686475019507634,-8.992013716773157e-07
-0.05152927397462004,-0.0003428312907472218,-1.0641253819128904e-06
-0.05076792578531663,-0.000368405590687206,-1.2419346022714972e-06
-0.05005481169371481,-0.00039361127505696384,-1.4324388187075398e-06
-0.04939152498253418,-0.0004184728592260261,-1.6354598522782873e-06
-0.048779279581621024,-0.00044301556036706487,-1.8508319571765601e-06
-0.048218908404522365,-0.0004672651073636007,-2.0784021241092265e-06
-0.04771086435027631,-0.0004912475505523004,-2.318030288588202e-06
-0.04725522372043676,-0.0005149890725699787,-2.5695894443687716e-06
-0.04685169187439607,-0.0005385158014686868,-2.832965662878438e-06
-0.04649961104918496,-0.0005618536271995821,-3.1080580200455053e-06
-0.04619797035268857,-0.0005850280225500504,-3.3947784324829136e-06
-0.04594541796072314,-0.0006080638696284033,-3.693051405527527e-06
-0.04574027552322901,-0.0006309852929993914,-4.002813696184476e-06
-0.045580554765405894,-0.0006538155005715501,-4.324013894577212e-06
-0.04546397628003599,-0.0006765766333329106,-4.656611928053327e-06
-0.045387990519381895,-0.000699289625032765,-5.000578492644746e-06
-0.04534980097557308,-0.0007219740729065038,-5.355894417129563e-06
-0.045346389490376074,-0.0007446481205229911,-5.722549965486937e-06
-0.045374543580954455,-0.0007673283537908237,-6.100544084065391e-06
-0.04543088561692057,-0.0007900297110902925,-6.48988360028567e-06
-0.04551190363307299,-0.0008127654084027909,-6.89058238015894e-06
-0.04561398350907053,-0.0008355468801883268,-7.30266045230672e-06
-0.04573344219250767,-0.0008583837366137213,-7.726143106507232e-06
-0.04586656158512554,-0.0008812837375581297,-8.161059975050195e-06
-0.046009622655624624,-0.0009042527836183172,-8.607444105344307e-06
-0.04615893929419243,-0.0009272949241057715,-9.065331032275329e-06
-0.04631089138970018,-0.0009504123817767446,-9.534757858745957e-06
-0.04646195659093831,-0.0009736055937719043,-1.001576235263312e-05
-0.04660874020554174,-0.0009968732679710242,-1.0508382068068852e-05
-0.04674800269645804,-0.001020212453696524,-1.1012653498485739e-05
-0.04687668426594827,-0.0010436186254371258,-1.1528611268269151e-05
-0.04699192608024321,-0.0010670857780236737,-1.205628736913435e-05
-0.047091087780725016,-0.0010906065314889156,-1.2595710446512498e-05
-0.04717176103948719,-0.0011141722436939687,-1.3146905140308219e-05
-0.04723177904199983,-0.0011377731287143405,-1.3709891483410296e-05
-0.047269221910416846,-0.0011613983789524446,-1.4284684360326993e-05
-0.04728241820762588,-0.0011850362889819553,-1.4871293027310592e-05
-0.047269942777297666,-0.0012086743792281863,-1.546972069436313e-05
-0.047230611273365475,-0.001232299517740852,-1.6079964168605388e-05
-0.047163471802143045,-0.0012558980385097291,-1.6702013557668033e-05
-0.04706779412906233,-0.0012794558549925304,-1.7335852031043598e-05
-0.04694305689227037,-0.0013029585677478636,-1.7981455636728697e-05
-0.04678893323899677,-0.0013263915652806805,-1.8638793169985834e-05
-0.046605275282467974,-0.0013497401174110467,-1.9307826090658766e-05
-0.04639209777559761,-0.001372989460675563,-1.998850848518042e-05
-0.0461495614030856,-0.0013961248754702337,-2.068078706921687e-05
-0.04587795609099461,-0.0014191317548437538,-2.1384601226795367e-05
-0.04557768470799589,-0.0014419956650435013,-2.2099883081767182e-05
-0.04524924747527153,-0.0014647023980893183,-2.2826557597550385e-05
-0.04489322731771186,-0.001487238016787564,-2.3564542701269605e-05
-0.0445102763001214,-0.0015095888926920224,-2.4313749428639503e-05
-0.044101103220944037,-0.0015317417375722887,-2.507408208620558e-05
-0.04366646239018969,-0.001553683628975072,-2.5845438427842422e-05
-0.043207143592619256,-0.0015754020304707742,-2.6627709842703884e-05
-0.042723963221701244,-0.0015968848071743543,-2.7420781552115165e-05
-0.0422177565613944,-0.0016181202371201282,-2.8224532813188785e-05
-0.04168937119831453,-0.0016390970190600556,-2.903883712723383e-05
-0.04113966156683063,-0.0016598042772513419,-2.986356245131168e-05
-0.04056948465247538,-0.0016802315638061683,-3.069857141157606e-05
-0.039979696891109806,-0.0017003688591920646,-3.1543721517325615e-05
-0.03937115229013476,-0.0017202065714873756,-3.2398865374995475e-05
-0.03874470175493187,-0.0017397355349986422,-3.326385090161698e-05
-0.03810119354224272,-0.001758947008822936,-3.4138521537572376e-05
-0.03744147471820712,-0.0017778326758880485,-3.502271645875012e-05
-0.036766393499671014,-0.001796384642942518,-3.5916270788457764e-05
-0.03607680239342248,-0.0018145954419157915,-3.681901580967234e-05
-0.03537356207639844,-0.0018324580330332468,-3.77307791784096e-05
-0.03465754594932293,-0.0018499658100396771,-3.8651385139177826e-05
-0.033929645264281924,-0.0018671126078430784,-3.9580654743648517e-05
-0.03319077470936166,-0.0018838927128364893,-4.051840607381841e-05
-0.03244187833195203,-0.0019003008760968179,-4.1464454471051736e-05
-0.03168393567244224,-0.0019163323295979164,-4.241861277247542e-05
-0.030917967953342222,-0.0019319828055043625,-4.338069155625099e-05
-0.030145044137386258,-0.0019472485585270447,-4.435049939725884e-05
-0.029366286644524665,-0.0019621263912225225,-4.532784313469623e-05
-0.02858287651079196,-0.001976613682011352,-4.63125281530047e-05
-0.027796057786264823,-0.001990708415585616,-4.7304358677403946e-05
-0.02700714099684559,-0.002004409215281394,-4.83031380851207e-05
-0.02621750551812642,-0.002017715376910137,-4.930866923316858e-05
-0.025428600717486666,-0.0020306269034690403,-5.0320754803263375e-05
-0.02464194572031502,-0.002043144540078491,-5.1339197664150257e-05
-0.023859127664819405,-0.0020552698084247744,-5.2363801251276076e-05
-0.023081798341249984,-0.0020670050399262917,-5.339436996336384e-05
-0.022311669170938325,-0.0020783534068043387,-5.44307095750465e-05
-0.02155050456211711,-0.0020893189502376027,-5.5472627664306984e-05
-0.020800113759124647,-0.002099906604817913,-5.651993405307086e-05
-0.02006234134838839,-0.0021101222185947914,-5.757244125892404e-05
-0.01933905658906538,-0.002119972568079155,-5.8629964955592526e-05
-0.018632141721287444,-0.002129465367656743,-5.96923244395265e-05
-0.017943479395171668,-0.0021386092729358576,-6.0759343099674647e-05
-0.01727493935817331,-0.0021474138776241937,-6.183084888731466e-05
-0.016628364534170638,-0.0021558897035972796,-6.290667478262002e-05
-0.01600555664775216,-0.0021640481838927604,-6.398665925449253e-05
-0.015408261613473223,-0.0021719016384580668,-6.507064671008023e-05
-0.014838154998692345,-0.0021794632426111083,-6.615848793034753e-05
-0.014296827923709999,-0.0021867469883417087,-6.725004048808574e-05
-0.013785773752484706,-0.0021937676387607575,-6.834516914486135e-05
-0.01330637586872222,-0.0022005406761660593,-6.944374622359306e-05
-0.01285989675935029,-0.0022070822443230774,-7.054565195371533e-05
-0.012447468552795955,-0.0022134090856511138,-7.165077478620888e-05
-0.012070085083064482,-0.002219538474060079,-7.275901167613669e-05
-0.011728595483295351,-0.002225488144201669,-7.387026833070212e-05
-0.011423699267420052,-0.002231276217889348,-7.498445942122487e-05
-0.011155942833625209,-0.0022369211284146095,-7.610150875780086e-05
-0.010925717302787309,-0.0022424415434487126,-7.72213494257667e-05
-0.01073325757334801,-0.0022478562871677465,-7.834392388342081e-05
-0.010578642429216526,-0.0022531842621683878,-7.946918402075485e-05
-0.010461795495520428,-0.002258444371649572,-8.059709117920934e-05
-0.010382486817222961,-0.0022636554422277577,-8.172761613267868e-05
-0.010340334837968687,-0.0022688361476415554,-8.2860739030146e-05
-0.01033480857125913,-0.0022740049334938625,-8.399644930042986e-05
-0.01036522978687939,-0.002279179943083397,-8.513474551957418e-05
-0.010430775094085451,-0.0022843789443036384,-8.627563524142093e-05
-0.010530477883945398,-0.002289619257548146,-8.741913479188388e-05
-0.010663230172501625,-0.002294917684562258,-8.856526902741149e-05
-0.010827784443676906,-0.0023002904382163026,-8.971407105810612e-05
-0.011022755616264108,-0.002305753073231288,-9.086558193596802e-05
-0.01124662324864835,-0.002311320417947516,-9.201985030876272e-05
-0.011497734055054167,-0.0023170065072734415,-9.317693204006796e-05
-0.011774304762235524,-0.002322824516977764,-9.433688979613076e-05
-0.012074425314009186,-0.002328786699496825,-9.54997926002494e-05
-0.012396062443425745,-0.0023349043214361837,-9.666571535548265e-05
-0.0127370636657801,-0.0023411876029634853,-9.783473833658257e-05
-0.013095161776091246,-0.0023476456593239533,-9.900694665215443e-05
-0.013467979945973834,-0.0023542864447544695,-0.00010018242967817403
-0.013853037506039355,-0.0023611166991174726,-0.00010136128046414202
-0.01424775647783462,-0.0023681418976134413,-0.00010254359511332475
-0.014649468894389863,-0.0023753662039564974,-0.00010372947213871724
-0.015055424927492345,-0.002382792427411968,-0.00010491901179655935
-0.01546280181715234,-0.002390421984098129,-0.00010611231539943688
-0.015868713573130463,-0.0023982548629457,-0.00010730948461119784
-0.016270221406158292,-0.0024062895966905223,-0.0001085106207261069
-0.016664344859698744,-0.0024145232382569866,-0.00010971582393484378
-0.017048073634686335,-0.002422951342880583,-0.00011092519258012817
-0.017418380101740582,-0.0024315679563146897,-0.00011213882240492699
-0.017772232468739744,-0.0024403656094573096,-0.00011335680579636998
-0.018106608530018407,-0.002449335319706999,-0.00011457923102866106
-0.01841850988476359,-0.0024584665993106947,-0.00011580618150841548
-0.018704976484043633,-0.0024677474709028963,-0.00011703773502596888
-0.01896310134596213,-0.0024771644903603977,-0.0001182739630162847
-0.019190045263536164,-0.002486702777012772,-0.000119514929833128
-0.019383051322938688,-0.002496346051159391,-0.00012076069204017103
-0.019539459055164823,-0.0025060766787539167,-0.00012201129772264936
-0.01965671806036583,-0.0025158757230327993,-0.00012326678582309604
-0.01973240096390394,-0.002525723002788867,-0.00012452718550455145
-0.019764215584043503,-0.002535597156925854,-0.00012579251554448013
-0.01975001621609985,-0.0025454757148758896,-0.00012706278376243058
-0.01968781396522135,-0.00255533517242122,-0.00012833798648425487
-0.01957578608198046,-0.0025651510724330204,-0.00012961810804546842
-0.019412284268751422,-0.0025748980900207035,-0.00013090312033608184
-0.019195841936008616,-0.0025845501215718933,-0.00013219298238898
-0.018925180399024355,-0.0025940803771556517,-0.0001334876400136619
-0.01859921401799929,-0.0026034614757599077,-0.0001347870254768908
-0.018217054302807432,-0.0026126655428401094,-0.0001360910572315408
-0.017778013026710743,-0.0026216643096724887,-0.00013739963969466894
-0.01728160440701006,-0.002630429214030919,-0.0001387126630755948
-0.01672754639968139,-0.002638931501732592,-0.00014003000325453566
-0.016115761123217914,-0.0026471423286133166,-0.00014135152171212213
-0.015446374395463276,-0.002655032862492987,-0.0001426770655098987
-0.014719714357218854,-0.0026625743846811576,-0.00014400646732169224
-0.013936309175051148,-0.002669738390564225,-0.0001453395455155036
-0.013096883855557325,-0.002676496688821877,-0.00014667610428535012
-0.01220235624846776,-0.0026828214988478833,-0.00014801593383226755
-0.011253832352619186,-0.0026886855459981552,-0.00014935881059347905
-0.010252601063294502,-0.0026940621543521336,-0.0001507044975185666
-0.009200128510870861,-0.0026989253367456748,-0.00015205274439134106
-0.008098052135634007,-0.002703249881907301,-0.00015340328819600431
-0.006948174622168328,-0.002707011438596752,-0.00015475585352613033
-0.0057524577881992445,-0.002710186596699344,-0.00015611015303495436
-0.0045130164956767235,-0.002712752965270313,-0.00015746588792544676
-0.0032321126284687854,-0.0027146892475513494,-0.0001588227484786522
-0.001912149159928214,-0.0027159753129984486,-0.00016018041461878963
-0.0005556643102190521,-0.0027165922663659856,-0.00016153855651363075
0.0008346742366733738,-0.002716522513884372,-0.00016289683520869335
0.002256075121849552,-0.0027157498265447414,-0.00016425490329380064
0.0037056292132015903,-0.0027142594004609787,-0.00016561240560055207
0.0051803157757063616,-0.0027120379142137516,-0.00016696897992922075
0.006677009108843702,-0.002709073582992614,-0.00016832425780352234
0.00819248586239094,-0.0027053562092498053,-0.00016967786525158294
0.009723433227944988,-0.0027008772294772215,-0.0001710294236112647
0.011266458194157532,-0.002695629756621696,-0.00017237855035778942
0.012818098054535406,-0.0026896086175595226,-0.00017372485995133472
0.014374832328586737,-0.002682810384963742,-0.00017506796470196552
0.0159330961709784,-0.0026752334028388508,-0.00017640747564891618
0.01748929522389246,-0.002666877804990133,-0.0001777430034508734
0.01903982176893559,-0.002657745525741926,-0.00017907415928355644
0.02058107198899365,-0.0026478403023024438,-0.00018040055574056752
0.0221094641459605,-0.0026371676682687053,-0.00018172180773321032
0.023621457483411663,-0.002625734937861362,-0.00018303753338474283
0.02511357165151779,-0.0026135511805776297,-0.0001843473549143526
0.026582406429167572,-0.0026006271860574584,-0.00018565089950601136
0.028024661501879603,-0.0025869754190746964,-0.0001869478001572944
0.029437156053207025,-0.002572609964685925,-0.00018823769650323454
0.030816847941156092,-0.002557546463687334,-0.00018952023561032787
0.03216085225354789,-0.002541802038638658,-0.00019079507273590937
0.03346645905794428,-0.002525395210810785,-0.00019206187204827172
0.03473115017625436,-0.002508345808502235,-0.00019332030730309999
0.03595261482344608,-0.00249067486725231,-0.0001945700624720386
0.037128763956981836,-0.002472404522557203,-0.00019581083231949098
0.038257743180002746,-0.0024535578957729566,-0.00019704232292407352
0.039337944017145424,-0.0024341589739736696,-0.00019826425214151017
0.04036801334821981,-0.0024142324846323283,-0.00019947635000616167
0.04134686076916017,-0.0023938037661029835,-0.0002006783590688455
0.04227366366427232,-0.0023728986349946255,-0.0002018700346691199
0.043147869805338364,-0.0023515432516272227,-0.00020305114514077534
0.04396919732415551,-0.0023297639848448492,-0.00020422147194989335
0.04473763193669133,-0.0023075872775296376,-0.00020538080976548697
0.045453421341951884,-0.0022850395142099767,-0.00020652896646342186
0.04611706677914065,-0.0022621468921797034,-0.0002076657630650193
0.0467293117899673,-0.0022389352975374266,-0.00020879103361244857
0.047291128287433946,-0.002215430187518076,-0.00020990462498371245
0.04780370007631881,-0.002191656480427138,-0.00021100639665069874
0.04826840400688282,-0.0021676384544063376,-0.00021209622038440712
0.048686788977219,-0.002143399656160312,-0.0002131739799120488
0.04906055303744595,-0.0021189628206566458,-0.00021423957053125304
0.04939151889532414,-0.0020943498026734534,-0.00021529289868708556
0.049681608181984825,-0.0020695815209041263,-0.00021633388151797995
0.04993281491494539,-0.0020446779151298937,-0.00021736244637698846
0.05014717868876379,-0.0020196579167289664,-0.00021837853033495317
0.050326758195745475,-0.001994539432507839,-0.00021938207967226237
0.050473605681452226,-0.0019693393415385397,-0.00022037304936577397
0.050589742861838115,-0.0019440735044027172,-0.0002213514025772593
0.0506771387181786,-0.0019187567840077131,-0.0002223171101493619
0.05073768950657823,-0.0018934030769515238,-0.0002232701501146017
0.050773201295117414,-0.0018680253542511,-0.00022421050722240237
0.050785375340189,-0.0018426357100922734,-0.0002251381724884882
0.05077579657206977,-0.0018172454171142087,-0.00022605314277028982
0.050745925344757324,-0.001791864986635002,-0.00022695542037122712
0.0506970924430094,-0.0017665042321880603,-0.00022784501267593288
0.05063049718838977,-0.0017411723347802105,-0.00022872193181767495
0.0505472083803365,-0.001715877908388029,-0.000229586194378467
0.05044816774270462,-0.0016906290643572688,-0.00023043782112165334
0.05033419550271681,-0.0016654334735459134,-0.00023127683675612913
0.05020599769531234,-0.0016402984252464061,-0.00023210326973082722
0.05006417475978235,-0.0016152308821326324,-0.00023291715205767197
0.04990923099198666,-0.0015902375306946902,-0.0002337185191608788
0.04974158445483331,-0.0015653248268329852,-0.00023450740975026072
0.04956157703200397,-0.001540499036461276,-0.0002352838657160843
0.049369484402360844,-0.0015157662711026848,-0.0002360479320429753
0.049165525774336076,-0.0014911325185585106,-0.0002367996567403906
0.04894987323991013,-0.001466603668804949,-0.00023753909078723148
0.04872266061256949,-0.0014421855353418292,-0.00023826628808826816
0.04848399163518459,-0.0014178838722798907,-0.0002389813054401736
0.04823394749270702,-0.0013937043874979178,-0.00023968420250511805
0.04797259363114886,-0.001369652752216954,-0.00024037504179004677
0.047699985946324346,-0.0013457346073225856,-0.00024105388862993165
0.04741617643713723,-0.0013219555667267201,-0.000241720811173444
0.047121218405557816,-0.0012983212180160463,-0.00024237588036962968
0.046815171244062107,-0.0012748371206036412,-0.0002430191699542846
0.04649810480816001,-0.0012515088015905857,-0.00024365075643483316
0.04617010334010557,-0.0012283417495535193,-0.0002442707190726192
0.045831268889518044,-0.0012053414064961134,-0.0002448791398616316
0.045481724165527336,-0.0011825131582323522,-0.0002454761035028137
0.04512161474898206,-0.001159862323503725,-0.0002460616973732477
0.04475111058372724,-0.0011373941421705476,-0.00024663601148966626
0.04437040664902779,-0.0011151137628623588,-0.00024719913846592447
0.043979722697966295,-0.0010930262305256103,-0.0002477511734642715
0.04357930194654131,-0.0010711364743644833,-0.000248292214140494
0.04316940863327992,-0.0010494492967195281,-0.000248822360583265
0.04275032443517381,-0.0010279693634524148,-0.000249341715248308
0.04232234378941576,-0.0010067011963962673,-0.00024985038288827016
0.04188576820293996,-0.0009856491683981783,-0.00025034847047946876
0.04144089964071397,-0.0009648175014372648,-0.00025083608714692764
0.04098803309683704,-0.0009442102682528771,-0.0002513133440893502
0.04052744848482162,-0.0009238313978574624,-0.0002517803545058778
0.04005940203211495,-0.0009036846852282283,-0.0002522372335266492
0.03958411741873154,-0.0008837738053655167,-0.0002526840981492976
0.03910177694187999,-0.0008641023317753639,-0.0002531210671835828
0.03861251299724951,-0.0008446737592905815,-0.0002535482612063493
0.03811640014250508,-0.0008254915310056428,-0.00025396580252892335
0.03761344797120283,-0.0008065590689772159,-0.00025437381517891906
0.037103594992053804,-0.0007878798082364016,-0.00025477242489822246
0.03658670367685564,-0.0007694572335691743,-0.00025516175915867386
0.03606255680685946,-0.0007512949184482455,-0.0002555419471966782
0.03553085522028766,-0.0007333965654414587,-0.0002559131200676506
0.034991217049896994,-0.0007157660473739126,-0.00025627541072085444
0.03444317853491003,-0.0006984074484777109,-0.0002566289540948174
0.033886196489930485,-0.0006813251047215008,-0.0002569738872331172
0.03331965250999767,-0.0006645236424715188,-0.00025731034941991543
0.032742858977266066,-0.0006480080145997029,-0.00025763848233418326
0.03215506690171725,-0.0006317835331299571,-0.00025795843022111565
0.03155547557508127,-0.0006158558975107575,-0.0002582703400787758
0.030943243953264806,-0.000600231217628671,-0.00025857436185756065
0.03031750362029722,-0.0005849160307352804,-0.00025887064866965165
0.02967737313405622,-0.0005699173115466921,-0.00025915935700522217
