acceleration,velocity,displacement
-0.0633783911632263,0.0,0.0
-0.06228360096151399,-3.141549803118507e-05,-7.853874507796267e-09
-0.06119360837693768,-6.228480036579799e-05,-3.127894910704203e-08
-0.06011316704202865,-9.261149422053957e-05,-7.000302275362641e-08
-0.05904694333960926,-0.00012240152181594905,-1.2375627676274857e-07
-0.057999474539401595,-0.00015166312628570177,-1.9227243878816126e-07
-0.05697512895859358,-0.00018040677716020057,-2.7528991464963687e-07
-0.055978068699682915,-0.0002086450765747697,-3.7255287808337943e-07
-0.05501221544081755,-0.0002363926476098948,-4.838123091295455e-07
-0.054081219664994254,-0.00026366600638634774,-6.088269726286061e-07
-0.053188433622741345,-0.00029048341970828166,-7.473643291522635e-07
-0.05233688822768879,-0.0003168647501708892,-8.992013716220562e-07
-0.0515292739682208,-0.0003428312907198666,-1.0641253818447453e-06
-0.05076792577886007,-0.00036840559065663686,-1.2419346021888713e-06
-0.0500548116872621,-0.0003936112750231674,-1.4324388186088223e-06
-0.049391524976138836,-0.00041847285918901765,-1.6354598521618685e-06
-0.048779279575327655,-0.0004430155603268843,-1.850831957040844e-06
-0.04821890839836665,-0.0004672651073203079,-2.078402123952642e-06
-0.04771086434427991,-0.0004912475505059695,-2.318030288409211e-06
-0.047255223714611154,-0.0005149890725206922,-2.5695894441658768e-06
-0.04685169186874507,-0.0005385158014165313,-2.8329656626501825e-06
-0.046499611043700914,-0.0005618536271446428,-3.108058019790476e-06
-0.0461979703473562,-0.000585028022492407,-3.3947784321997386e-06
-0.04594541795552587,-0.0006080638695681276,-3.6930514052148724e-06
-0.04574027551815154,-0.000630985292936547,-4.002813695841041e-06
-0.045580554760430374,-0.0006538155005061925,-4.324013894201726e-06
-0.04546397627514204,-0.0006765766332650856,-4.656611927644546e-06
-0.04538799051456186,-0.0006992896249625115,-5.000578492201445e-06
-0.04534980097082187,-0.0007219740728338574,-5.355894416650537e-06
-0.04534638948569623,-0.000744648120447987,-5.722549964970998e-06
-0.045374543576351074,-0.0007673283537134988,-6.100544083511369e-06
-0.04543088561240385,-0.0007900297110106875,-6.489883599692416e-06
-0.04551190362866459,-0.0008127654083209546,-6.890582379525327e-06
-0.045613983504802315,-0.0008355468801043214,-7.302660451631646e-06
-0.04573344218842424,-0.0008583837365276281,-7.726143105789634e-06
-0.045866561581276596,-0.0008812837374700533,-8.161059974289055e-06
-0.04600962265206624,-0.000904252783528389,-8.607444104538665e-06
-0.04615893929097942,-0.0009272949240141504,-9.0653310314243e-06
-0.046310891386884774,-0.0009504123816836164,-9.534757857848741e-06
-0.046461956588570226,-0.0009736055936774802,-1.0015762351689016e-05
-0.04660874020367067,-0.0009968732678755404,-1.0508382067077271e-05
-0.046748002695131144,-0.0010202124536002409,-1.1012653497446216e-05
-0.0468766842652025,-0.0010436186253403243,-1.1528611267181358e-05
-0.04699192608011298,-0.0010670857779266532,-1.2056287367998102e-05
-0.04709108778123454,-0.0010906065313919901,-1.2595710445327763e-05
-0.04717176104064794,-0.0011141722435974609,-1.3146905139075125e-05
-0.0472317790438169,-0.001137773128618577,-1.3709891482129135e-05
-0.04726922191290299,-0.0011613983788577571,-1.4284684358998218e-05
-0.04728241821079766,-0.0011850362888886823,-1.4871293025934828e-05
-0.04726994278117675,-0.001208674379136676,-1.5469720692941168e-05
-0.047230611277974795,-0.0012322995176514639,-1.60799641671382e-05
-0.04716347180749791,-0.001255898038422832,-1.6702013556156774e-05
-0.0470677941351691,-0.001279455854908499,-1.7335852029489608e-05
-0.04694305689913032,-0.0013029585676670738,-1.79814556351335e-05
-0.046788933246597164,-0.0013263915652035056,-1.8638793168351145e-05
-0.04660527529078969,-0.0013497401173378524,-1.9307826088986486e-05
-0.04639209778461645,-0.001372989460606704,-1.9988508483472625e-05
-0.04614956141276714,-0.00139612487540605,-2.0680787067475815e-05
-0.04587795610129935,-0.0014191317547845666,-2.138460122502347e-05
-0.04557768471887923,-0.0014419956649896113,-2.2099883079967014e-05
-0.045249247486682485,-0.0014647023980410017,-2.2826557595724667e-05
-0.04489322732959308,-0.0014872380167450705,-2.3564542699421186e-05
-0.04451027631241301,-0.001509588892655572,-2.4313749426771345e-05
-0.04410110323358229,-0.0015317417375420707,-2.5074082084320756e-05
-0.04366646240311088,-0.0015536836289512439,-2.5845438425944086e-05
-0.04320714360576094,-0.0015754020304534619,-2.662770984079526e-05
-0.042723963234997143,-0.0015968848071636515,-2.742078155019954e-05
-0.042217756574785895,-0.0016181202371160972,-2.8224532811269476e-05
-0.04168937121175064,-0.0016390970190627314,-2.9038837125314183e-05
-0.04113966158026804,-0.001659804277260736,-2.986356244939505e-05
-0.040569484665874574,-0.0016802315638222718,-3.06985714096658e-05
-0.0399796969044402,-0.0017003688592148504,-3.154372151542508e-05
-0.039371152303372146,-0.0017202065715168034,-3.2398865373107995e-05
-0.038744701768055854,-0.0017397355350346605,-3.326385089974586e-05
-0.03810119355524182,-0.001758947008865485,-3.41385215357209e-05
-0.037441474731072434,-0.0017778326759370635,-3.502271645692153e-05
-0.03676639351239107,-0.0017963846429979295,-3.591627078665528e-05
-0.036076802405987075,-0.001814595441977524,-3.681901580789914e-05
-0.03537356208880121,-0.0018324580331012211,-3.7730779176668823e-05
-0.034657545961560045,-0.0018499658101138114,-3.865138513747258e-05
-0.03392964527634829,-0.0018671126079232885,-3.9580654741981854e-05
-0.03319077472123434,-0.001883892712922684,-4.051840607219335e-05
-0.03244187834359661,-0.0019003008761888918,-4.146445446947124e-05
-0.03168393568381922,-0.0019163323296957457,-4.24186127709424e-05
-0.030917967964415916,-0.0019319828056078045,-4.3380691554768286e-05
-0.030145044148128627,-0.0019472485586359406,-4.435049939582922e-05
-0.029366286654901305,-0.001962126391336698,-4.5327843133322384e-05
-0.02858287652076591,-0.001976613682130615,-4.631252815168921e-05
-0.02779605779579657,-0.0019907084157097556,-4.730435867614931e-05
-0.027007141005900733,-0.00200440921541018,-4.830313808392929e-05
-0.026217505526673093,-0.0020177153770433234,-4.930866923204266e-05
-0.025428600725495562,-0.0020306269036063657,-5.0320754802205086e-05
-0.024641945727759376,-0.0020431445402196795,-5.13391976631616e-05
-0.023859127671681375,-0.0020552698085695396,-5.23638012503589e-05
-0.02308179834751938,-0.00206700504007434,-5.339436996251987e-05
-0.02231166917660112,-0.0020783534069553702,-5.44307095742773e-05
-0.021550504567164386,-0.002089318950391312,-5.547262766361397e-05
-0.020800113763557677,-0.0020999066049739923,-5.6519934052455294e-05
-0.020062341352221194,-0.002110122218752937,-5.7572441258387025e-05
-0.019339056592320894,-0.0021199725682390725,-5.862996495513503e-05
-0.018632141723996257,-0.002129465367818152,-5.969232443914933e-05
-0.017943479397366912,-0.0021386092730984927,-6.075934309937849e-05
-0.017274939359886846,-0.0021474138777878063,-6.183084888710007e-05
-0.01662836453542923,-0.002155889703761635,-6.290667478248742e-05
-0.01600555664858002,-0.0021640481840576376,-6.398665925444225e-05
-0.015408261613889463,-0.002171901638623255,-6.507064671011248e-05
-0.014838154998708436,-0.0021794632427764044,-6.615848793046239e-05
-0.01429682792332594,-0.002186746988506913,-6.725004048828323e-05
-0.013785773751686476,-0.002193767638925666,-6.834516914514137e-05
-0.013306375867485606,-0.002200540676330459,-6.944374622395541e-05
-0.01285989675764598,-0.002207082244486742,-7.054565195415971e-05
-0.012447468550589537,-0.002213409085813801,-7.165077478673484e-05
-0.01207008508031645,-0.0022195384742215276,-7.275901167674368e-05
-0.011728595479962372,-0.002225488144361597,-7.387026833138945e-05
-0.011423699263465167,-0.002231276218047454,-7.498445942199171e-05
-0.011155942829019105,-0.0022369211285705754,-7.610150875864622e-05
-0.010925717297504496,-0.002242441543602206,-7.722134942668942e-05
-0.010733257567378291,-0.0022478562873184268,-7.834392388441958e-05
-0.010578642422571371,-0.0022531842623159143,-7.946918402182817e-05
-0.0104617954882266,-0.0022584443717936138,-8.059709118035554e-05
-0.010382486809319963,-0.0022636554423680006,-8.172761613389595e-05
-0.010340334829510044,-0.0022688361477777082,-8.286073903143238e-05
-0.010334808562314935,-0.0022740049336256647,-8.399644930178322e-05
-0.010365229777532478,-0.0022791799432106265,-8.51347455209923e-05
-0.01043077508442758,-0.0022843789444261164,-8.627563524290149e-05
-0.01053047787407342,-0.0022896192576657417,-8.741913479342445e-05
-0.01066323016251622,-0.0022949176846748893,-8.856526902900962e-05
-0.010827784433687673,-0.0023002904383239405,-8.971407105975933e-05
-0.011022755606383194,-0.002305753073333958,-9.086558193767381e-05
-0.011246623238995548,-0.0023113204180453028,-9.201985031051863e-05
-0.011497734045749275,-0.002317006507366489,-9.317693204187157e-05
-0.011774304753395784,-0.0023228245170662755,-9.433688979797976e-05
-0.012074425305746749,-0.0023287866995810613,-9.54997926021416e-05
-0.01239606243583874,-0.0023349043215164576,-9.666571535741597e-05
-0.01273706365896028,-0.0023411876030401575,-9.783473833855513e-05
-0.013095161770120179,-0.0023476456593974275,-9.900694665416453e-05
-0.013467979940922883,-0.002354286444825188,-0.00010018242968022018
-0.013853037501970969,-0.0023611166991859118,-0.00010136128046622295
-0.014247756474799773,-0.0023681418976801046,-0.00010254359511543946
-0.014649468892430611,-0.002375366204021912,-0.00010372947214086496
-0.015055424926639274,-0.0023827924274766794,-0.00010491901179873961
-0.015462801817427117,-0.002390421984162696,-0.00010611231540164946
-0.01586871357453691,-0.002398254863010687,-0.00010730948461344281
-0.01627022140868876,-0.0024062895967564934,-0.0001085106207283846
-0.01666434486333667,-0.0024145232383245,-0.00010971582393715485
-0.01704807363940878,-0.002422951342950186,-0.00011092519258247351
-0.017418380107513134,-0.0024315679563869166,-0.00011213882240730778
-0.01777223247552417,-0.002440365609532676,-0.00011335680579878768
-0.018106608537782853,-0.0024493353197860028,-0.00011457923103111735
-0.018418509893482562,-0.002458466599393819,-0.00011580618151091231
-0.018704976493689098,-0.002467747470990612,-0.00011703773502850842
-0.018963101356492033,-0.0024771644904531573,-0.00011827396301886936
-0.019190045274900806,-0.0024867027771110057,-0.0001195149298357604
-0.019383051335081992,-0.0024963460512635012,-0.00012076069204285403
-0.019539459068029442,-0.002506076678864279,-0.00012201129772538598
-0.01965671807388932,-0.0025158757231497587,-0.0001232667858258895
-0.019732400978025127,-0.0025257230029127374,-0.0001245271855074051
-0.01976421559871014,-0.0025355971570569214,-0.0001257925155473975
-0.01975001623126096,-0.002545475715014414,-0.00012706278376541533
-0.019687813980824684,-0.0025553351725674358,-0.0001283379864873108
-0.01957578609797632,-0.002565151072587136,-0.00012961810804859944
-0.019412284285097753,-0.0025748980901829045,-0.00013090312033929195
-0.019195841952667186,-0.002584550121742346,-0.00013219298239227327
-0.018925180415967132,-0.0025940803773345047,-0.0001334876400170425
-0.01859921403520588,-0.002603461475947298,-0.00013478702548036295
-0.018217054320262546,-0.002612665543036165,-0.00013609105723510882
-0.01777801304440546,-0.0026216643098773322,-0.0001373996396983372
-0.017281604424945658,-0.00263042921424467,-0.0001387126630793677
-0.016727546417868066,-0.0026389315019553733,-0.00014003000325841773
-0.016115761141676063,-0.0026471423288452595,-0.00014135152171611788
-0.015446374414220932,-0.0026550328627342338,-0.00014267706551401274
-0.01471971437630406,-0.002662574384931865,-0.00014400646732592927
-0.01393630919448557,-0.0026697383908245624,-0.00014533954551986837
-0.01309688387535753,-0.002676496689092023,-0.00014667610428984753
-0.012202356268633753,-0.0026828214991280208,-0.00014801593383690254
-0.011253832373128027,-0.002688685546288461,-0.00014935881059825666
-0.010252601084105412,-0.0026940621546527694,-0.00015070449752349198
-0.009200128531935414,-0.0026989253370567796,-0.00015205274439641936
-0.008098052156892308,-0.0027032498822289865,-0.0001534032882012408
-0.006948174643545186,-0.002707011438929096,-0.0001547558535315303
-0.005752457809609275,-0.0027101865970423846,-0.00015611015304052317
-0.004513016517026897,-0.0027127529656240435,-0.00015746588793118978
-0.003232112649659698,-0.002714689247915715,-0.00015882274848457473
-0.0019121491808515413,-0.0027159753133733427,-0.000160180414624897
-0.0005556643307588235,-0.002716592266751245,-0.00016153855651992815
0.0008346742166318549,-0.002716522514279777,-0.0001628968352151859
0.0022560751024146104,-0.0027157498269500153,-0.00016425490330049334
0.0037056291944840987,-0.0027142594008757906,-0.0001656124056074498
0.00518031575781592,-0.0027120379146377154,-0.00016696897993632816
0.0066770090918822625,-0.002709073583425291,-0.0001683242578108439
0.008192485846456632,-0.002705356209690706,-0.0001696778652591229
0.009723433213128296,-0.0027008772299258097,-0.00017102942361902701
0.01126645818054384,-0.002695629757077392,-0.00017237855036577782
0.012818098042205003,-0.0026896086180217046,-0.0001737248599595526
0.014374832317614814,-0.0026828103854317498,-0.00017506796471041596
0.015933096161428677,-0.002675233403311989,-0.00017640747565760188
0.017489295215813362,-0.0026668778054676785,-0.0001777430034597968
0.01903982176236408,-0.002657745526223134,-0.00017907415929271952
0.020581071983950115,-0.0026478403027865556,-0.00018040055574997194
0.022109464142453863,-0.0026371676687549548,-0.00018172180774285733
0.023621457481434283,-0.002625734938348983,-0.00018303753339463333
0.025113571651041625,-0.002613551181065864,-0.00018434735492448703
0.026582406430162037,-0.002600627186545563,-0.00018565089951638988
0.028024661504320487,-0.0025869754195619425,-0.00018694780016791676
0.02943715605706884,-0.002572609965171595,-0.00018823769651410015
0.03081684794641972,-0.0025575464641707226,-0.00018952023562143573
0.032160852260201864,-0.002541802039119067,-0.00019079507274725817
0.033466459065979684,-0.0025253952112875215,-0.00019206187205985983
0.03473115018565717,-0.0025083458089746125,-0.00019332030731492538
0.03595261483420229,-0.0024906748677196474,-0.00019457006248409895
0.037128763969074864,-0.002472404523018828,-0.00019581083233178356
0.03825774319341731,-0.002453557896228205,-0.00019704232293659533
0.039337944031859855,-0.0024341589744218857,-0.00019826425215425784
0.04036801336420098,-0.0024142324850728704,-0.00019947635001913152
0.041346860786368574,-0.002393803766535228,-0.00020067835908203354
0.042273663682665906,-0.0023728986354179696,-0.00020187003468252185
0.04314786982486742,-0.002351543252041086,-0.0002030511451543866
0.04396919734476015,-0.0023297639852486794,-0.00020422147196370904
0.04473763195830019,-0.002307587277922914,-0.00020538080977950193
0.04545342136448467,-0.002285039514592218,-0.0002065289664776307
0.04611706680250817,-0.0022621468925504698,-0.00020766576307941638
0.04672931181407141,-0.002238935297896325,-0.00020879103362702808
0.0472911283121676,-0.002215430187864765,-0.00020990462499846836
0.047803700101569854,-0.0021916564807613306,-0.00021100639666562487
0.04826840403254294,-0.0021676384547278022,-0.00021209622039949715
0.048686789003176044,-0.0021433996564688726,-0.00021317397992729633
0.04906055306358523,-0.0021189628209521824,-0.00021423957054665158
0.0493915189215335,-0.002094349802955903,-0.0002152928987026286
0.049681608208158486,-0.00206958152117348,-0.00021633388153366096
0.04993281494098141,-0.0020446779153861947,-0.00021736244639280087
0.050147178714557664,-0.00201965791697231,-0.00021837853035089048
0.05032675822119015,-0.001994539432738373,-0.00021938207968831815
0.050473605706439384,-0.0019693393417564656,-0.00022037304938194187
0.050589742886256873,-0.0019440735046082915,-0.00022135140259353306
0.05067713874192447,-0.0019187567842012462,-0.00022231711016573545
0.05073768952955053,-0.0018934030771333775,-0.0002232701501310691
0.05077320131722056,-0.0018680253544216846,-0.00022421050723895786
0.050785375361333776,-0.001842635710252046,-0.00022513817250512628
0.050775796592175904,-0.0018172454172636686,-0.00022605314278700521
0.05074592536375471,-0.001791864986774686,-0.0002269554203880148
0.05069709246083687,-0.0017665042323185382,-0.0002278450126927881
0.05063049720499381,-0.0017411723349020805,-0.00022872193183459325
0.05054720839567249,-0.0017158779085019139,-0.00022958619439544423
0.05044816775673816,-0.0016906290644638112,-0.00023043782113868567
0.050334195515427504,-0.0016654334736457698,-0.00023127683677321307
0.050205997706682354,-0.0016402984253402423,-0.00023210326974795956
0.05006417476979129,-0.001615230882221124,-0.0002329171520748499
0.04990923100060776,-0.0015902375307785242,-0.00023371851917809982
0.049741584462034714,-0.0015653248269128636,-0.00023450740976752266
0.04956157703775382,-0.0015404990365379164,-0.00023528386573338535
0.049369484406628555,-0.0015157662711768208,-0.00023604793206031402
0.04916552577708596,-0.0014911325186308922,-0.00023679965675776595
0.048949873241096314,-0.0014666036688763466,-0.00023753909080464277
0.04872266061213717,-0.0014421855354130382,-0.00023826628810571512
0.04848399163307897,-0.0014178838723517342,-0.0002389813054576563
0.04823394748888221,-0.001393704387571244,-0.00023968420252263705
0.04797259362556537,-0.0013696527522926321,-0.000240375041807603
0.04769998593895158,-0.001345734607401503,-0.00024105388864752655
0.047416176427953524,-0.0013219555668097767,-0.00024172081119107938
0.04712121839454916,-0.0012983212181041511,-0.00024237588038730786
0.046815171231225944,-0.0012748371206977073,-0.00024301916997200834
0.04649810479350908,-0.0012515088016915234,-0.00024365075645260565
0.04617010332367302,-0.001228341749662228,-0.0002442707190904441
0.04583126887134975,-0.0012053414066134722,-0.000244879139879513
0.04548172414568191,-0.0011825131583592143,-0.0002454761035207562
0.04512161472752834,-0.0011598623236409116,-0.00024606169739125624
0.0447511105607455,-0.0011373941423188432,-0.0002466360115077462
0.044370406624609796,-0.0011151137630225044,-0.00024719913848408155
0.04397972267221527,-0.0010930262306982981,-0.00024775117348251177
0.04357930191956814,-0.0010711364745503522,-0.0002482922141588239
0.043169408605194186,-0.0010494492969191616,-0.0002488223606016913
0.04275032440608131,-0.0010279693636663428,-0.00024934171526683766
0.04232234375942225,-0.001006701196624967,-0.00024985038290691047
0.041885768172151235,-0.0009856491686420737,-0.00025034847049822725
0.0414408996092256,-0.0009648175016967295,-0.00025083608716581194
0.04098803306473441,-0.0009442102685282395,-0.0002513133441083682
0.040527448452183756,-0.0009238313981490099,-0.0002517803545250375
0.040059401999025954,-0.0009036846855362075,-0.00025223723354595877
0.039584117385279345,-0.0008837738056901312,-0.00025268409816876536
0.039101776908158914,-0.0008641023321167716,-0.0002531210672032171
0.03861251296335895,-0.0008446737596488922,-0.0002535482612261585
0.03811640010854827,-0.0008254915313809154,-0.000253965802548916
0.03761344793727789,-0.0008065590693694588,-0.0002543738151991036
0.03710359495825378,-0.000787879808645576,-0.00025477242491860736
0.03658670364327356,-0.0007694572339951942,-0.0002551617591792675
0.0360625567735909,-0.0007512949188909781,-0.0002555419472174891
0.03553085518742311,-0.0007333965659007246,-0.000255913120088687
0.03499121701753075,-0.0007157660478494862,-0.0002562754107421246
0.03444317850314151,-0.0006984074489693181,-0.0002566289541163293
0.03388619645886419,-0.0006813251052288166,-0.00025697388725487886
0.03331965247974064,-0.0006645236429941655,-0.0002573103494419346
0.03274285894792537,-0.000648008015137249,-0.00025763848235646746
0.032155066873405025,-0.0006317835336819164,-0.00025795843024367226
0.03155547554791094,-0.0006158558980765874,-0.00025827034010161186
0.030943243927349803,-0.0006002312182077722,-0.00025857436188068294
0.03031750359574331,-0.0005849160313269989,-0.0002588706486930666
0.029677373110958995,-0.0005699173121503234,-0.00025915935702893595
