frame_number,force
0,869.4658199986181
1,869.6034399889693
2,869.7400591868055
3,869.8746940414073
4,870.0063948281858
5,870.1342609747508
6,870.2574546159345
7,870.3752119621637
8,870.4868521724396
9,870.591783542574
10,870.6895069384709
11,870.7796165246627
12,870.8617979899593
13,870.935824659434
14,871.0015520467135
15,871.0589114767389
16,871.1079033955968
17,871.1485909302955
18,871.181094195168
19,871.2055857370284
20,871.222287334061
21,871.2314681370576
22,871.2334439515536
23,871.2285773750622
24,871.2172785007859
25,871.2000058903019
26,871.1772674625244
27,871.1496208926635
28,871.1176731192251
29,871.0820786143081
30,871.0435361458178
31,871.0027838337436
32,870.960592381472
33,870.9177564511878
34,870.8750842491366
35,870.833385492187
36,870.7934580375927
37,870.7560735604175
38,870.7219627467688
39,870.6918005350439
40,870.6661919856987
41,870.6456593888286
42,870.6306312105796
43,870.621433418269
44,870.6182836152904
45,870.6212882767661
46,870.6304432157966
47,870.6456372389547
48,870.6666587845862
49,870.6932051899643
50,870.7248941121818
51,870.7612765513246
52,870.8018509134844
53,870.8460776010597
54,870.8933936910653
55,870.9432273167481
56,870.9950113896073
57,871.04819630353
58,871.1022612755811
59,871.1567240230247
60,871.2111485702759
61,871.2651511143096
62,871.31840401486
63,871.370638079253
64,871.4216433685211
65,871.4712687708169
66,871.5194205873867
67,871.5660603612134
68,871.611202137945
69,871.6549092821908
70,871.6972909004336
71,871.7384978676605
72,871.7787184400682
73,871.8181734760103
74,871.8571113594637
75,871.8958027647436
76,871.9345353723098
77,871.9736085602149
78,872.0133280262661
79,872.0540002951076
80,872.0959271030392
81,872.1393996710618
82,872.1846928711778
83,872.2320593034798
84,872.2817233457617
85,872.333875293362
86,872.3886657531398
87,872.446200476682
88,872.5065358066519
89,872.5696748790168
90,872.6355647020995
91,872.7040942395422
92,872.7750936459972
93,872.8483348121839
94,872.9235333463242
95,873.0003520420213
96,873.0784057687165
97,873.157267609633
98,873.2364760151793
99,873.3155427527327
100,873.3939614777595
101,873.4712167847891
102,873.5467936209737
103,873.6201869647286
104,873.6909116483135
105,873.7585120994057
106,873.8225716324489
107,873.882720830483
108,873.938644576082
109,873.9900873863832
110,874.0368568255075
111,874.0788248872271
112,874.1159273615874
113,874.1481613034763
114,874.1755807867452
115,874.198291158482
116,874.2164420309928
117,874.2302192904738
118,874.2398364650602
119,874.2455258533898
120,874.2475298367036
121,874.2460927826959
122,874.2414539143151
123,874.2338414553632
124,874.2234682573994
125,874.2105289685351
126,874.1951986641923
127,874.1776327572917
128,874.1579679569284
129,874.1363240575325
130,874.1128064032272
131,874.0875089435096
132,874.0605178290642
133,874.0319154723159
134,874.0017849379504
135,873.9702144745596
136,873.9373019764645
137,873.9031591766583
138,873.8679154060867
139,873.8317207932539
140,873.7947488104965
141,873.7571981081564
142,873.7192936179547
143,873.6812869243428
144,873.6434558776524
145,873.6061033837839
146,873.5695552993412
147,873.5341574038057
148,873.5002714888134
149,873.4682706685762
150,873.4385340621548
151,873.4114410319476
152,873.3873651884853
153,873.366668384724
154,873.3496949158218
155,873.3367661158263
156,873.3281755126067
157,873.3241846710914
158,873.3250198172138
159,873.3308692935087
160,873.3418818653678
161,873.358165878768
162,873.3797892567329
163,873.406780307756
164,873.4391293034012
165,873.4767907563893
166,873.5196862958514
167,873.567708017471
168,873.6207222079644
169,873.6785733997588
170,873.7410887668705
171,873.8080828914556
172,873.8793629003094
173,873.9547339042223
174,874.0340045974143
175,874.1169928123646
176,874.2035307840002
177,874.2934698574919
178,874.3866843822173
179,874.483074570415
180,874.582568147537
181,874.6851206679233
182,874.7907144106904
183,874.8993558091056
184,875.0110714100033
185,875.1259024154627
186,875.2438979254086
187,875.3651070772662
188,875.4895703705462
189,875.6173105471557
190,875.7483234319856
191,875.8825691284273
192,876.0199639625034
193,876.1603735862794
194,876.3036076202453
195,876.4494160860332
196,876.5974876964179
197,876.7474499195721
198,876.8988706726191
199,877.0512615065599
200,877.2040821627709
201,877.3567463725801
202,877.5086287426635
203,877.6590725476733
204,877.8073982535027
205,877.9529126181882
206,878.0949182520055
207,878.2327235484399
208,878.3656529120616
209,878.493057211419
210,878.6143243800768
211,878.7288900625031
212,878.8362481371762
213,878.9359608662054
214,879.0276683650063
215,879.111097078834
216,879.186066973018
217,879.2524971616818
218,879.3104097179081
219,879.3599314489
220,879.4012934868603
221,879.4348286193065
222,879.4609663425207
223,879.4802256661343
224,879.4932057313403
225,879.5005743390122
226,879.5030545281654
227,879.5014094079029
228,879.4964255347509
229,879.4888952533693
230,879.4795985742305
231,879.4692852870486
232,879.4586580213473
233,879.4483568480293
234,879.4389458476968
235,879.4309019600263
236,879.4246064147148
237,879.4203390710404
238,879.4182759553129
239,879.4184901261233
240,879.4209557601761
241,879.4255551338109
242,879.4320880339908
243,879.4402830584779
244,879.44981022691
245,879.4602943008646
246,879.4713281984593
247,879.4824859115267
248,879.4933344252328
249,879.5034443004461
250,879.51239875297
251,879.5198011821697
252,879.5252811458832
253,879.5284987926262
254,879.5291478001941
255,879.5269569500447
256,879.5216905725957
257,879.5131481931747
258,879.5011637475418
259,879.4856046981433
260,879.4663712931581
261,879.4433961158629
262,879.4166439946638
263,879.3861122840493
264,879.3518314809414
265,879.3138661026658
266,879.2723157083599
267,879.2273158888364
268,879.1790389930269
269,879.1276943320725
270,879.0735276355871
271,879.0168196218483
272,878.9578836290834
273,878.897062290579
274,878.8347232350003
275,878.7712538021623
276,878.7070548087648
277,878.6425334740564
278,878.578095704692
279,878.5141380095412
280,878.4510393343568
281,878.3891530720979
282,878.3287994534182
283,878.2702584808262
284,878.2137635347246
285,878.159495743949
286,878.1075791911696
287,878.0580770256099
288,878.0109885747444
289,877.966247571979
290,877.9237216403475
291,877.8832131783514
292,877.84446176722
293,877.8071481572798
294,877.7708998104813
295,877.7352978962831
296,877.6998855721943
297,877.6641773387967
298,877.6276692477577
299,877.5898497439167
300,877.5502109065887
301,877.5082598082727
302,877.4635296538519
303,877.4155903367483
304,877.3640580771876
305,877.3086038950291
306,877.2489607823886
307,877.18492952381
308,877.1163831351312
309,877.0432698779697
310,876.965614793703
311,876.8835197086956
312,876.7971616879727
313,876.7067899387372
314,876.6127211685267
315,876.51533339454
316,876.4150582285453
317,876.3123717690087
318,876.2077844025798
319,876.1018299757444
320,875.9950548648887
321,875.8880074230167
322,875.7812281507316
323,875.6752407845278
324,875.5705443561195
325,875.4676061806495
326,875.3668557070044
327,875.2686792186349
328,875.1734154770119
329,875.0813524908244
330,874.9927256147611
331,874.907717119752
332,874.8264572775298
333,874.7490269224969
334,874.6754614041882
335,874.6057558000109
336,874.5398712001736
337,874.4777418015243
338,874.4192824732831
339,874.3643964230913
340,874.3129826235692
341,874.2649427449505
342,874.2201874265469
343,874.178641757422
344,874.1402498234823
345,874.1049781625251
346,874.0728179936274
347,874.0437861478395
348,874.017924684993
349,873.9952992107027
350,873.9759959196492
351,873.9601174192384
352,873.9477774549999
353,873.9390947514407
354,873.9341862511716
355,873.9331600450997
356,873.9361082495855
357,873.9431000405261
358,873.9541750230073
359,873.9693370991586
360,873.9885489877583
361,874.0117275449834
362,874.0387400405124
363,874.0694015519539
364,874.1034736403374
365,874.140664457396
366,874.1806304194045
367,874.2229795590333
368,874.2672766124116
369,874.3130497942549
370,874.359799069973
371,874.4070055801423
372,874.4541417391447
373,874.5006814420473
374,874.5461097975578
375,874.5899318779777
376,874.6316801271022
377,874.6709202462392
378,874.7072555425616
379,874.7403298620129
380,874.7698293382226
381,874.795483245977
382,874.8170642300765
383,874.8343881038571
384,874.8473133294949
385,874.8557402520769
386,874.8596101662824
387,874.8589043195534
388,874.8536429726322
389,874.843884638832
390,874.8297256046183
391,874.8112997912858
392,874.7887789500539
393,874.7623731007882
394,874.7323310447774
395,874.6989407149953
396,874.6625290739721
397,874.6234612388
398,874.5821385270764
399,874.5389951890701
400,874.4944937072737
401,874.4491186764732
402,874.4033693980399
403,874.357751418281
404,874.3127673177122
405,874.2689071278845
406,874.2266388172691
407,874.1863993339417
408,874.1485866931516
409,874.1135535248915
410,874.0816023505453
411,874.0529826806462
412,874.027889871983
413,874.0064655834528
414,873.9887996409789
415,873.9749331658688
416,873.9648629037031
417,873.9585467408037
418,873.9559103646833
419,873.9568549353618
420,873.961265542819
421,873.9690201591535
422,873.9799987442883
423,873.9940921265229
424,874.0112102599923
425,874.0312894582163
426,874.0542982075608
427,874.080241180811
428,874.1091611245191
429,874.1411384063856
430,874.1762881655884
431,874.2147551715667
432,874.2567066503436
433,874.3023234818025
434,874.3517902751028
435,874.4052848514581
436,874.4629676157622
437,874.5249712416835
438,874.591391078595
439,874.66227671331
440,874.737625137984
441,874.8173759335212
442,874.9014087609548
443,874.9895432833488
444,875.0815414436823
445,875.1771118300209
446,875.2759157098773
447,875.3775742421576
448,875.4816763796714
449,875.5877870417561
450,875.6954552475934
451,875.804222035291
452,875.9136281105483
453,876.0232212289204
454,876.1325633128688
455,876.2412372765723
456,876.3488535156496
457,876.455056019284
458,876.5595280477539
459,876.6619972590091
460,876.7622400816919
461,876.8600850822722
462,876.9554151067875
463,877.0481680743659
464,877.1383364078818
465,877.2259651822857
466,877.3111491589814
467,877.3940289492957
468,877.4747865840909
469,877.5536407350604
470,877.6308417426833
471,877.7066665036946
472,877.7814132086143
473,877.8553959001251
474,877.9289388101557
475,878.0023704103097
476,878.0760170917936
477,878.1501963926211
478,878.2252097210836
479,878.3013346009249
480,878.3788165853315
481,878.4578611110106
482,878.5386256322478
483,878.6212123729993
484,878.7056620062618
485,878.791948568021
486,878.879975941131
487,878.9695762437791
488,879.0605103652209
489,879.1524707160664
490,879.2450860794125
491,879.3379283260203
492,879.4305206858068
493,879.5223472211646
494,879.6128631285717
495,879.7015055096919
496,879.7877042762793
497,879.8708928648878
498,879.9505184598571
499,880.0260514895602
500,880.0969942687361
501,880.1628887684909
502,880.2233235608475
503,880.2779399870045
504,880.3264375486173
505,880.3685784516842
506,880.4041911810757
507,880.4331729766091
508,880.4554911236012
509,880.4711830446686
510,880.480355249404
511,880.4831812289104
512,880.4798983713554
513,880.4708039597845
514,880.4562503263295
515,880.4366392687058
516,880.4124158532369
517,880.3840617149614
518,880.3520879284878
519,880.3170274930001
520,880.2794274821753
521,880.2398409522592
522,880.1988187341215
523,880.1569012262712
524,880.1146102839555
525,880.0724413048046
526,880.0308556363526
527,879.9902734492531
528,879.9510672376232
529,879.9135561456703
530,879.8780013714173
531,879.8446029205408
532,879.81349792852
533,879.7847606400602
534,879.7584039947089
535,879.7343826692028
536,879.7125973505558
537,879.6928999236748
538,879.6750991867315
539,879.6589667271685
540,879.6442427189536
541,879.6306415823774
542,879.6178575978414
543,879.60557062862
544,879.5934520837727
545,879.5811711751562
546,879.5684014300936
547,879.5548273462526
548,879.5401510289017
549,879.5240986114255
550,879.5064262011056
551,879.4869250189057
552,879.4654253487454
553,879.4417989170419
554,879.4159594161597
555,879.387861070639
556,879.3574953834337
557,879.3248864125871
558,879.2900850423425
559,879.2531627118813
560,879.2142050065067
561,879.1733054642435
562,879.1305599117827
563,879.0860615885355
564,879.039897247667
565,878.992144377066
566,878.9428696790462
567,878.8921289445584
568,878.8399683928208
569,878.7864273975542
570,878.731542330074
571,878.6753511037973
572,878.6178979699528
573,878.5592381827041
574,878.4994422603961
575,878.4385996635731
576,878.3768217747723
577,878.3142441019418
578,878.2510276327835
579,878.1873592496742
580,878.1234511145391
581,878.0595389826028
582,877.9958794746004
583,877.9327463784174
584,877.870426073948
585,877.8092122264061
586,877.7493999624373
587,877.6912797656574
588,877.635131278391
589,877.5812171195296
590,877.5297767823525
591,877.4810206791778
592,877.4351244322988
593,877.3922235422941
594,877.352408580295
595,877.3157210648574
596,877.2821502203894
597,877.2516308628277
598,877.2240426770618
599,877.1992111133275
600,877.1769100439454
601,877.1568661975907
602,877.1387652314951
603,877.122259138844
604,877.1069745600099
605,877.0925214966773
606,877.0785019233772
607,877.064517857094
608,877.0501785821898
609,877.0351069007887
610,877.0189444153604
611,877.001355897068
612,876.9820327827472
613,876.9606958504801
614,876.9370971520881
615,876.9110212615864
616,876.8822858133182
617,876.8507412326815
618,876.8162695856021
619,876.7787825680143
620,876.7382187393998
621,876.6945401416798
622,876.6477284690858
623,876.5977809873696
624,876.5447064325589
625,876.4885211518778
626,876.4292457905148
627,876.3669028592801
628,876.301515505958
629,876.2331077419383
630,876.161706250878
631,876.0873437345605
632,876.0100635483716
633,875.9299251976115
634,875.84701018066
635,875.7614277017246
636,875.6733198739929
637,875.5828661025046
638,875.4902863392822
639,875.3958428774481
640,875.2998403522201
641,875.2026236775328
642,875.1045737751302
643,875.006101133967
644,874.9076374329749
645,874.8096256247123
646,874.7125089849566
647,874.6167196807672
648,874.5226674075938
649,874.4307286047524
650,874.341236672003
651,874.2544734672658
652,874.1706621890883
653,874.0899615958484
654,874.0124614286175
655,873.9381788754487
656,873.8670559138242
657,873.7989574004828
658,873.7336698722224
659,873.6709011718225
660,873.6102811599924
661,873.5513638562421
662,873.4936313581959
663,873.4364998423538
664,873.3793278666486
665,873.3214270878267
666,873.2620753923038
667,873.2005323283818
668,873.1360566109188
669,873.0679253359913
670,872.9954543981113
671,872.9180194511937
672,872.8350765986595
673,872.7461818687361
674,872.6510084916765
675,872.5493610896484
676,872.4411861004575
677,872.3265780320136
678,872.2057814405915
679,872.079188802138
680,871.9473346646957
681,871.8108866203359
682,871.6706337239385
683,871.5274729997687
684,871.3823945930495
685,871.2364659757486
686,871.090815493918
687,870.9466155075405
688,870.8050653901367
689,870.667374652457
690,870.5347464147238
691,870.4083614202223
692,870.2893627923911
693,870.1788417640204
694,870.0778246091705
695,869.9872609767634
696,869.908013780331
697,869.8408507616004
698,869.7864378190568
699,869.7453341669251
700,869.71798935376
701,869.7047421050055
702,869.7058208445011
703,869.7213456162272
704,869.7513310238099
705,869.7956897678893
706,869.8542363876379
707,869.9266908873544
708,870.0126820413305
709,870.1117503092696
710,870.2233504440654
711,870.3468540034183
712,870.4815520475321
713,870.6266583048869
714,870.7813130494894
715,870.944587893574
716,871.1154916582577
717,871.2929774198587
718,871.4759507471213
719,871.663279073739
720,871.8538021020603
721,872.0463430937384
722,872.2397208601584
723,872.4327622189437
724,872.6243146349874
725,872.8132587278293
726,872.9985203291465
727,873.1790818323029
728,873.3539926703287
729,873.5223788401404
730,873.6834514137227
731,873.8365139267189
732,873.9809684430707
733,874.1163200255884
734,874.2421793458062
735,874.358263242792
736,874.4643931635482
737,874.5604915658446
738,874.6465765134677
739,874.7227548112056
740,874.7892140977712
741,874.8462143449578
742,874.8940792057087
743,874.9331876215437
744,874.9639660475384
745,874.9868815684206
746,875.0024360671597
747,875.0111615140545
748,875.0136163947114
749,875.0103832462029
750,875.0020671725184
751,874.9892950783104
752,874.9727152432398
753,874.9529967806608
754,874.9308284941409
755,874.9069166941274
756,874.8819816846948
757,874.8567528366724
758,874.8319623408745
759,874.808337821703
760,874.7865940041662
761,874.7674236234279
762,874.7514877748114
763,874.7394059286681
764,874.7317458876828
765,874.7290140358411
766,874.7316462734736
767,874.7400000106569
768,874.7543475087979
769,874.7748707513966
770,874.8016579094833
771,874.8347013551052
772,874.8738970924434
773,874.9190454529117
774,874.9698529483686
775,875.0259352710765
776,875.0868215253923
777,875.1519598319162
778,875.2207244326695
779,875.2924243429617
780,875.3663134761894
781,875.4416020710221
782,875.5174692112643
783,875.5930762229202
784,875.6675807073107
785,875.7401509061854
786,875.8099800269924
787,875.876300112833
788,875.9383950182925
789,875.9956120470421
790,876.0473718414837
791,876.0931762022489
792,876.1326136336572
793,876.1653625194108
794,876.1911919081144
795,876.2099599489294
796,876.2216101093302
797,876.2261654488107
798,876.2237213722822
799,876.2144373812505
800,876.1985283576089
801,876.1762558724574
802,876.1479199243817
803,876.1138513784309
804,876.0744052181725
805,876.0299545814183
806,875.9808854509923
807,875.9275918073134
808,875.870471014519
809,875.8099192287162
810,875.746326705398
811,875.6800730147834
812,875.6115222796826
813,875.5410185917187
814,875.4688817738047
815,875.3954036838172
816,875.3208452671778
817,875.2454345089346
818,875.1693653343958
819,875.0927974478722
820,875.0158571072448
821,874.9386388418801
822,874.8612080661425
823,874.7836044294477
824,874.7058456487301
825,874.6279315529415
826,874.5498481252633
827,874.4715713973172
828,874.3930710873402
829,874.3143138977158
830,874.2352664412047
831,874.1558978507688
832,874.0761821879971
833,873.9961007499783
834,873.9156442953431
835,873.8348151276235
836,873.7536289543738
837,873.6721165111829
838,873.5903250562402
839,873.5083199038689
840,873.4261860998294
841,873.3440301698914
842,873.2619817020552
843,873.1801944506102
844,873.0988466893687
845,873.0181406300612
846,872.9383008051119
847,872.8595713861959
848,872.7822124813163
849,872.7064955172265
850,872.6326978611435
851,872.5610968671878
852,872.4919635520959
853,872.425556111946
854,872.3621134899885
855,872.301849196672
856,872.244945560159
857,872.1915485471086
858,872.1417632563989
859,872.0956501764745
860,872.0532223172693
861,872.0144433638498
862,871.9792270206004
863,871.9474376988597
864,871.9188926529102
865,871.8933656182991
866,871.8705919752887
867,871.8502754399651
868,871.8320962429706
869,871.815720665373
870,871.8008116626843
871,871.7870401435092
872,871.7740963243848
873,871.7617005187719
874,871.7496127713874
875,871.7376408880122
876,871.7256465561385
877,871.7135493453142
878,871.7013284313853
879,871.6890219680138
880,871.6767241712736
881,871.6645803607887
882,871.6527803412081
883,871.6415505590068
884,871.6311454398582
885,871.621838243796
886,871.6139117051675
887,871.6076486793726
888,871.6033230173031
889,871.601190916252
890,871.6014830067787
891,871.6043973952632
892,871.6100937992035
893,871.6186888189632
894,871.6302523086861
895,871.6448047451124
896,871.6623154512685
897,871.682701523441
898,871.7058273339211
899,871.7315045217211
900,871.7594924217783
901,871.7894989219199
902,871.8211817944117
903,871.8541506266463
904,871.8879695398111
905,871.9221609065607
906,871.9562102735881
907,871.9895726865614
908,872.021680584594
909,872.0519533394805
910,872.0798083663851
911,872.1046735879528
912,872.1260009444915
913,872.1432805998907
914,872.1560554532505
915,872.1639355100823
916,872.1666116110382
917,872.1638679883239
