frame_number,force
0,869.4658199988953
1,869.6034399892312
2,869.7400591870489
3,869.8746940416281
4,870.0063948283797
5,870.1342609749137
6,870.2574546160629
7,870.3752119622545
8,870.4868521724906
9,870.5917835425835
10,870.6895069384381
11,870.7796165245875
12,870.8617979898416
13,870.9358246592744
14,871.0015520465122
15,871.0589114764964
16,871.1079033953143
17,871.1485909299748
18,871.1810941948116
19,871.2055857366387
20,871.2222873336399
21,871.2314681366076
22,871.2334439510779
23,871.2285773745649
24,871.2172785002713
25,871.200005889774
26,871.1772674619874
27,871.1496208921217
28,871.1176731186828
29,871.0820786137701
30,871.0435361452891
31,871.002783833229
32,870.9605923809765
33,870.9177564507157
34,870.8750842486917
35,870.8333854917728
36,870.7934580372125
37,870.7560735600736
38,870.721962746463
39,870.691800534777
40,870.6661919854707
41,870.6456593886388
42,870.630631210427
43,870.621433418152
44,870.618283615207
45,870.6212882767146
46,870.6304432157755
47,870.6456372389621
48,870.66665878462
49,870.6932051900226
50,870.7248941122623
51,870.761276551425
52,870.8018509136025
53,870.8460776011932
54,870.8933936912119
55,870.9432273169062
56,870.9950113897755
57,871.0481963037082
58,871.1022612757704
59,871.1567240232266
60,871.2111485704925
61,871.2651511145425
62,871.3184040151104
63,871.3706380795209
64,871.4216433688059
65,871.4712687711186
66,871.5194205877051
67,871.5660603615485
68,871.6112021382977
69,871.6549092825625
70,871.6972909008259
71,871.7384978680753
72,871.7787184405065
73,871.8181734764717
74,871.8571113599461
75,871.8958027652434
76,871.9345353728227
77,871.9736085607361
78,872.0133280267908
79,872.0540002956303
80,872.0959271035549
81,872.1393996715659
82,872.1846928716664
83,872.2320593039489
84,872.2817233462075
85,872.3338752937808
86,872.3886657535277
87,872.4462004770347
88,872.5065358069663
89,872.5696748792906
90,872.6355647023305
91,872.7040942397283
92,872.7750936461362
93,872.848334812274
94,872.9235333463647
95,873.0003520420128
96,873.0784057686606
97,873.1572676095317
98,873.236476015036
99,873.315542752552
100,873.3939614775466
101,873.4712167845498
102,873.5467936207148
103,873.6201869644567
104,873.6909116480344
105,873.7585120991253
106,873.8225716321733
107,873.8827208302197
108,873.9386445758392
109,873.9900873861694
110,874.0368568253307
111,874.0788248870941
112,874.1159273615032
113,874.1481613034439
114,874.1755807867664
115,874.1982911585567
116,874.2164420311193
117,874.2302192906494
118,874.2398364652814
119,874.2455258536521
120,874.2475298370019
121,874.2460927830241
122,874.2414539146667
123,874.2338414557314
124,874.2234682577775
125,874.2105289689167
126,874.1951986645719
127,874.1776327576641
128,874.1579679572892
129,874.1363240578771
130,874.1128064035503
131,874.0875089438053
132,874.0605178293267
133,874.0319154725398
134,874.0017849381311
135,873.9702144746927
136,873.9373019765463
137,873.9031591766861
138,873.8679154060592
139,873.8317207931709
140,873.7947488103596
141,873.7571981079686
142,873.7192936177204
143,873.6812869240681
144,873.6434558773445
145,873.6061033834504
146,873.5695552989895
147,873.5341574034424
148,873.5002714884446
149,873.4682706682081
150,873.4385340617938
151,873.4114410316008
152,873.38736518816
153,873.3666683844265
154,873.3496949155582
155,873.336766115602
156,873.3281755124268
157,873.3241846709599
158,873.3250198171335
159,873.3308692934813
160,873.3418818653944
161,873.3581658788488
162,873.3797892568673
163,873.4067803079421
164,873.4391293036368
165,873.4767907566721
166,873.5196862961785
167,873.5677080178388
168,873.6207222083689
169,873.6785734001953
170,873.7410887673341
171,873.8080828919415
172,873.879362900813
173,873.9547339047391
174,874.0340045979393
175,874.1169928128927
176,874.2035307845258
177,874.2934698580092
178,874.3866843827197
179,874.4830745708963
180,874.5825681479911
181,874.685120668346
182,874.7907144110785
183,874.8993558094572
184,875.0110714103174
185,875.1259024157392
186,875.2438979256482
187,875.3651070774708
188,875.4895703707192
189,875.6173105473019
190,875.74832343211
191,875.8825691285349
192,876.019963962598
193,876.1603735863639
194,876.3036076203215
195,876.449416086102
196,876.5974876964792
197,876.7474499196254
198,876.8988706726642
199,877.051261506597
200,877.2040821628003
201,877.3567463726022
202,877.5086287426786
203,877.6590725476818
204,877.8073982535046
205,877.952912618183
206,878.094918251992
207,878.2327235484172
208,878.3656529120288
209,878.4930572113759
210,878.6143243800227
211,878.7288900624376
212,878.8362481370989
213,878.9359608661163
214,879.0276683649051
215,879.1110970787204
216,879.1860669728917
217,879.2524971615421
218,879.3104097177542
219,879.3599314487308
220,879.4012934866738
221,879.4348286191008
222,879.4609663422939
223,879.480225665885
224,879.4932057310676
225,879.5005743387158
226,879.5030545278449
227,879.5014094075591
228,879.4964255343845
229,879.4888952529809
230,879.4795985738215
231,879.4692852866207
232,879.4586580209027
233,879.44835684757
234,879.4389458472242
235,879.4309019595408
236,879.4246064142155
237,879.4203390705253
238,879.4182759547789
239,879.4184901255671
240,879.4209557595947
241,879.4255551332018
242,879.4320880333521
243,879.4402830578088
244,879.4498102262102
245,879.4602943001341
246,879.4713281976993
247,879.4824859107397
248,879.4933344244222
249,879.5034442996165
250,879.5123987521262
251,879.5198011813166
252,879.525281145026
253,879.5284987917705
254,879.5291477993453
255,879.5269569492079
256,879.521690571776
257,879.5131481923767
258,879.5011637467695
259,879.4856046974011
260,879.4663712924502
261,879.4433961151935
262,879.416643994037
263,879.3861122834688
264,879.3518314804102
265,879.3138661021857
266,879.2723157079324
267,879.2273158884624
268,879.1790389927065
269,879.127694331805
270,879.0735276353706
271,879.0168196216804
272,878.9578836289612
273,878.8970622904997
274,878.8347232349612
275,878.7712538021599
276,878.7070548087944
277,878.6425334741117
278,878.5780957047651
279,878.5141380096233
280,878.4510393344383
281,878.3891530721686
282,878.3287994534687
283,878.270258480848
284,878.2137635347104
285,878.1594957438934
286,878.1075791910689
287,878.0580770254616
288,878.0109885745466
289,877.9662475717312
290,877.9237216400501
291,877.8832131780059
292,877.8444617668288
293,877.8071481568467
294,877.7708998100106
295,877.7352978957798
296,877.6998855716641
297,877.6641773382466
298,877.6276692471946
299,877.5898497433469
300,877.5502109060176
301,877.5082598077045
302,877.4635296532904
303,877.4155903361972
304,877.3640580766505
305,877.3086038945097
306,877.2489607818901
307,877.1849295233355
308,877.1163831346837
309,877.0432698775512
310,876.9656147933144
311,876.8835197083373
312,876.7971616876445
313,876.7067899384393
314,876.6127211682607
315,876.5153333943082
316,876.4150582283505
317,876.3123717688536
318,876.207784402467
319,876.1018299756763
320,875.9950548648666
321,875.8880074230407
322,875.7812281508003
323,875.675240784639
324,875.5705443562697
325,875.4676061808348
326,875.3668557072207
327,875.2686792188778
328,875.1734154772777
329,875.0813524911102
330,874.9927256150647
331,874.9077171200715
332,874.8264572778636
333,874.749026922843
334,874.6754614045444
335,874.605755800376
336,874.5398712005465
337,874.4777418019048
338,874.419282473672
339,874.3643964234892
340,874.3129826239767
341,874.2649427453679
342,874.2201874269736
343,874.1786417578572
344,874.1402498239258
345,874.1049781629764
346,874.072817994086
347,874.0437861483048
348,874.0179246854643
349,873.9952992111788
350,873.9759959201286
351,873.96011741972
352,873.9477774554831
353,873.9390947519254
354,873.9341862516577
355,873.933160045588
356,873.9361082500769
357,873.9431000410218
358,873.9541750235081
359,873.9693370996642
360,873.9885489882673
361,874.011727545493
362,874.0387400410192
363,874.0694015524535
364,874.1034736408243
365,874.1406644578634
366,874.180630419845
367,874.2229795594401
368,874.2672766127786
369,874.3130497945774
370,874.3597990702481
371,874.4070055803683
372,874.4541417393217
373,874.500681442177
374,874.5461097976438
375,874.5899318780251
376,874.6316801271179
377,874.6709202462318
378,874.7072555425409
379,874.7403298619889
380,874.7698293382056
381,874.7954832459773
382,874.817064230104
383,874.8343881039211
384,874.847313329603
385,874.8557402522346
386,874.8596101664925
387,874.8589043198165
388,874.8536429729467
389,874.8438846391944
390,874.8297256050237
391,874.8112997917283
392,874.7887789505271
393,874.7623731012852
394,874.732331045291
395,874.6989407155171
396,874.6625290744937
397,874.623461239312
398,874.5821385275686
399,874.5389951895334
400,874.4944937076996
401,874.4491186768539
402,874.4033693983683
403,874.3577514185508
404,874.3127673179183
405,874.2689071280239
406,874.226638817341
407,874.1863993339477
408,874.1485866930946
409,874.1135535247752
410,874.0816023503747
411,874.0529826804272
412,874.0278898717221
413,874.0064655831566
414,873.9887996406543
415,873.9749331655231
416,873.9648629033431
417,873.9585467404366
418,873.9559103643155
419,873.9568549349993
420,873.9612655424669
421,873.9690201588159
422,873.9799987439685
423,873.9940921262244
424,874.011210259719
425,874.031289457972
426,874.0542982073491
427,874.0802411806351
428,874.1091611243819
429,874.1411384062893
430,874.1762881655346
431,874.2147551715562
432,874.2567066503766
433,874.3023234818784
434,874.3517902752204
435,874.4052848516162
436,874.4629676159591
437,874.524971241917
438,874.591391078863
439,874.6622767136099
440,874.7376251383131
441,874.817375933877
442,874.9014087613346
443,874.9895432837496
444,875.081541444101
445,875.1771118304536
446,875.2759157103189
447,875.3775742426022
448,875.4816763801117
449,875.5877870421843
450,875.6954552480017
451,875.8042220356717
452,875.9136281108939
453,876.0232212292243
454,876.1325633131253
455,876.2412372767769
456,876.3488535157998
457,876.4550560193777
458,876.5595280477902
459,876.6619972589881
460,876.7622400816156
461,876.8600850821449
462,876.9554151066144
463,877.048168074153
464,877.1383364076362
465,877.2259651820153
466,877.3111491586941
467,877.3940289489992
468,877.4747865837929
469,877.5536407347678
470,877.6308417424027
471,877.7066665034321
472,877.7814132083753
473,877.8553958999144
474,877.9289388099767
475,878.0023704101645
476,878.0760170916832
477,878.1501963925438
478,878.2252097210359
479,878.3013346009019
480,878.3788165853285
481,878.4578611110222
482,878.5386256322679
483,878.6212123730214
484,878.7056620062791
485,878.7919485680268
486,878.8799759411198
487,878.9695762437468
488,879.0605103651635
489,879.1524707159793
490,879.245086079291
491,879.3379283258597
492,879.4305206856031
493,879.5223472209144
494,879.6128631282712
495,879.7015055093381
496,879.78770427587
497,879.8708928644219
498,879.9505184593351
499,880.0260514889842
500,880.0969942681096
501,880.162888767819
502,880.2233235601368
503,880.2779399862629
504,880.3264375478528
505,880.3685784509045
506,880.4041911802874
507,880.4331729758189
508,880.4554911228156
509,880.4711830438937
510,880.4803552486463
511,880.4831812281762
512,880.4798983706507
513,880.4708039591147
514,880.4562503256991
515,880.4366392681188
516,880.412415852696
517,880.384061714467
518,880.352087928039
519,880.3170274925958
520,880.279427481814
521,880.2398409519394
522,880.1988187338421
523,880.1569012260312
524,880.1146102837542
525,880.0724413046419
526,880.0308556362284
527,879.9902734491669
528,879.9510672375745
529,879.9135561456582
530,879.8780013714403
531,879.8446029205969
532,879.8134979286068
533,879.7847606401751
534,879.7584039948492
535,879.7343826693661
536,879.7125973507403
537,879.6928999238783
538,879.6750991869519
539,879.6589667274045
540,879.644242719204
541,879.6306415826413
542,879.6178575981176
543,879.6055706289071
544,879.5934520840693
545,879.5811711754598
546,879.5684014304015
547,879.5548273465635
548,879.540151029215
549,879.5240986117423
550,879.506426201427
551,879.4869250192335
552,879.4654253490816
553,879.4417989173887
554,879.4159594165192
555,879.3878610710127
556,879.3574953838233
557,879.3248864129938
558,879.2900850427674
559,879.2531627123249
560,879.2142050069695
561,879.1733054647248
562,879.130559912281
563,879.0860615890485
564,879.0398972481916
565,878.9921443775975
566,878.9428696795791
567,878.8921289450868
568,878.8399683933388
569,878.7864273980564
570,878.7315423305555
571,878.6753511042542
572,878.6178979703822
573,878.5592381831041
574,878.4994422607654
575,878.4385996639111
576,878.3768217750792
577,878.3142441022185
578,878.2510276330321
579,878.1873592498977
580,878.1234511147416
581,878.0595389827902
582,877.9958794747802
583,877.9327463785974
584,877.8704260741359
585,877.8092122266091
586,877.7493999626627
587,877.6912797659122
588,877.6351312786817
589,877.5812171198612
590,877.5297767827288
591,877.4810206796013
592,877.4351244327704
593,877.3922235428136
594,877.3524085808609
595,877.3157210654672
596,877.2821502210392
597,877.2516308635121
598,877.2240426777747
599,877.199211114062
600,877.1769100446936
601,877.1568661983442
602,877.1387652322458
603,877.1222591395841
604,877.1069745607318
605,877.0925214973745
606,877.0785019240446
607,877.0645178577274
608,877.0501785827859
609,877.0351069013451
610,877.0189444158759
611,877.0013558975425
612,876.9820327831806
613,876.9606958508725
614,876.9370971524395
615,876.9110212618963
616,876.8822858135862
617,876.8507412329074
618,876.8162695857864
619,876.7787825681582
620,876.7382187395058
621,876.6945401417513
622,876.6477284691272
623,876.5977809873854
624,876.5447064325539
625,876.488521151857
626,876.4292457904837
627,876.3669028592446
628,876.3015155059242
629,876.2331077419113
630,876.1617062508626
631,876.0873437345599
632,876.010063548388
633,875.9299251976458
634,875.8470101807125
635,875.7614277017952
636,875.6733198740816
637,875.5828661026112
638,875.4902863394062
639,875.3958428775896
640,875.2998403523793
641,875.2026236777099
642,875.1045737753259
643,875.0061011341813
644,874.9076374332077
645,874.8096256249632
646,874.7125089852244
647,874.61671968105
648,874.5226674078889
649,874.4307286050573
650,874.3412366723147
651,874.2544734675811
652,874.1706621894035
653,874.0899615961599
654,874.0124614289214
655,873.9381788757414
656,873.8670559141027
657,873.7989574007446
658,873.7336698724652
659,873.670901172044
660,873.6102811601918
661,873.5513638564199
662,873.4936313583538
663,873.4364998424949
664,873.3793278667766
665,873.3214270879469
666,873.2620753924218
667,873.2005323285035
668,873.13605661105
669,873.067925336137
670,872.9954543982759
671,872.9180194513809
672,872.8350765988721
673,872.7461818689754
674,872.6510084919425
675,872.5493610899397
676,872.4411861007709
677,872.3265780323452
678,872.2057814409363
679,872.0791888024902
680,871.947334665049
681,871.8108866206837
682,871.6706337242744
683,871.5274730000855
684,871.3823945933409
685,871.2364659760092
686,871.0908154941438
687,870.9466155077293
688,870.8050653902877
689,870.6673746525711
690,870.5347464148033
691,870.4083614202706
692,870.2893627924124
693,870.1788417640191
694,870.0778246091514
695,869.987260976731
696,869.908013780289
697,869.8408507615518
698,869.7864378190029
699,869.7453341668664
700,869.7179893536966
701,869.704742104937
702,869.7058208444274
703,869.7213456161483
704,869.7513310237263
705,869.7956897678012
706,869.8542363875456
707,869.9266908872588
708,870.0126820412327
709,870.1117503091705
710,870.2233504439658
711,870.3468540033185
712,870.4815520474319
713,870.6266583047865
714,870.7813130493884
715,870.9445878934706
716,871.1154916581502
717,871.292977419744
718,871.4759507469963
719,871.6632790736005
720,871.8538021019056
721,872.0463430935662
722,872.2397208599685
723,872.4327622187368
724,872.6243146347643
725,872.8132587275923
726,872.9985203288987
727,873.179081832048
728,873.3539926700709
729,873.5223788398838
730,873.6834514134715
731,873.8365139264778
732,873.9809684428437
733,874.116320025379
734,874.2421793456172
735,874.3582632426258
736,874.4643931634064
737,874.5604915657278
738,874.6465765133753
739,874.7227548111357
740,874.7892140977212
741,874.8462143449259
742,874.8940792056937
743,874.9331876215457
744,874.9639660475585
745,874.9868815684603
746,875.0024360672207
747,875.011161514139
748,875.0136163948215
749,875.0103832463407
750,875.0020671726863
751,874.9892950785105
752,874.9727152434739
753,874.9529967809301
754,874.9308284944454
755,874.9069166944658
756,874.8819816850645
757,874.8567528370698
758,874.8319623412949
759,874.808337822141
760,874.7865940046155
761,874.7674236238815
762,874.7514877752621
763,874.7394059291097
764,874.7317458881098
765,874.7290140362492
766,874.7316462738594
767,874.7400000110174
768,874.7543475091308
769,874.7748707517002
770,874.8016579097556
771,874.8347013553447
772,874.873897092649
773,874.9190454530832
774,874.9698529485058
775,875.0259352711802
776,875.0868215254643
777,875.1519598319588
778,875.2207244326859
779,875.2924243429558
780,875.366313476166
781,875.4416020709867
782,875.5174692112214
783,875.5930762228737
784,875.6675807072642
785,875.7401509061419
786,875.8099800269541
787,875.8763001128019
788,875.9383950182709
789,875.9956120470331
790,876.0473718414914
791,876.0931762022775
792,876.1326136337104
793,876.165362519491
794,876.1911919082229
795,876.2099599490657
796,876.2216101094924
797,876.2261654489959
798,876.2237213724874
799,876.2144373814724
800,876.1985283578434
801,876.1762558726995
802,876.147919924625
803,876.1138513786688
804,876.074405218399
805,876.0299545816288
806,875.9808854511829
807,875.9275918074812
808,875.8704710146623
809,875.8099192288339
810,875.7463267054901
811,875.6800730148506
812,875.6115222797257
813,875.5410185917382
814,875.4688817738007
815,875.39540368379
816,875.3208452671282
817,875.2454345088635
818,875.1693653343032
819,875.0927974477582
820,875.0158571071099
821,874.938638841725
822,874.8612080659685
823,874.7836044292565
824,874.7058456485228
825,874.627931552719
826,874.5498481250271
827,874.4715713970687
828,874.3930710870814
829,874.3143138974491
830,874.2352664409326
831,874.1558978504944
832,874.0761821877239
833,873.9961007497099
834,873.9156442950824
835,873.8348151273724
836,873.7536289541334
837,873.6721165109541
838,873.5903250560231
839,873.5083199036636
840,873.4261860996359
841,873.3440301697093
842,873.2619817018838
843,873.1801944504485
844,873.0988466892153
845,873.0181406299141
846,872.9383008049691
847,872.8595713860553
848,872.7822124811769
849,872.7064955170878
850,872.6326978610055
851,872.5610968670507
852,872.4919635519602
853,872.4255561118133
854,872.3621134898608
855,872.3018491965526
856,872.2449455600515
857,872.1915485470174
858,872.1417632563285
859,872.0956501764301
860,872.0532223172563
861,872.0144433638734
862,871.9792270206653
863,871.9474376989692
864,871.9188926530659
865,871.8933656185011
866,871.8705919755362
867,871.8502754402556
868,871.8320962433007
869,871.8157206657395
870,871.8008116630839
871,871.7870401439388
872,871.7740963248417
873,871.7617005192537
874,871.7496127718914
875,871.7376408885356
876,871.725646556678
877,871.7135493458659
878,871.701328431945
879,871.6890219685768
880,871.6767241718353
881,871.6645803613453
882,871.6527803417556
883,871.6415505595413
884,871.6311454403763
885,871.6218382442947
886,871.6139117056448
887,871.6076486798269
888,871.603323017733
889,871.6011909166563
890,871.6014830071559
891,871.6043973956131
892,871.6100937995266
893,871.6186888192603
894,871.6302523089587
895,871.644804745362
896,871.6623154514965
897,871.682701523649
898,871.7058273341102
899,871.7315045218917
900,871.7594924219304
901,871.7894989220533
902,871.8211817945261
903,871.854150626741
904,871.8879695398857
905,871.9221609066155
906,871.9562102736237
907,871.9895726865784
908,872.0216805845938
909,872.0519533394656
910,872.0798083663591
911,872.1046735879198
912,872.1260009444554
913,872.1432805998555
914,872.1560554532199
915,872.163935510059
916,872.1666116110247
