acceleration,velocity,displacement
0.03118373803516477,0.0,0.0
0.0293034670597355,1.5121801273725067e-05,3.780450318431267e-09
0.02742884119335675,2.930487833699813e-05,1.4887120221112066e-08
0.02556547634237938,4.2553457720932165e-05,3.285170423559464e-08
0.02371893035964477,5.4874559396438205e-05,5.720870851493723e-08
0.021894674863870634,6.627796070231706e-05,8.749683853962604e-08
0.020098067992371984,7.677614641637772e-05,1.2326036531929974e-07
0.018334328296998614,8.638424548872037e-05,1.6405046329557427e-07
0.0166085099588453,9.511995505268134e-05,2.094265134309247e-07
0.014925479479485061,0.00010300345241226393,2.5895736529716103e-07
0.013289893988530407,0.0001100572957792678,3.1222255234504397e-07
0.011706181278400634,0.00011630631459600056,3.688134549388611e-07
0.01017852164155066,0.00012177749032598839,4.2833440616935833e-07
0.008710831554012841,0.00012649982862487927,4.904037359070752e-07
0.007306749226314012,0.00013050422381996097,5.546547490182852e-07
0.005969622023951347,0.0001338233166325273,6.207366341314074e-07
0.004702495740056107,0.00013649134607352916,6.883152998079215e-07
0.0035081056872900483,0.00013854399643036569,7.570741354338952e-07
0.002388869572572697,0.00014001824024533136,8.267146946028195e-07
0.0013468821276479582,0.00014095217817038653,8.969572992067489e-07
0.00038391148158206694,0.00014138487657269403,9.67541562892519e-07
-0.0004986027310897301,0.0001413562037603171,1.0382268329757718e-06
-0.0012995495337093336,0.00014090666569411734,1.1087925503393804e-06
-0.0020181450591548623,0.0001400772420459013,1.179038527274385e-06
-0.002653929326863212,0.00013890922344939676,1.2487851436482095e-06
-0.0032067614122300464,0.00013744405076462343,1.3178734622017145e-06
-0.0036768131083309823,0.00013572315713448316,1.3861652641764911e-06
-0.004064561205625317,0.0001337878135559941,1.4535430068491104e-06
-0.00437077852770033,0.00013167897862266268,1.5199097048937747e-06
-0.004596523860255284,0.00012943715302567377,1.5851887378058589e-06
-0.0047431308990353626,0.0001271022393358511,1.64932358589624e-06
-0.004812196323973052,0.000124713407530099,1.7122774976127274e-06
-0.004805567087604074,0.00012230896667720474,1.7740330911645535e-06
-0.004725326991770237,0.00011992624315736115,1.8345918936231949e-06
-0.004573782620688666,0.00011760146575424642,1.8939738208510967e-06
-0.004353448699941959,0.00011536965792408877,1.9522166017706807e-06
-0.004067032956483442,0.00011326453750998242,2.0093751506291986e-06
-0.0037174205629406758,0.0001113184241301264,2.0655208910392257e-06
-0.003307658264015424,0.00010956215442338737,2.120741035677604e-06
-0.0028409383047194215,0.00010802500528120367,2.175137825603752e-06
-0.0023205822989642703,0.00010673462513028274,2.228827733206624e-06
-0.0017500251788195964,0.00010571697326083678,2.2819406328044036e-06
-0.0011327993463134765,0.00010499626712955351,2.334618942902001e-06
-0.00047251911991592373,0.00010459493751299616,2.3870167440626384e-06
0.0002271344624270427,0.00010453359134862394,2.4392988762780435e-06
0.0009624284469209292,0.00010483098207596093,2.4916400196341897e-06
0.0017295923547588088,0.00010550398727638087,2.544223761972275e-06
0.002524832149561358,0.00010656759340246092,2.5972416571419857e-06
0.0033443437763360814,0.00010803488738393527,2.6508922773385846e-06
0.004184326278401436,0.00010991705489761965,2.7053802629089732e-06
0.005040994518274307,0.00011222338509678859,2.7609153729075754e-06
0.005910591543585256,0.00011496128161225348,2.8177115395848358e-06
0.006789400634430621,0.00011813627965675745,2.8759859299020886e-06
0.007673757044146811,0.00012175206907640181,2.9359580170853784e-06
0.008560059415289586,0.0001258105231912609,2.997848665152294e-06
0.009444780827793176,0.00013031173325203158,3.0618792292631174e-06
0.010324479419830104,0.0001352540483139374,3.12827067465461e-06
0.01119580851816138,0.00014063412029843527,3.197242716807703e-06
0.012055526229684125,0.00014644695398539665,3.269012985378661e-06
0.012900504476193163,0.00015268596166186598,3.3437962142904765e-06
0.013727737487585628,0.00015934302215281067,3.4218034602441457e-06
0.014534349794667206,0.00016640854397337388,3.503241351775692e-06
0.015317603777735703,0.0001738715323664746,3.588311370860654e-06
0.016074906830821578,0.00018171966001861393,3.677209168956926e-06
0.01680381819518244,0.00018993934127511494,3.7701239192803583e-06
0.01750205550012959,0.00019851580969894295,3.8672377070238725e-06
0.018167501024376947,0.00020743319883006957,3.968724959156125e-06
0.018798207658957705,0.00021667462600090325,4.074751915363869e-06
0.01939240451948699,0.00022622227904551441,4.1854761416254734e-06
0.019948502125205048,0.00023605750570668743,4.301046087813524e-06
0.02046509703567153,0.00024616090549690656,4.421600690614423e-06
0.020940975815377714,0.0002565124237096689,4.547269022916067e-06
0.021375118186587733,0.00026709144721016024,4.6781699906460245e-06
0.0217666992346811,0.0002778769015654775,4.814412077839934e-06
0.02211509054888302,0.0002888473490113685,4.956093140484145e-06
0.022419860211757684,0.00029998108670152866,5.10330024941237e-06
0.02268077158543154,0.00031125624465082595,5.256109582250458e-06
0.022897780873217748,0.00032265088276548827,5.4145863641045365e-06
0.023071033462964408,0.0003341430863495338,5.578784856383292e-06
0.023200859089677218,0.00034571105948769424,5.748748392842599e-06
0.023287765888837634,0.00035733321573232294,5.9245094616476025e-06
0.023332433439725974,0.00036898826556446386,6.106089831971799e-06
0.023335704911854733,0.00038065530015235906,6.293500723401005e-06
0.023298578423240953,0.00039231387098613297,6.486743016185628e-06
0.023222197699708305,0.0004039440650168703,6.6858075001863795e-06
0.02310784210110394,0.00041552657496707335,6.890675160182366e-06
0.022956916067416355,0.00042704276450920343,7.101317495051435e-06
0.022770938041006265,0.0004384747280363091,7.317696868187813e-06
0.02255152893574446,0.00044980534478049675,7.539766886392014e-06
0.022300400238646635,0.00046101832707409453,7.767472804355661e-06
0.02201934183690165,0.0004720982625929816,8.000751951772431e-06
0.02171020966328017,0.00048303065046802706,8.239534180037682e-06
0.021374913249022055,0.0004938019311961026,8.483742325453714e-06
0.02101540326665194,0.0005043995103250212,8.733292685833995e-06
0.02063365913663034,0.0005148117759258417,8.98809550739671e-06
0.020231676764297865,0.0005250281099010738,9.24805547885344e-06
0.01981145646861039,0.0005350388932093008,9.513072229631034e-06
0.01937499116027611,0.0005448355051165224,9.78304082921249e-06
0.018924254823917075,0.0005544103166125707,1.0057852284644762e-05
0.01846119136041102,0.0005637566781586527,1.0337394033337567e-05
0.017987703853573286,0.0005728689019621488,1.0621550428367768e-05
0.017505644337744503,0.0005817422390099783,1.09102032136108e-05
0.017016804158151162,0.0005903728511339522,1.1203231986146784e-05
0.016522905031557466,0.0005987577784313794,1.1500514643538116e-05
0.016025590921939187,0.0006068949024197535,1.1801927813750899e-05
0.015526420837922253,0.0006147829053597189,1.2107347265695767e-05
0.01502686264435344,0.0006224212262302878,1.2416648298593268e-05
0.014528287973449952,0.0006298100138847387,1.2729706108622025e-05
0.01403196832018642,0.0006369500779581478,1.3046396131582747e-05
0.013539072396859506,0.0006438428381374092,1.3366594360606636e-05
0.013050664791670955,0.0006504902724345418,1.3690177638249623e-05
0.012567705926646565,0.0006568948651141212,1.4017023922636788e-05
0.012091053248272235,0.0006630595549078509,1.434701252764228e-05
0.011621463520629996,0.0006689876841000765,1.4680024337394262e-05
0.011159596039516015,0.000674682948990113,1.501594199566681e-05
0.010706016558603289,0.0006801493521396428,1.535465007094925e-05
0.010261201715919347,0.0006853911567082735,1.5696035198161226e-05
0.009825543761235248,0.0006904128430775621,1.6039986198107685e-05
0.00939935540263396,0.0006952190678685294,1.638639417584421e-05
0.008982874611014078,0.0006998146253719414,1.6735152599154326e-05
0.008576269247321211,0.0007042044113365252,1.7086157358331442e-05
0.00817964141104842,0.0007083933890011176,1.7439306808415852e-05
0.0077930314492634664,0.0007123865572161956,1.779450179497018e-05
0.007416421609393531,0.0007161889204808598,1.8151645664394443e-05
0.007049739359801537,0.0007198054607231585,1.851064425969545e-05
0.006692860436913822,0.0007232411106723374,1.8871405902544323e-05
0.006345611705842776,0.0007265007287080266,1.9233841362389414e-05
0.006007773938848037,0.0007295890751191993,1.959786381334622e-05
0.005679084614182214,0.0007325107897574568,1.9963388779565384e-05
0.005359240816023803,0.0007352703711150083,2.03303340697835e-05
0.005047902282933146,0.0007378721568897475,2.069861970178469e-05
0.00474469461730784,0.0007403203061148077,2.106816781753583e-05
0.00444921263853189,0.0007426187829287676,2.1438902589796723e-05
0.004161023842188138,0.0007447713420489476,2.181075012104115e-05
0.003879671916336116,0.0007467815159885787,2.2183638335550533e-05
0.003604680260038733,0.0007486526040326723,2.2557496865555845e-05
0.003335555447471052,0.0007503876629595498,2.29322569323039e-05
0.003071790582751085,0.0007519894994671054,2.3307851222910564e-05
0.0028128684945267733,0.0007534606642364248,2.3684213763836448e-05
0.0025582647261995248,0.0007548034475416064,2.4061279791780956e-05
0.0023074502916523797,0.0007560198762960694,2.4438985622740374e-05
0.00205989418764332,0.0007571117124158933,2.4817268519918364e-05
0.0018150656743380303,0.0007580804523813886,2.5196066561117685e-05
0.0015724363460682279,0.0007589273278864902,2.5575318506184655e-05
0.0013314820143943973,0.0007596533074766058,2.5954963665025428e-05
0.0010916844209961224,0.0007602590990854534,2.6334941766665943e-05
0.0008525327952276363,0.0007607451533895093,2.6715192829784683e-05
0.0006135252736515677,0.000761111667906729,2.709565703510874e-05
0.0003741702044560613,0.0007613585917762559,2.747627460002949e-05
0.00013398736244204625,0.0007614856311679804,2.785698565576555e-05
-0.00010749090113514748,0.0007614922552833071,2.823773012737837e-05
-0.0003507185471483296,0.0007613777029212362,2.8618447616929507e-05
-0.0005961347382736975,0.0007611409895998808,2.8999077290059787e-05
-0.0008441626818010804,0.0007607809152448621,2.9379557766270973e-05
-0.0010952083769636698,0.0007602960724801709,2.975982701320223e-05
-0.0013496592243981659,0.0007596848555798305,3.013982224521723e-05
-0.001607882460130259,0.0007589454701586983,3.0519479826651865e-05
-0.0018702233832069517,0.0007580759436978641,3.0898735180116005e-05
-0.0021370033670724945,0.0007570741370102942,3.127752270029305e-05
-0.002408517682869998,0.0007559377567478086,3.1655775673732575e-05
-0.002685033204315681,0.0007546643690260122,3.2033426205176034e-05
-0.002966786094596899,0.000753251414201284,3.2410405150982855e-05
-0.0032539795936379736,0.0007516962227792252,3.278664206022798e-05
-0.0035467820315455696,0.0007499960323729294,3.316206512401602e-05
-0.003845325188811965,0.00074814800556784,3.353660113350121e-05
-0.004149703103299716,0.0007461492484948122,3.391017544701687e-05
-0.004459971394509995,0.0007439968298703597,3.428271196660817e-05
-0.004776147149912024,0.0007416878002342543,3.465413312413432e-05
-0.005098209402418138,0.0007392192110961717,3.5024359876966926e-05
-0.0054261002154222275,0.0007365881336917116,3.53933117131639e-05
-0.005759726369716986,0.0007337916770454268,3.576090666584818e-05
-0.0060989616128890424,0.0007308270050497752,3.6127061336371984e-05
-0.006443649399582521,0.0007276913522966574,3.6491690925708594e-05
-0.006793606035799735,0.0007243820384378118,3.685470927339221e-05
-0.0071486241434213236,0.0007208964808930066,3.721602890322492e-05
-0.007508476370779419,0.0007172322057644564,3.7575561074889286e-05
-0.007872919282362344,0.000713386856851171,3.793321584054319e-05
-0.008241697362586717,0.0007093582026899337,3.828890210542847e-05
-0.008614547062406212,0.0007051441415836855,3.864252769149687e-05
-0.00899120080270676,0.0007007427046174072,3.899399940304714e-05
-0.009371390831298865,0.0006961520567089058,3.934322309337872e-05
-0.009754852819178744,0.0006913704957962864,3.9690103731505015e-05
-0.010141329080950676,0.0006863964503212541,4.00345454680344e-05
-0.010530571312191168,0.0006812284752229686,4.0376451699420456e-05
-0.010922342749860028,0.0006758652467074558,4.071572512990306e-05
-0.011316419682035918,0.0006703055560994818,4.1052267830604794e-05
-0.011712592265785153,0.0006645483031125266,4.13859812954078e-05
-0.0121106646557333,0.000658592488882147,4.1716766493406464e-05
-0.012510454489367403,0.0006524372090958718,4.2044523917900965e-05
-0.012911791804965787,0.0006460816475222885,4.23691536320555e-05
-0.013314517478337954,0.0006395250702014625,4.2690555311486444e-05
-0.01371848125539324,0.0006327668205180297,4.3008628284166316e-05
-0.014123539433116856,0.0006258063153459022,4.33232715681323e-05
-0.014529552211113664,0.0006186430424348446,4.3634383907577484e-05
-0.014936380713790422,0.0006112765592036185,4.39418638079871e-05
-0.015343883680965668,0.0006037064931049295,4.424560957106423e-05
-0.015751913842123606,0.0005959325437241571,4.45455193302715e-05
-0.016160314015331134,0.0005879544867597934,4.484149108789249e-05
-0.016568912992585835,0.0005797721800078142,4.5133422754584394e-05
-0.016977521282880072,0.0005713855714389477,4.5421212192446086e-05
-0.01738592678648252,0.000562794709421607,4.570475726266122e-05
-0.017793890476421038,0.0005539997551058811,4.5983955878793094e-05
-0.01820114217148839,0.0005450009969439038,4.625870606680554e-05
-0.018607376499080057,0.0005357988672762616,4.652890603286058e-05
-0.019012249162400865,0.0005263939608608914,4.679445423989487e-05
-0.01941537364305116,0.0005167870551595284,4.7055249493899975e-05
-0.01981631848258297,0.0005069791321281199,4.7311191040721885e-05
-0.02021460528435325,0.0004969714011863859,4.756217867405051e-05
-0.020609707549612992,0.0004867653229778943,4.7808112855091585e-05
-0.02100105041537162,0.00047636263348664815,4.804889484420772e-05
-0.021388011313112874,0.00046576536805452705,4.828442684459302e-05
-0.021769921528474147,0.0004549758848441303,4.851461215781768e-05
-0.022146068614060283,0.0004439968873084967,4.873935535085583e-05
-0.022515699591507343,0.0004328314452571048,4.895856243399723e-05
-0.02287802487600173,0.0004214830141402275,4.917214104884656e-05
-0.023232222863037923,0.0004099554522054676,4.9380000665432985e-05
-0.023577445124274492,0.0003982530352086395,4.958205278728651e-05
-0.023912822159134182,0.00038638046838778735,4.977821116318562e-05
-0.024237469638473827,0.00037434289543838533,4.9968392004142166e-05
-0.024550495060250258,0.0003621459042637043,5.015251420406769e-05
-0.024851004721346482,0.00034979552931830514,5.033049956246319e-05
-0.025138110898514504,0.0003372982504133399,5.05022730073961e-05
-0.025410939126500234,0.0003246609879070862,5.0667762816976206e-05
-0.025668635464467553,0.00031189109425934427,5.082690083751781e-05
-0.025910373655253702,0.00029899634197941397,5.09796226965775e-05
-0.02613536210396191,0.00028598490803961006,5.112586800908226e-05
-0.02634285062440718,0.0002728653548575178,5.126558057480654e-05
-0.026532136911256266,0.0002596466079736019,5.139870856551432e-05
-0.026702572687407083,0.00024633793057393606,5.1525204700151204e-05
-0.02685356946147092,0.00023294889503671656,5.164502640655387e-05
-0.026984603824815323,0.000219489351715145,5.1758135968241835e-05
-0.027095222226492195,0.00020596939520231813,5.18645006549712e-05
-0.027185045181918818,0.00019239932835021537,5.196409283585933e-05
-0.02725377089064338,0.0001787896243320748,5.2056890074029906e-05
-0.0273011782566098,0.00016515088704526152,5.214287520187424e-05
-0.027327129318027176,0.00015149381015160227,5.222203637617346e-05
-0.027331571098655198,0.00013782913504743166,5.229436711247322e-05
-0.027314536884606402,0.00012416760805161625,5.235986629824798e-05
-0.027276146916149536,0.00011051993710142726,5.241853818453624e-05
-0.027216608477458305,9.68967482530253e-05,5.247039235587485e-05
-0.02713621537958687,8.3308542288764e-05,5.25154436785103e-05
-0.027035346859203856,6.976565172906632e-05,5.255371222701476e-05
-0.026914465942216914,5.6278198528711136e-05,5.25852231895792e-05
-0.02677411733544555,4.285605270929552e-05,5.261000675238871e-05
-0.02661492491165281,2.9508792147520928e-05,5.262809796360291e-05
-0.026437588852088405,1.6245663706585623e-05,5.263953657756644e-05
-0.026242882508880166,3.07554586634348e-06,5.264436687995967e-05
-0.026031649041644605,-9.993087021287712e-06,5.264263749467094e-05
-0.025804797865073628,-2.2952198747967272e-05,5.263440117322863e-05
-0.025563300920716753,-3.579422344441487e-05,5.261971456768053e-05
-0.025308188762682354,-4.8512095865264646e-05,5.259863798785311e-05
-0.02504054642675814,-6.109927966262477e-05,5.2571235143971144e-05
-0.0247615090380792,-7.354979352883411e-05,5.253757287567328e-05
-0.024472257106292646,-8.585823506492707e-05,5.249772086852484e-05
-0.024174011459717447,-9.801980220642959e-05,5.2451751359207006e-05
-0.023868027779187433,-0.00011003031201615581,5.239973883065136e-05
-0.02355559070493202,-0.00012188621663718567,5.234175969848802e-05
-0.023238007503032454,-0.0001335846161891768,5.227789199028143e-05
-0.022916601291393793,-0.00014512326838778336,5.220821501913719e-05
-0.022592703839825583,-0.0001565005946705882,5.21328090533726e-05
-0.022267647973939098,-0.00016771568262402938,5.2051754984048945e-05
-0.021942759625286495,-0.00017876828452383577,5.1965133992261976e-05
-0.021619349578106045,-0.0001896588118246839,5.187302721817485e-05
-0.021298704968080777,-0.00020038832546123063,5.1775515433853366e-05
-0.020982080596108867,-0.00021095852185227805,5.167267872202499e-05
-0.020670690135419962,-0.00022137171453516025,5.156459616292813e-05
-0.02036569733132344,-0.0002316308114018461,5.1451345531443877e-05
-0.020068207310374196,-0.00024173928756227053,5.133300300670285e-05
-0.01977925812390693,-0.0002517011539208408,5.1209642896332074e-05
-0.01949981265501069,-0.0002615209216155702,5.1081337377447974e-05
-0.019230751022583772,-0.00027120356253496883,5.094815625641034e-05
-0.018972863609541982,-0.00028075446619300025,5.081016674922835e-05
-0.018726844809491917,-0.00029017939329775873,5.0667433284355654e-05
-0.018493287536405743,-0.00029948442638423313,5.052001732943516e-05
-0.01827267850731663,-0.00030867591789516375,5.036797724336531e-05
-0.018065394306702218,-0.00031776043609866846,5.021136815486685e-05
-0.01787169825856367,-0.00032674470923998495,5.005024186853219e-05
-0.017691738146184643,-0.000335635568341172,4.98846467991369e-05
-0.017525544823238662,-0.0003444398890835278,4.971462793478072e-05
-0.017373031756555427,-0.00035316453322847634,4.954022682920272e-05
-0.017233995533671574,-0.0003618162900510331,4.936148162338284e-05
-0.017108117358721683,-0.0003704018182741314,4.917842709630155e-05
-0.016994965546108746,-0.00037892758900033905,4.8991094744482935e-05
-0.016893999000461745,-0.0003873998301369817,4.8799512889698605e-05
-0.016804571648468155,-0.0003958244727992142,4.860370681396456e-05
-0.016725937773469347,-0.00040420710015469857,4.840369892072608e-05
-0.016657258202030675,-0.0004125528991485736,4.8199508920900265e-05
-0.016597607295316792,-0.00042086661552291046,4.7991154042232395e-05
-0.016545980695605648,-0.0004291525125206411,4.777864926022151e-05
-0.01650130376670789,-0.00043741433363621946,4.75620075486823e-05
-0.016462440649132923,-0.00044565526974017967,4.73412401478382e-05
-0.01642820382847764,-0.00045387793085958233,4.711635684768826e-05
-0.016397364093023784,-0.0004620843228399577,4.688736628426338e-05
-0.016368660742833722,-0.0004702758290489221,4.665427624629116e-05
-0.01634081191543432,-0.00047845319721348913,4.6417093989725555e-05
-0.01631252490992065,-0.0004866165314198279,4.617582655756723e-05
-0.01628250640981301,-0.0004947652892497613,4.593048110239983e-05
-0.016249472511350414,-0.0005028982839800521,4.5681065209092376e-05
-0.01621215845566769,-0.0005110136917218066,4.542758721516691e-05
-0.016169327950464298,-0.0005191090633233396,4.517005652640562e-05
-0.016119781961719194,-0.0005271813408013855,4.490848392537444e-05
