frame_number,force
0,731.9109500072526
1,731.9617403383456
2,732.0123588949353
3,732.0626350482897
4,732.112400448967
5,732.1614901356328
6,732.2097436064169
7,732.2570058399743
8,732.3031282541709
9,732.3479695925247
10,732.3913967320883
11,732.4332854102814
12,732.4735208710882
13,732.5119984325169
14,732.5486239775413
15,732.5833143704946
16,732.6159978005189
17,732.6466140535158
18,732.6751147143681
19,732.7014633020832
20,732.7256353412666
21,732.7476183731284
22,732.7674119080028
23,732.785027319985
24,732.8004876835524
25,732.8138275520979
26,732.8250926788309
27,732.8343396811795
28,732.8416356505506
29,732.8470577103096
30,732.8506925262965
31,732.8526357756066
32,732.8529915796925
33,732.8518719065631
34,732.8493959445767
35,732.8456894482804
36,732.8408840557876
37,732.8351165772116
38,732.8285282540643
39,732.8212639897212
40,732.8134715509318
41,732.8053007401822
42,732.7969025387745
43,732.7884282209815
44,732.7800284407834
45,732.7718522945661
46,732.7640463653838
47,732.756753756487
48,732.7501131235207
49,732.7442577159308
50,732.7393144383817
51,732.735402942427
52,732.7326347579158
53,732.731112473347
54,732.7309289746139
55,732.7321667517695
56,732.7348972830467
57,732.739180504275
58,732.7450643702726
59,732.7525845130544
60,732.7617639998655
61,732.7726131923214
62,732.7851297067012
63,732.7992984748167
64,732.8150919043862
65,732.8324701368574
66,732.8513813990381
67,732.8717624432363
68,732.8935390694575
69,732.9166267226786
70,732.9409311580922
71,732.9663491672516
72,732.9927693580538
73,733.0200729813205
74,733.0481347965805
75,733.0768239698664
76,733.106004996848
77,733.1355386448555
78,733.1652829068976
79,733.1950939600857
80,733.2248271206679
81,733.254337788288
82,733.2834823727374
83,733.3121191970016
84,733.3401093706024
85,733.3673176270739
86,733.3936131196025
87,733.4188701702283
88,733.4429689701632
89,733.4657962300533
90,733.4872457785633
91,733.5072191064402
92,733.5256258526432
93,733.5423842294124
94,733.557421383536
95,733.5706736909929
96,733.5820869819047
97,733.5916166931054
98,733.5992279468634
99,733.6048955560366
100,733.608603957896
101,733.6103470809708
102,733.6101281511069
103,733.6079594437554
104,733.6038619891015
105,733.5978652358048
106,733.5900066788814
107,733.5803314578658
108,733.5688919320386
109,733.5557472393227
110,733.5409628443213
111,733.5246100793133
112,733.506765680222
113,733.4875113179748
114,733.4669331247491
115,733.445121214618
116,733.4221691989429
117,733.398173697909
118,733.3732338502327
119,733.3474508228079
120,733.3209273207581
121,733.2937670963756
122,733.2660744536328
123,733.2379537443545
124,733.2095088531262
125,733.1808426702186
126,733.1520565545572
127,733.1232497914117
128,733.0945190516396
129,733.0659578608927
130,733.0376560879091
131,733.009699460474
132,732.9821691158356
133,732.9551411900713
134,732.9286864489353
135,732.9028699614106
136,732.8777508164783
137,732.853381883203
138,732.8298096137974
139,732.8070738888048
140,732.7852079033612
141,732.7642380940596
142,732.7441841069641
143,732.7250588080863
144,732.7068683377591
145,732.6896122099661
146,732.6732834569995
147,732.6578688189066
148,732.6433489762011
149,732.6296988234562
150,732.6168877805544
151,732.6048801371893
152,732.5936354247802
153,732.5831088089882
154,732.5732514962315
155,732.5640111489083
156,732.5553323058175
157,732.547156806135
158,732.5394242172752
159,732.5320722688672
160,732.5250372960985
161,732.5182546950454
162,732.5116593905816
163,732.5051863151688
164,732.4987708952991
165,732.4923495418428
166,732.4858601406877
167,732.4792425404129
168,732.4724390340048
169,732.4653948316302
170,732.4580585211419
171,732.4503825121028
172,732.442323457573
173,732.4338426461555
174,732.4249063558765
175,732.4154861619857
176,732.405559192323
177,732.395108325685
178,732.384122330135
179,732.3725959394255
180,732.3605298667921
181,732.3479307565274
182,732.334811075086
183,732.3211889450979
184,732.3070879271651
185,732.292536755031
186,732.2775690295352
187,732.2622228764089
188,732.2465405729732
189,732.2305681489399
190,732.2143549663125
191,732.1979532828595
192,732.1814178031954
193,732.1648052213854
194,732.1481737589165
195,732.1315827014308
196,732.1150919369418
197,732.098761497987
198,732.0826511106841
199,732.0668197544188
200,732.0513252361706
201,732.0362237830577
202,732.021569656026
203,732.0074147873783
204,731.9938084452319
205,731.9807969283715
206,731.9684232946395
207,731.9567271249333
208,731.9457443235179
209,731.9355069541853
210,731.9260431110615
211,731.917376822643
212,731.9095279878812
213,731.90251234358
214,731.896341462428
215,731.8910227801716
216,731.8865596489363
217,731.8829514124507
218,731.8801934985578
219,731.8782775248005
220,731.8771914136461
221,731.8769195148826
222,731.8774427337468
223,731.8787386642575
224,731.8807817280181
225,731.8835433196473
226,731.8869919610673
227,731.8910934677004
228,731.8958111298135
229,731.9011059119086
230,731.9069366723475
231,731.9132604040828
232,731.9200324953307
233,731.9272070068705
234,731.9347369613162
235,731.9425746393301
236,731.9506718778406
237,731.9589803656606
238,731.9674519328171
239,731.9760388315161
240,731.9846940087419
241,731.9933713727288
242,732.0020260574879
243,732.010614690349
244,732.0190956665012
245,732.0274294318815
246,732.0355787719933
247,732.0435091003354
248,732.051188737446
249,732.0585891708779
250,732.0656852873119
251,732.0724555697026
252,732.0788822546091
253,732.0849514475528
254,732.0906531967631
255,732.0959815273704
256,732.1009344389485
257,732.1055138697193
258,732.1097256309182
259,732.1135793146248
260,732.1170881778004
261,732.1202690047636
262,732.1231419502325
263,732.1257303651682
264,732.1280606073769
265,732.1301618378708
266,732.1320658028145
267,732.1338066001748
268,732.1354204300058
269,732.1369453272771
270,732.1384208764076
271,732.1398879077055
272,732.1413881775958
273,732.1429640358251
274,732.144658082998
275,732.146512821121
276,732.1485702992413
277,732.1508717563314
278,732.1534572641077
279,732.1563653729429
280,732.1596327640568
281,732.163293911108
282,732.1673807548499
283,732.1719223957308
284,732.1769448103613
285,732.1824705978904
286,732.1885187615845
287,732.1951045296561
288,732.2022392177687
289,732.2099301336325
290,732.2181805218244
291,732.2269895448925
292,732.2363522955964
293,732.2462598350747
294,732.256699252365
295,732.2676537415811
296,732.2791026944592
297,732.2910218082405
298,732.3033832112391
299,732.31615560964
300,732.3293044585884
301,732.342792159114
302,732.3565782808315
303,732.3706198092891
304,732.3848714164766
305,732.3992857531476
306,732.4138137620411
307,732.428405011726
308,732.4430080512658
309,732.4575707853883
310,732.4720408679946
311,732.4863661094229
312,732.5004948911667
313,732.5143765811642
314,732.5279619427376
315,732.5412035302674
316,732.5540560649906
317,732.5664767850654
318,732.5784257648689
319,732.5898661993042
320,732.6007646500476
321,732.6110912522255
322,732.6208198815326
323,732.629928283028
324,732.638398163753
325,732.646215251778
326,732.6533693241201
327,732.6598542055133
328,732.6656677399174
329,732.6708117370218
330,732.6752918960849
331,732.6791177085995
332,732.6823023398005
333,732.6848624878277
334,732.6868182190276
335,732.6881927783169
336,732.6890123741262
337,732.6893059376579
338,732.6891048560807
339,732.6884426792368
340,732.6873547996266
341,732.6858781058733
342,732.6840506105784
343,732.6819110543872
344,732.6794984890046
345,732.6768518426095
346,732.6740094713821
347,732.6710087008356
348,732.6678853611336
349,732.6646733223396
350,732.6614040382275
351,732.6581061096167
352,732.6548048791933
353,732.6515220691666
354,732.6482754710908
355,732.6450786943642
356,732.6419409771416
357,732.6388670612693
358,732.6358571315279
359,732.632906818676
360,732.6300072651989
361,732.6271452520818
362,732.6243033840901
363,732.6214603296851
364,732.6185911099903
365,732.615667429832
366,732.6126580435592
367,732.6095291492576
368,732.6062448065733
369,732.6027673749007
370,732.5990579695074
371,732.5950769332063
372,732.5907843209304
373,732.5861403944272
374,732.5811061241703
375,732.5756436952081
376,732.5697170130125
377,732.5632922045567
378,732.5563381091223
379,732.5488267534535
380,732.5407338073593
381,732.5320390179996
382,732.52272662223
383,732.5127857355444
384,732.5022107140245
385,732.4910014837855
386,732.4791638314206
387,732.4667096484329
388,732.4536571221986
389,732.4400308661387
390,732.4258619831821
391,732.4111880592749
392,732.3960530870054
393,732.3805073224045
394,732.3646070797498
395,732.3484144695
396,732.3319970839466
397,732.3154276346359
398,732.2987835454209
399,732.2821465051619
400,732.2656019844857
401,732.2492387213252
402,732.2331481798545
403,732.2174239869242
404,732.2021613496712
405,732.187456458194
406,732.1734058782738
407,732.1601059404703
408,732.1476521325277
409,732.136138501554
410,732.1256570715343
411,732.1162972811827
412,732.1081454470395
413,732.1012842567079
414,732.0957922968846
415,732.0917436202154
416,732.0892073538992
417,732.0882473514474
418,732.0889218874986
419,732.0912833945896
420,732.0953782406721
421,732.1012465467924
422,732.1089220451671
423,732.1184319783774
424,732.1297970405013
425,732.1430313607364
426,732.158142529471
427,732.1751316659597
428,732.1939935258806
429,732.2147166459665
430,732.2372835216978
431,732.2616708132834
432,732.2878495752282
433,732.315785505319
434,732.3454392092946
435,732.376766477711
436,732.4097185719103
437,732.4442425168521
438,732.4802813999517
439,732.5177746765256
440,732.5566584831785
441,732.5968659598028
442,732.6383275789068
443,732.6809714784465
444,732.7247237921672
445,732.7695089702692
446,732.8152500831557
447,732.8618691018083
448,732.9092871494754
449,732.9574247206862
450,733.0062018655417
451,733.0555383401747
452,733.1053537276697
453,733.1555675364457
454,733.2060992843321
455,733.256868576226
456,733.3077951816759
457,733.3587991166713
458,733.4098007319986
459,733.4607208092275
460,733.5114806648294
461,733.5620022629538
462,733.6122083376572
463,733.6620225255521
464,733.7113695096974
465,733.7601751750245
466,733.80836677463
467,733.8558731048362
468,733.9026246854361
469,733.948553940864
470,733.9935953784077
471,734.0376857603144
472,734.0807642672733
473,734.1227726516221
474,734.1636553798087
475,734.2033597643064
476,734.2418360847282
477,734.2790376969033
478,734.3149211282474
479,734.3494461581838
480,734.3825758832284
481,734.4142767671179
482,734.4445186765533
483,734.4732749026302
484,734.5005221674414
485,734.5262406154103
486,734.5504137898239
487,734.5730285963319
488,734.5940752561202
489,734.6135472513577
490,734.6314412642004
491,734.6477571089013
492,734.662497655694
493,734.6756687457323
494,734.6872790980385
495,734.6973402110922
496,734.7058662625334
497,734.7128740100746
498,734.7183826953282
499,734.7224139504733
500,734.7249917060934
501,734.7261420975376
502,734.7258933672733
503,734.724275762058
504,734.7213214257263
505,734.7170642898909
506,734.7115399654078
507,734.7047856373251
508,734.6968399655723
509,734.6877429929772
510,734.677536061436
511,734.666261736558
512,734.653963741211
513,734.640686898891
514,734.626477087905
515,734.6113812063805
516,734.5954471463873
517,734.5787237737275
518,734.5612609087543
519,734.543109302978
520,734.5243206059424
521,734.5049473166206
522,734.4850427135082
523,734.46466075806
524,734.4438559671646
525,734.4226832517016
526,734.401197719549
527,734.3794544426756
528,734.3575081893728
529,734.3354131243212
530,734.3132224807138
531,734.2909882098669
532,734.2687606149148
533,734.2465879762923
534,734.2245161773159
535,734.2025883379508
536,734.1808444640217
537,734.1593211180071
538,734.1380511165228
539,734.1170632590058
540,734.0963820920712
541,734.0760277141717
542,734.0560156250815
543,734.0363566241068
544,734.0170567598087
545,733.9981173325265
546,733.9795349493913
547,733.9613016302128
548,733.9434049618939
549,733.9258282989244
550,733.9085510076482
551,733.8915487518991
552,733.8747938173052
553,733.8582554716654
554,733.8419003595243
555,733.8256929294987
556,733.8095958919948
557,733.7935707026068
558,733.7775780637958
559,733.7615784357807
560,733.7455325473954
561,733.7294018982942
562,733.7131492444717
563,733.6967390594302
564,733.6801379636253
565,733.6633151150402
566,733.6462425540986
567,733.6288954971563
568,733.6112525747928
569,733.5932960134674
570,733.5750117608629
571,733.5563895561415
572,733.5374229470344
573,733.5181092568909
574,733.4984495062329
575,733.4784482940737
576,733.4581136438002
577,733.4374568171773
578,733.4164920987159
579,733.3952365518929
580,733.3737097489533
581,733.3519334771372
582,733.3299314256617
583,733.3077288592141
584,733.2853522847926
585,733.2628291190788
586,733.2401873632041
587,733.2174552914107
588,733.1946611599487
589,733.1718329419595
590,733.1489980924451
591,733.1261833449709
592,733.1034145394035
593,733.080716478594
594,733.0581128116893
595,733.0356259423434
596,733.0132769606978
597,732.9910855980121
598,732.9690702022214
599,732.9472477319581
600,732.9256337662881
601,732.9042425279833
602,732.8830869193728
603,732.8621785707356
604,732.841527900992
605,732.8211441892927
606,732.8010356549912
607,732.7812095431992
608,732.761672213598
609,732.7424292307418
610,732.7234854543076
611,732.7048451276914
612,732.6865119632199
613,732.6684892221343
614,732.650779787507
615,732.6333862284517
616,732.6163108544359
617,732.5995557591602
618,732.5831228540986
619,732.5670138920424
620,732.5512304808387
621,732.5357740873826
622,732.5206460322182
623,732.5058474757523
624,732.4913793976127
625,732.4772425707572
626,732.4634375316537
627,732.4499645475619
628,732.4368235817129
629,732.4240142568133
630,732.4115358167685
631,732.3993870860388
632,732.3875664257885
633,732.376071686019
634,732.3649001531109
635,732.3540484924728
636,732.3435126863283
637,732.3332879672604
638,732.3233687491745
639,732.3137485586001
640,732.3044199703857
641,732.2953745525537
642,732.2866028251804
643,732.278094237467
644,732.269837165781
645,732.2618189339432
646,732.2540258560834
647,732.2464433021536
648,732.239055786178
649,732.2318470768948
650,732.2248003294843
651,732.2178982360367
652,732.2111231916982
653,732.2044574732897
654,732.1978834276422
655,732.1913836676356
656,732.1849412743268
657,732.1785400031379
658,732.1721644911455
659,732.1658004617058
660,732.1594349222853
661,732.1530563513619
662,732.1466548703771
663,732.1402223968377
664,732.1337527747978
665,732.1272418793579
666,732.1206876928093
667,732.1140903516924
668,732.1074521657778
669,732.1007776110412
670,732.0940732988922
671,732.0873479239432
672,732.0806121933431
673,732.0738787420457
674,732.0671620391641
675,732.0604782898362
676,732.0538453349399
677,732.0472825483961
678,732.0408107293921
679,732.0344519851826
680,732.0282295995692
681,732.022167882571
682,732.0162919976655
683,732.0106277641682
684,732.0052014340631
685,732.0000394447385
686,731.9951681511258
687,731.9906135421865
688,731.9864009472533
689,731.982554737367
690,731.9790980260237
691,731.9760523734612
692,731.9734374990295
693,731.9712710068244
694,731.9695681301062
695,731.968341499992
696,731.9676009434693
697,731.967353314782
698,731.9676023627685
699,731.9683486351471
700,731.9695894193345
701,731.9713187182017
702,731.9735272582598
703,731.9762025273303
704,731.9793288388596
705,731.982887420383
706,731.9868565238652
707,731.9912115557387
708,731.9959252246073
709,732.0009677045781
710,732.0063068117857
711,732.0119081910663
712,732.0177355094206
713,732.0237506531242
714,732.0299139260113
715,732.0361842473554
716,732.0425193485772
717,732.0488759684398
718,732.0552100462882
719,732.061476912411
720,732.0676314740759
721,732.0736283955194
722,732.0794222703685
723,732.0849677856726
724,732.0902198776979
725,732.0951338804658
726,732.0996656683102
727,732.1037717935953
728,732.1074096207359
729,732.1105374581239
730,732.1131146901157
731,732.1151019112363
732,732.1164610640107
733,732.1171555804884
734,732.117150526103
735,732.1164127438748
736,732.1149109977893
737,732.1126161161623
738,732.1095011376259
739,732.1055414630423
740,732.1007150161764
741,732.0950024148227
742,732.088387152569
743,732.0808557897767
744,732.0723981512294
745,732.0630075278356
746,732.0526808807319
747,732.0414190472873
748,732.0292269487678
749,732.0161137983508
750,732.0020933064094
751,731.9871838785988
752,731.9714088014721
753,731.9547964094074
754,731.9373802252398
755,731.9191990660244
756,731.9002971059787
757,731.8807238909656
758,731.8605343014596
759,731.839788462171
760,731.8185515963984
761,731.796893823189
762,731.7748898963208
763,731.75261888529
764,731.7301637990257
765,731.707611153098
766,731.6850504815702
767,731.6625737959297
768,731.6402749956077
769,731.6182492370542
770,731.5965922705333
771,731.575399755037
772,731.5547665616878
773,731.5347860750968
774,731.5155495012701
775,731.4971451903474
776,731.4796579824256
777,731.4631685842385
778,731.4477529832424
779,731.433481903963
780,731.4204203100486
781,731.408626955292
782,731.3981539881718
783,731.38904661603
784,731.3813428352265
785,731.37507323199
786,731.3702608559669
787,731.3669211657001
788,731.3650620431366
789,731.364683872885
790,731.3657796811295
791,731.3683353287649
792,731.3723297535275
793,731.3777352564481
794,731.3845178284695
795,731.392637513311
796,731.402048802536
797,731.4127010581697
798,731.4245389572491
799,731.4375029518075
800,731.4515297373539
801,731.4665527229766
802,731.4825024967345
803,731.4993072809897
804,731.5168933735031
805,731.5351855709957
806,731.5541075722999
807,731.5735823585063
808,731.5935325480364
809,731.6138807253118
810,731.6345497423833
811,731.6554629933174
812,731.6765446612886
813,731.6977199383887
814,731.718915218592
815,731.7400582654144
816,731.7610783573682
817,731.7819064157582
818,731.8024751201356
819,731.8227190165804
820,731.8425746232243
821,731.8619805367225
822,731.8808775430075
823,731.899208735176
824,731.916919640258
825,731.9339583550151
826,731.9502756893164
827,731.9658253143976
828,731.9805639125638
829,731.9944513247793
830,732.0074506932754
831,732.0195285978957
832,732.0306551870586
833,732.0408043059869
834,732.0499536254728
835,732.0580847739734
836,732.0651834747639
837,732.0712396884159
838,732.0762477591335
839,732.0802065618585
840,732.083119645804
841,732.0849953690421
842,732.085847017756
843,732.0856929026539
844,732.0845564239949
845,732.0824660964586
846,732.0794555265502
847,732.0755633383604
848,732.0708330472033
849,732.0653128835739
850,732.0590555714062
851,732.0521180649638
852,732.0445612483015
853,732.0364496006189
854,732.0278508306059
855,732.0188354832192
856,732.0094765225984
857,731.9998488944395
858,731.9900290702321
859,731.980094575209
860,731.9701235024502
861,731.9601940173628
862,731.9503838588327
863,731.9407698448595
864,731.9314273913146
865,731.9224300528044
866,731.9138490942369
867,731.9057531001331
868,731.8982076260454
869,731.8912748934855
870,731.8850135277298
871,731.8794783373896
872,731.8747201351755
873,731.8707855996382
874,731.8677171768662
875,731.8655530190105
876,731.8643269541207
877,731.8640684806775
878,731.8648027808773
879,731.8665507482543
880,731.869329026591
881,731.873150057979
882,731.8780221383298
883,731.8839494783299
884,731.8909322667341
885,731.8989667316735
886,731.9080451954329
887,731.9181561193283
888,731.9292841374646
889,731.9414100807317
890,731.9545109949688
891,731.9685601595104
892,731.9835271138477
893,731.9993777003128
894,732.01607412917
895,732.0335750700524
896,732.0518357717591
897,732.0708082117043
898,732.0904412762084
899,732.1106809724239
900,732.1314706717084
901,732.1527513829689
902,732.1744620533093
903,732.1965398923913
904,732.218920716207
905,732.2415393052405
906,732.2643297711134
907,732.2872259248734
908,732.3101616394911
909,732.3330711990528
910,732.3558896273939
911,732.3785529893513
912,732.4009986587633
913,732.423165549067
914,732.4449943045728
915,732.466427452679
916,732.4874095190712
917,732.5078871093866
