frame_number,force
0,801.3327997567453
1,801.3634255234713
2,801.3931731419718
3,801.4219555504044
4,801.4496844857109
5,801.4762710998244
6,801.5016265624834
7,801.5256626458777
8,801.5482922886619
9,801.5694301389259
10,801.5889930772992
11,801.6069007224811
12,801.6230759221831
13,801.6374452326245
14,801.6499393893614
15,801.6604937716404
16,801.6690488619273
17,801.6755507017447
18,801.6799513443217
19,801.68220930368
20,801.6822899981846
21,801.6801661839969
22,801.6758183709297
23,801.6692352110974
24,801.6604138501763
25,801.649360231888
26,801.6360893477062
27,801.6206254250545
28,801.6030020481611
29,801.583262206471
30,801.5614582663701
31,801.5376518631485
32,801.5119137117068
33,801.4843233363249
34,801.4549687216277
35,801.4239458886956
36,801.391358402308
37,801.3573168176163
38,801.3219380767457
39,801.2853448673166
40,801.2476649551902
41,801.2090305030499
42,801.1695773854229
43,801.1294445099655
44,801.0887731538179
45,801.0477063218375
46,801.0063881307242
47,800.9649632206168
48,800.9235761945021
49,800.8823710855195
50,800.8414908523022
51,800.8010769027155
52,800.7612686469907
53,800.7222030821616
54,800.6840144102495
55,800.646833692315
56,800.6107885393563
57,800.5760028392677
58,800.5425965167719
59,800.5106853205856
60,800.480380629758
61,800.4517892702557
62,800.4250133339291
63,800.4001499943822
64,800.3772913168818
65,800.3565240616219
66,800.3379294813285
67,800.3215831154306
68,800.307554583928
69,800.2959073846517
70,800.2866986978191
71,800.2799792016751
72,800.275792902777
73,800.2741769842581
74,800.2751616750287
75,800.2787701421086
76,800.2850184073216
77,800.2939152887996
78,800.3054623673409
79,800.3196539774322
80,800.3364772224171
81,800.3559120127768
82,800.3779311258969
83,800.4025002852173
84,800.4295782565185
85,800.4591169594902
86,800.491061593797
87,800.5253507804817
88,800.561916721274
89,800.600685379663
90,800.6415766880942
91,800.6845047852303
92,800.729378286145
93,800.7761005870565
94,800.8245702051545
95,800.8746811533829
96,800.9263233495283
97,800.9793830582704
98,801.0337433638576
99,801.089284670059
100,801.1458852231887
101,801.2034216530918
102,801.2617695260233
103,801.3208039027562
104,801.3803998951614
105,801.4404332144884
106,801.5007807043539
107,801.5613208512009
108,801.6219342652067
109,801.6825041255336
110,801.7429165851918
111,801.8030611320862
112,801.862830903683
113,801.9221229532335
114,801.9808384659599
115,802.0388829246261
116,802.0961662260241
117,802.1526027528096
118,802.208111407944
119,802.2626156208482
120,802.3160433346267
121,802.3683269821978
122,802.4194034564372
123,802.469214076612
124,802.5177045511758
125,802.5648249353435
126,802.6105295808719
127,802.6547770755319
128,802.6975301707755
129,802.7387556972685
130,802.7784244686953
131,802.8165111748416
132,802.8529942657941
133,802.8878558299559
134,802.9210814687713
135,802.9526601703095
136,802.9825841826906
137,803.0108488874256
138,803.0374526723704
139,803.0623968042371
140,803.0856853014991
141,803.1073248097392
142,803.1273244822062
143,803.145695868035
144,803.1624528094774
145,803.1776113483384
146,803.1911896412691
147,803.2032078839945
148,803.2136882457198
149,803.2226548162325
150,803.2301335690929
151,803.2361523445376
152,803.2407408551313
153,803.2439307158606
154,803.245755498662
155,803.2462508094695
156,803.2454543833132
157,803.2434061898346
158,803.2401485387401
159,803.2357261731568
160,803.2301863386654
161,803.2235788165626
162,803.2159559116078
163,803.2073723875518
164,803.1978853481099
165,803.1875540655562
166,803.1764397623408
167,803.1646053525561
168,803.1521151501186
169,803.1390345498293
170,803.1254296865784
171,803.1113670775109
172,803.0969132524788
173,803.082134379374
174,803.0670958920313
175,803.0518621284967
176,803.0364959865585
177,803.0210586021399
178,803.0056090551001
179,802.9902041063363
180,802.9748979693956
181,802.9597421184492
182,802.9447851323093
183,802.9300725718034
184,802.9156468861428
185,802.9015473435819
186,802.8878099826836
187,802.8744675822226
188,802.8615496491568
189,802.8490824247511
190,802.837088909276
191,802.82558890641
192,802.8145990895656
193,802.8041330931187
194,802.7942016310925
195,802.7848126440136
196,802.7759714721279
197,802.7676810510525
198,802.7599421248766
199,802.752753471487
200,802.7461121349426
201,802.7400136598352
202,802.7344523228322
203,802.7294213569833
204,802.72491316486
205,802.7209195174262
206,802.7174317369542
207,802.7144408638393
208,802.7119378079908
209,802.7099134854141
210,802.7083589403454
211,802.7072654535733
212,802.7066246383645
213,802.7064285261782
214,802.7066696447176
215,802.707341090668
216,802.7084365985157
217,802.7099506051051
218,802.7118783076871
219,802.714215712023
220,802.716959666969
221,802.7201078825733
222,802.7236589295889
223,802.7276122190237
224,802.7319679605968
225,802.7367270989491
226,802.7418912268786
227,802.7474624764686
228,802.7534433915403
229,802.7598367871158
230,802.7666456024059
231,802.7738727532696
232,802.7815209891705
233,802.7895927591371
234,802.7980900911278
235,802.8070144890602
236,802.8163668513373
237,802.8261474139377
238,802.8363557202416
239,802.846990619084
240,802.8580502921196
241,802.8695323108348
242,802.8814337219051
243,802.893751157475
244,802.9064809652767
245,802.9196193527082
246,802.9331625385267
247,802.9471069050763
248,802.9614491430874
249,802.9761863810319
250,802.9913162924321
251,803.0068371768878
252,803.0227480127039
253,803.0390484803469
254,803.0557389570258
255,803.0728204839968
256,803.0902947093874
257,803.1081638097039
258,803.1264303925961
259,803.1450973827605
260,803.1641678927924
261,803.1836450811106
262,803.2035319989304
263,803.2238314275522
264,803.244545706649
265,803.2656765541187
266,803.2872248780396
267,803.3091905811932
268,803.3315723589069
269,803.3543674917385
270,803.3775716354021
271,803.401178610969
272,803.4251801986578
273,803.4495659384509
274,803.4743229403697
275,803.4994357066141
276,803.5248859668922
277,803.5506525272716
278,803.5767111324836
279,803.6030343426324
280,803.629591427499
281,803.6563482835422
282,803.683267378803
283,803.7103077290835
284,803.737424906089
285,803.7645710759813
286,803.7916950659201
287,803.8187424567352
288,803.84565570118
289,803.8723742685281
290,803.8988348174105
291,803.9249713997602
292,803.9507156994672
293,803.9759973097076
294,804.0007440526557
295,804.0248823439213
296,804.048337601349
297,804.0710346943023
298,804.0928984262555
299,804.1138540412024
300,804.1338277431877
301,804.1527472180862
302,804.1705421476028
303,804.1871447070914
304,804.2024900405219
305,804.2165167071358
306,804.2291670948609
307,804.2403877956287
308,804.2501299379451
309,804.2583494729682
310,804.2650074122339
311,804.2700700176212
312,804.2735089462603
313,804.2753013539427
314,804.2754299602318
315,804.2738830779558
316,804.2706546100503
317,804.2657440176001
318,804.2591562634427
319,804.2509017352903
320,804.2409961513179
321,804.2294604502245
322,804.2163206671781
323,804.2016077965845
324,804.1853576419232
325,804.1676106520896
326,804.1484117430847
327,804.1278101034374
328,804.1058589811914
329,804.0826154498819
330,804.0581401511506
331,804.0324970125614
332,804.0057529400054
333,803.9779774841061
334,803.9492424794655
335,803.9196216553814
336,803.8891902171937
337,803.8580243983357
338,803.8262009842784
339,803.7937968112137
340,803.7608882448328
341,803.7275506476814
342,803.6938578465545
343,803.6598816129746
344,803.6256911691268
345,803.5913527292035
346,803.5569290833254
347,803.5224792288705
348,803.4880580520529
349,803.4537160606948
350,803.4194991677455
351,803.3854485248567
352,803.3516004063274
353,803.317986145166
354,803.2846321237254
355,803.251559820768
356,803.2187859151749
357,803.1863224446222
358,803.1541770159413
359,803.1223530626725
360,803.0908501444807
361,803.0596642827791
362,803.0287883272734
363,802.9982123491012
364,802.9679240573698
365,802.9379092366355
366,802.9081522027619
367,802.8786362738894
368,802.8493442524842
369,802.8202589138638
370,802.7913634959451
371,802.7626421841821
372,802.7340805851098
373,802.7056661819055
374,802.6773887655525
375,802.6492408350891
376,802.6212179600466
377,802.5933190979978
378,802.56554686046
379,802.5379077210707
380,802.5104121606664
381,802.4830747445825
382,802.4559141282657
383,802.4289529882636
384,802.4022178769521
385,802.375739001335
386,802.3495499290599
387,802.323687227798
388,802.2981900463111
389,802.2730996463682
390,802.2484588944761
391,802.2243117218601
392,802.2007025607861
393,802.1776757653867
394,802.1552750256111
395,802.1335427833084
396,802.1125196591381
397,802.0922438979422
398,802.0727508388104
399,802.0540724146373
400,802.0362366846662
401,802.0192674028316
402,802.0031836250492
403,801.9879993595326
404,801.9737232646135
405,801.9603583976492
406,801.9479020165622
407,801.936345433205
408,801.9256739161134
409,801.9158666399826
410,801.9068966801944
411,801.8987310518444
412,801.8913307928194
413,801.8846510895972
414,801.8786414435896
415,801.8732458755129
416,801.8684031647483
417,801.864047119562
418,801.8601068732687
419,801.8565072020419
420,801.8531688621925
421,801.8500089474977
422,801.8469412698731
423,801.8438767688992
424,801.8407239567917
425,801.8373894046323
426,801.8337782732626
427,801.829794889149
428,801.8253433624644
429,801.820328241917
430,801.8146551987782
431,801.808231731115
432,801.8009678779272
433,801.7927769313063
434,801.7835761332525
435,801.7732873433449
436,801.7618376647029
437,801.7491600182259
438,801.7351936579197
439,801.7198846225036
440,801.703186120633
441,801.6850588494235
442,801.6654712484511
443,801.6443996932031
444,801.6218286324647
445,801.5977506735517
446,801.5721666184465
447,801.5450854533426
448,801.5165242940506
449,801.4865082899646
450,801.4550704894816
451,801.4222516696163
452,801.3881001319734
453,801.3526714662585
454,801.316028281429
455,801.2782399039634
456,801.239382043127
457,801.1995364245597
458,801.1587903952937
459,801.1172365042582
460,801.0749720618505
461,801.032098680881
462,800.9887218004645
463,800.9449501949621
464,800.9008954713828
465,800.8566715596473
466,800.8123941999762
467,800.7681804304709
468,800.724148076413
469,800.6804152417835
470,800.6370998033619
471,800.594318908141
472,800.5521884752504
473,800.5108227041372
474,800.4703335914843
475,800.4308304599839
476,800.3924195023416
477,800.3552033439389
478,800.3192806274533
479,800.2847456218725
480,800.2516878562566
481,800.2201917757945
482,800.1903364153513
483,800.1621950846505
484,800.1358350596619
485,800.1113172765702
486,800.0886960276665
487,800.0680186618927
488,800.0493252953977
489,800.0326485385509
490,800.018013245713
491,800.0054362935996
492,799.9949263936378
493,799.9864839429006
494,799.9801009166281
495,799.9757608032577
496,799.9734385809742
497,799.9731007333753
498,799.9747053007005
499,799.9782019623499
500,799.9835321469709
501,799.990629168838
502,799.9994183929406
503,800.0098174345004
504,800.0217364000996
505,800.0350781770406
506,800.0497387760505
507,800.0656077310178
508,800.0825685581818
509,800.1004992753485
510,800.119272979163
511,800.1387584761474
512,800.1588209621099
513,800.1793227445132
514,800.200124002344
515,800.2210835770928
516,800.2420597869201
517,800.2629112551917
518,800.2834977450798
519,800.3036809932709
520,800.3233255369602
521,800.3422995287862
522,800.3604755344832
523,800.3777313082785
524,800.3939505415686
525,800.4090235809688
526,800.4228481122298
527,800.4353298067147
528,800.4463829270176
529,800.4559308877629
530,800.4639067669029
531,800.4702537624257
532,800.4749255896472
533,800.4778868150825
534,800.4791131238128
535,800.478591517851
536,800.476320443381
537,800.4723098455502
538,800.4665811509163
539,800.459167179074
540,800.4501119856195
541,800.4394706383168
542,800.4273089275097
543,800.4137030110103
544,800.3987389933237
545,800.3825124392657
546,800.3651278225434
547,800.3466979103281
548,800.3273430852703
549,800.3071906071668
550,800.2863738178626
551,800.2650312945634
552,800.243305957832
553,800.2213441408611
554,800.1992946264911
555,800.1773076581824
556,800.1555339309563
557,800.1341235684059
558,800.1132250925159
559,800.09298439417
560,800.0735437133733
561,800.0550406387047
562,800.0376071350488
563,800.0213686073861
564,800.0064430068473
565,799.9929399838029
566,799.9809600916267
567,799.9705940441143
568,799.9619220296348
569,799.9550130860044
570,799.9499245411315
571,799.946701524874
572,799.9453765570679
573,799.9459692157487
574,799.9484858886569
575,799.9529196105465
576,799.9592499889344
577,799.9674432217239
578,799.9774522111547
579,799.9892167791706
580,800.0026639890165
581,800.0177085764499
582,800.0342534917959
583,800.0521905519132
584,800.0714011991938
585,800.0917573627819
586,800.1131224152329
587,800.1353522159237
588,800.1582962306027
589,800.1817987147015
590,800.2056999470226
591,800.2298375005165
592,800.2540475376006
593,800.2781661177679
594,800.3020305044604
595,800.3254804567883
596,800.3483594907221
597,800.3705160946648
598,800.3918048857801
599,800.4120876953161
600,800.4312345725257
601,800.4491246974184
602,800.4656471929859
603,800.4807018282352
604,800.4941996044458
605,800.5060632186207
606,800.5162274005091
607,800.5246391229233
608,800.5312576886179
609,800.5360546996353
610,800.5390139164114
611,800.540131014682
612,800.5394132490043
613,800.536879032511
614,800.5325574431045
615,800.526487666621
616,800.5187183878838
617,800.5093071411621
618,800.4983196319947
619,800.485829042081
620,800.4719153280666
621,800.4566645239479
622,800.440168055378
623,800.4225220719215
624,800.4038268006964
625,800.3841859227756
626,800.3637059725095
627,800.3424957591988
628,800.3206658101604
629,800.2983278340755
630,800.275594203316
631,800.2525774534887
632,800.2293897977136
633,800.206142652348
634,800.1829461703704
635,800.1599087789986
636,800.1371367194195
637,800.1147335882112
638,800.0927998816031
639,800.0714325450763
640,800.050724532162
641,800.0307643776828
642,800.0116357918126
643,799.9934172818297
644,799.9761818078803
645,799.9599964774709
646,799.9449222814304
647,799.9310138725763
648,799.9183193873579
649,799.9068803099743
650,799.8967313779402
651,799.8879005280896
652,799.8804088824206
653,799.8742707735775
654,799.8694938099367
655,799.8660789803768
656,799.8640207991244
657,799.8633074916562
658,799.8639212234042
659,799.86583837376
660,799.8690298582709
661,799.8734615016094
662,799.8790944627025
663,799.8858857114154
664,799.8937885534776
665,799.9027531971648
666,799.9127273522878
667,799.9236568501832
668,799.9354862730601
669,799.9481595817042
670,799.961620731444
671,799.9758142673181
672,799.990685890834
673,800.0061829925689
674,800.0222551466087
675,800.0388545637912
676,800.05593650083
677,800.0734596221553
678,800.0913863113162
679,800.1096829291329
680,800.1283200162038
681,800.1472724378195
682,800.1665194700234
683,800.1860448264657
684,800.2058366264229
685,800.225887304864
686,800.2461934662138
687,800.266755684969
688,800.2875782585164
689,800.308668919809
690,800.3300385192808
691,800.3517006861046
692,800.3736714786569
693,800.3959690331466
694,800.4186132181171
695,800.4416253011927
696,800.4650276330311
697,800.4888433519525
698,800.5130961110711
699,800.5378098280712
700,800.5630084564905
701,800.5887157770102
702,800.6149552077492
703,800.6417496330993
704,800.669121250136
705,800.6970914298796
706,800.7256805886702
707,800.7549080642052
708,800.7847919920131
709,800.8153491805072
710,800.846594985148
711,800.8785431842714
712,800.9112058608642
713,800.9445932956974
714,800.9787138771959
715,801.013574032135
716,801.0491781790814
717,801.0855287040445
718,801.122625955396
719,801.1604682530655
720,801.1990519057173
721,801.2383712293168
722,801.2784185610204
723,801.3191842634023
724,801.3606567154912
725,801.40282228868
726,801.4456653068555
727,801.4891679907838
728,801.5333103870328
729,801.5780702821181
730,801.623423103803
731,801.6693418134627
732,801.7157967954178
733,801.7627557504596
734,801.8101836012864
735,801.8580424172425
736,801.9062913646314
737,801.9548866873486
738,802.0037817214597
739,802.0529269471581
740,802.1022700820054
741,802.151756219711
742,802.2013280181301
743,802.2509259383748
744,802.3004885342891
745,802.3499527887216
746,802.3992544905781
747,802.4483286447137
748,802.4971099055509
749,802.545533025246
750,802.5935333083393
751,802.6410470665494
752,802.6880120690549
753,802.7343679851264
754,802.7800568173254
755,802.8250233242297
756,802.869215431131
757,802.9125846254609
758,802.9550863316371
759,802.9966802584628
760,803.0373307113615
761,803.0770068613424
762,803.115682962577
763,803.1533385111345
764,803.1899583390955
765,803.2255326406881
766,803.2600569294235
767,803.2935319268827
768,803.3259633853139
769,803.3573618482285
770,803.3877423555604
771,803.4171241019995
772,803.4455300585687
773,803.4729865683499
774,803.499522927049
775,803.525170957552
776,803.5499645853589
777,803.573939419891
778,803.5971323458625
779,803.6195811288915
780,803.6413240391693
781,803.6623994955648
782,803.6828457302925
783,803.7027004722344
784,803.7220006459441
785,803.7407820833248
786,803.7590792454372
787,803.7769249523162
788,803.7943501191143
789,803.8113834976936
790,803.8280514238224
791,803.8443775707777
792,803.8603827101515
793,803.8760844803938
794,803.8914971637994
795,803.9066314737081
796,803.9214943555477
797,803.9360888072464
798,803.9504137256129
799,803.9644637851035
800,803.9782293542653
801,803.9916964537117
802,804.004846758385
803,804.0176576463693
804,804.0301022962382
805,804.0421498342882
806,804.0537655321646
807,804.06491105504
808,804.0755447609831
809,804.0856220528339
810,804.0950957841338
811,804.103916720105
812,804.1120340532542
813,804.1193959708904
814,804.1259502691512
815,804.1316450058564
816,804.1364291831825
817,804.1402534507325
818,804.1430708197527
819,804.1448373796142
820,804.145513007815
821,804.1450620644188
822,804.1434540612591
823,804.1406642957596
824,804.136674438842
825,804.1314730659622
826,804.1250561199682
827,804.1174272946329
828,804.1085983286612
829,804.0985892018415
830,804.0874282276664
831,804.0751520396781
832,804.0618054715019
833,804.0474413330012
834,804.032120087479
835,804.0159094371902
836,803.9988838260964
837,803.9811238696317
838,803.9627157213723
839,803.9437503861396
840,803.9243229886443
841,803.9045320068778
842,803.8844784800544
843,803.8642652014789
844,803.8439959069091
845,803.8237744688553
846,803.803704106774
847,803.7838866222315
848,803.7644216671932
849,803.745406052926
850,803.7269331064037
851,803.7090920801976
852,803.691967620447
853,803.6756392956635
854,803.6601811872023
855,803.645661540776
856,803.6321424776094
857,803.6196797637099
858,803.6083226361851
859,803.5981136862806
860,803.5890887991865
861,803.5812771501576
862,803.5747012552519
863,803.5693770736751
864,803.5653141579991
865,803.5625158486193
866,803.5609795093512
867,803.5606968013099
868,803.5616539916607
869,803.5638322926311
870,803.5672082248799
871,803.5717539982471
872,803.5774379022718
873,803.5842246989147
874,803.5920760106334
875,803.6009506978905
876,803.6108052209463
877,803.6215939814941
878,803.6332696406266
879,803.6457834108315
880,803.6590853210986
881,803.673124455536
882,803.6878491670843
883,803.7032072691309
884,803.7191462095714
885,803.735613234236
886,803.7525555488244
887,803.7699204893441
888,803.7876557098789
889,803.8057093938103
890,803.8240304914638
891,803.8425689840833
892,803.8612761708491
893,803.8801049722753
894,803.8990102403874
895,803.9179490643745
896,803.936881060407
897,803.9557686361064
898,803.9745772230907
899,803.9932754739145
900,804.0118354216787
901,804.0302326016017
902,804.0484461343881
903,804.0664587714381
904,804.0842569018401
905,804.1018305209029
906,804.1191731599165
907,804.136281776719
908,804.1531566064472
909,804.169800971949
910,804.1862210540324
911,804.2024256226404
912,804.2184257305958
913,804.2342343717762
914,804.2498661060062
915,804.2653366539556
916,804.2806624666814
917,804.2958602757047
