frame_number,force
0,801.1914319637353
1,801.254029373734
2,801.3145043713
3,801.3722707777447
4,801.4268648117966
5,801.4779516092616
6,801.5253251972877
7,801.5689021028692
8,801.6087091445256
9,801.644866275781
10,801.6775655872366
11,801.7070477328905
12,801.7335771313809
13,801.7574172897299
14,801.7788075079047
15,801.7979420939121
16,801.8149530941182
17,801.8298974171441
18,801.8427490844384
19,801.8533971516737
20,801.8616495418416
21,801.8672425706986
22,801.8698554270931
23,801.8691284781194
24,801.8646841128322
25,801.8561488912046
26,801.8431759086892
27,801.8254664082672
28,801.8027897357543
29,801.7750007713026
30,801.7420540251993
31,801.7040136927051
32,801.661059133159
33,801.6134854499659
34,801.5616990634103
35,801.5062083882874
36,801.447609990235
37,801.3865709061498
38,801.3238081169087
39,801.2600663612502
40,801.1960955091823
41,801.1326285928716
42,801.0703614368471
43,801.0099347167472
44,800.9519191369584
45,800.8968041344376
46,800.8449901183272
47,800.7967839204018
48,800.7523969895814
49,800.7119458786509
50,800.6754546399501
51,800.6428588434063
52,800.6140110917605
53,800.5886881123774
54,800.5665996498245
55,800.5473993913139
56,800.5306980337758
57,800.5160783773407
58,800.5031120155378
59,800.4913768159993
60,800.4804740565231
61,800.4700439674767
62,800.459778612609
63,800.449431418725
64,800.4388230707993
65,800.427843822739
66,800.4164525200136
67,800.4046728062253
68,800.3925871040708
69,800.380329022774
70,800.3680748472295
71,800.3560347174555
72,800.3444440390981
73,800.333555599873
74,800.3236327787959
75,800.314944089013
76,800.3077591183396
77,800.302345790189
78,800.2989687861029
79,800.2978889212534
80,800.2993632056078
81,800.3036452401891
82,800.3109855079426
83,800.3216310535765
84,800.3358240378146
85,800.3537987320005
86,800.3757767104743
87,800.4019602804377
88,800.4325244924107
89,800.4676083150168
90,800.5073056769925
91,800.5516570609369
92,800.6006422143308
93,800.6541743961751
94,800.7120964638914
95,800.7741790462629
96,800.8401210163671
97,800.9095524157557
98,800.9820398677442
99,801.0570943977256
100,801.1341814771338
101,801.2127329921517
102,801.2921607084925
103,801.3718707231086
104,801.451278382699
105,801.52982314417
106,801.6069828053855
107,801.6822864784305
108,801.7553256845197
109,801.8257630588339
110,801.8933383287242
111,801.9578713855775
112,802.0192623565343
113,802.0774886068193
114,802.1325986198145
115,802.1847028045759
116,802.2339615484508
117,802.2805712271844
118,802.3247492672036
119,802.3667195877539
120,802.4066997390572
121,802.4448907676594
122,802.4814703726421
123,802.5165894388373
124,802.550371654087
125,802.5829156340751
126,802.6142987996001
127,802.6445822426472
128,802.6738159643528
129,802.7020440409426
130,802.7293093881481
131,802.7556578903083
132,802.7811417990326
133,802.8058224536288
134,802.8297724240208
135,802.8530770836833
136,802.8758354656594
137,802.898160143855
138,802.9201758577891
139,802.9420166736834
140,802.9638216540793
141,802.9857292379043
142,803.0078706884457
143,803.0303629624882
144,803.0533012278854
145,803.0767511218227
146,803.1007408026201
147,803.1252529563398
148,803.1502171412961
149,803.1755030888999
150,803.2009157482044
151,803.2261929266159
152,803.2510063108734
153,803.2749664601159
154,803.2976321105763
155,803.3185238368957
156,803.3371417148035
157,803.3529861257092
158,803.3655803827148
159,803.3744935881962
160,803.3793620697761
161,803.3799078221069
162,803.3759525999344
163,803.3674267299969
164,803.354372332134
165,803.3369412847536
166,803.315388712008
167,803.2900629320552
168,803.2613927551954
169,803.2298728556477
170,803.1960477501348
171,803.1604948006122
172,803.1238066970169
173,803.0865740394376
174,803.0493687837447
175,803.0127293126438
176,802.9771477439895
177,802.9430598855786
178,802.9108380875876
179,802.8807871568423
180,802.8531434130011
181,802.8280767838824
182,802.8056955347176
183,802.7860528986622
184,802.7691546606213
185,802.7549667412344
186,802.743422038736
187,802.7344261057738
188,802.7278615104127
189,802.7235908861293
190,802.7214587825913
191,802.7212925899943
192,802.7229030293145
193,802.726084865699
194,802.7306184784151
195,802.7362726747338
196,802.7428087762316
197,802.7499857066506
198,802.7575656685333
199,802.7653199777203
200,802.7730346447926
201,802.7805153165203
202,802.7875912316406
203,802.7941179011896
204,802.7999782885657
205,802.805082379688
206,802.8093652334338
207,802.8127838174198
208,802.8153130355507
209,802.8169413121394
210,802.8176660236015
211,802.817489075246
212,802.816413003722
213,802.8144380650414
214,802.8115607840651
215,802.8077743694464
216,802.8030712085905
217,802.7974473470047
218,802.7909085211244
219,802.7834770921598
220,802.7751991716111
221,802.7661512902343
222,802.7564460695302
223,802.7462364396841
224,802.7357179659073
225,802.7251288241229
226,802.714747020813
227,802.7048846936372
228,802.695879726289
229,802.6880852667865
230,802.6818578756544
231,802.6775449600931
232,802.67547202706
233,802.6759302348288
234,802.6791647367346
235,802.6853643255731
236,802.6946528588874
237,802.7070828691204
238,802.7226316668277
239,802.7412001845269
240,802.7626147898818
241,802.7866322248059
242,802.8129476147566
243,802.8412052007903
244,802.8710112248173
245,802.9019483045628
246,802.9335905887247
247,802.9655188865825
248,802.9973348434416
249,803.0286732304569
250,803.0592116378036
251,803.0886772210903
252,803.1168504668182
253,803.1435661325008
254,803.1687116582139
255,803.1922235184729
256,803.2140821351448
257,803.2343059892064
258,803.2529454375896
259,803.2700765879995
260,803.2857955285479
261,803.3002132103577
262,803.3134512118587
263,803.3256384564396
264,803.3369088195465
265,803.3473994996249
266,803.357249982081
267,803.3666013763917
268,803.375595916286
269,803.384376502785
270,803.3930862800537
271,803.4018683107804
272,803.410865446041
273,803.4202204605394
274,803.4300764560874
275,803.4405774381652
276,803.4518688392967
277,803.4640976195178
278,803.4774115280945
279,803.4919572919249
280,803.5078778708049
281,803.5253092494726
282,803.5443772892139
283,803.5651949187793
284,803.5878595717024
285,803.6124504787341
286,803.639025339585
287,803.6676160404514
288,803.6982233426689
289,803.7308107285514
290,803.7652978229543
291,803.8015540170421
292,803.8393930889408
293,803.8785697250294
294,803.9187788553081
295,803.9596585498754
296,804.000796844276
297,804.0417423510249
298,804.0820180325752
299,804.121137175173
300,804.1586204338164
301,804.1940128015926
302,804.2268994923832
303,804.2569199762249
304,804.2837796666748
305,804.3072589330233
306,804.3272191711848
307,804.3436056543352
308,804.35644688463
309,804.365850276443
310,804.3719942572632
311,804.3751172159684
312,804.3755040166149
313,804.373470889564
314,804.369349415491
315,804.3634701984637
316,804.3561468304972
317,804.3476608504683
318,804.3382484445558
319,804.3280895380674
320,804.3172997401749
321,804.3059254247295
322,804.2939421082507
323,804.2812561829327
324,804.26770992552
325,804.2530895487068
326,804.2371359390984
327,804.2195576243355
328,804.2000453956502
329,804.1782879153285
330,804.1539876414279
331,804.1268765084965
332,804.0967308973236
333,804.0633853938821
334,804.0267447142437
335,803.9867931038958
336,803.9436005692556
337,803.8973254097876
338,803.8482126638651
339,803.796588315791
340,803.7428494803363
341,803.6874512541623
342,803.6308913791119
343,803.5736941073867
344,803.5163945617176
345,803.4595245230244
346,803.403600168303
347,803.3491119520096
348,803.2965165544765
349,803.2462305763062
350,803.1986254980283
351,803.1540234514948
352,803.1126935768968
353,803.074849039023
354,803.0406449691186
355,803.0101775908174
356,802.983484623464
357,802.9605468512641
358,802.9412905882822
359,802.925590671178
360,802.9132735680723
361,802.9041202258705
362,802.897868414392
363,802.894214547373
364,802.8928152033006
365,802.8932887396635
366,802.8952174281609
367,802.8981504657845
368,802.9016081266567
369,802.9050872463866
370,802.908068134799
371,802.910022882972
372,802.9104249275157
373,802.9087597004908
374,802.9045361778236
375,802.897299067928
376,802.8866412580842
377,802.8722160321173
378,802.8537485384188
379,802.8310460000312
380,802.8040061713366
381,802.7726235482331
382,802.7369928527515
383,802.6973093550758
384,802.6538656884502
385,802.6070450124444
386,802.5573107116356
387,802.505193184419
388,802.4512745216946
389,802.3961719186682
390,802.3405205559079
391,802.284956535982
392,802.2301003507412
393,802.1765413198275
394,802.1248234779212
395,802.0754334246285
396,802.0287905921664
397,801.9852402200651
398,801.9450491193563
399,801.9084041068194
400,801.875412818511
401,801.8461065443418
402,801.8204448254004
403,801.7983217537229
404,801.7795740360023
405,801.7639908079412
406,801.7513249367709
407,801.7413052547519
408,801.7336489850534
409,801.7280736592468
410,801.7243080539002
411,801.7221019203035
412,801.7212343694156
413,801.7215207072851
414,801.7228174537822
415,801.7250252903075
416,801.7280896651894
417,801.7319986774031
418,801.736777794864
419,801.7424811167609
420,801.7491792700774
421,801.7569445102266
422,801.7658340623117
423,801.7758731280094
424,801.7870391890073
425,801.7992491526035
426,801.8123505399392
427,801.8261174613848
428,801.8402516675186
429,801.8543885561542
430,801.8681076999447
431,801.8809472359228
432,801.8924212491731
433,801.9020390243176
434,801.9093247877406
435,801.9138364680057
436,801.9151821607137
437,801.9130333401233
438,801.9071342509641
439,801.8973072333057
440,801.8834540081925
441,801.8655532573435
442,801.8436551523004
443,801.8178737036501
444,801.7883778117769
445,801.7553817454002
446,801.7191355744538
447,801.6799159344702
448,801.6380174287026
449,801.5937449539377
450,801.5474072110012
451,801.499311587958
452,801.4497604676318
453,801.3990488190121
454,801.3474627291071
455,801.2952784065338
456,801.2427612261537
457,801.1901645922967
458,801.1377286627971
459,801.0856791169883
460,801.0342260745339
461,800.9835630778758
462,800.9338659445111
463,800.8852913885164
464,800.8379755293939
465,800.7920325772061
466,800.7475539829971
467,800.7046081784338
468,800.6632408119685
469,800.623475254437
470,800.5853131479262
471,800.5487348537913
472,800.5136997498304
473,800.4801464331938
474,800.4479930190213
475,800.417137840203
476,800.3874609085423
477,800.358826516504
478,800.3310873476983
479,800.3040903348563
480,800.2776841821018
481,800.2517280311969
482,800.2261003816582
483,800.2007072042622
484,800.1754882439942
485,800.1504207780998
486,800.1255205427502
487,800.1008400549081
488,800.0764649501871
489,800.0525091118426
490,800.0291093310452
491,800.006420154181
492,799.9846094952381
493,799.9638554584752
494,799.944344567401
495,799.9262712716973
496,799.9098383115856
497,799.8952573072503
498,799.8827487765387
499,799.8725406904869
500,799.8648647868127
501,799.859950270023
502,799.8580151357132
503,799.8592559100016
504,799.8638368656867
505,799.871879739379
506,799.8834547910001
507,799.898573882793
508,799.917186115344
509,799.9391763332627
510,799.9643664783778
511,799.9925194698563
512,800.0233451810549
513,800.0565081391219
514,800.0916366248363
515,800.1283327587238
516,800.1661829717025
517,800.2047681657416
518,800.243672989179
519,800.2824938961958
520,800.3208458642379
521,800.3583677386056
522,800.3947262083005
523,800.4296184633503
524,800.4627736634205
525,800.4939534290785
526,800.5229516168123
527,800.5495936497601
528,800.573735633535
529,800.5952633712503
530,800.6140912407463
531,800.6301607926954
532,800.6434389212161
533,800.6539155335801
534,800.6616007332228
535,800.6665215611838
536,800.6687183363848
537,800.6682406935352
538,800.6651435710008
539,800.6594835509363
540,800.6513159808717
541,800.6406931865575
542,800.6276638836379
543,800.6122736944898
544,800.5945665433279
545,800.5745866579938
546,800.5523809108429
547,800.5280012290798
548,800.5015067960232
549,800.472965811117
550,800.4424567199668
551,800.4100690057471
552,800.3759037376965
553,800.3400740613364
554,800.3027057363876
555,800.2639377348611
556,800.2239228315282
557,800.1828280883045
558,800.1408351947948
559,800.0981407729209
560,800.0549569057033
561,800.0115122094675
562,799.9680536856208
563,799.9248493894844
564,799.8821917166993
565,799.8404009011916
566,799.7998281700754
567,799.7608579340069
568,799.7239084545304
569,799.6894306287119
570,799.6579047650059
571,799.6298353633522
572,799.6057439272278
573,799.5861597896874
574,799.5716088994338
575,799.562600543434
576,799.5596121279617
577,799.5630723975213
578,799.5733437703425
579,799.5907047142629
580,799.6153331919519
581,799.647292133084
582,799.6865177065428
583,799.7328109776057
584,799.7858333765001
585,799.8451062411494
586,799.910014520478
587,799.9798145456746
588,800.053645584218
589,800.1305447084598
590,800.2094644273053
591,800.2892926038305
592,800.3688743347477
593,800.4470355319431
594,800.5226078248654
595,800.5944541630734
596,800.661494307493
597,800.7227293799992
598,800.7772647870784
599,800.8243310230315
600,800.8633019541655
601,800.8937101532991
602,800.9152587741094
603,800.9278294099101
604,800.9314853894197
605,800.9264700393455
606,800.9131996505456
607,800.8922512392984
608,800.8643455838593
609,800.8303262705584
610,800.7911355519703
611,800.7477877996963
612,800.7013413297096
613,800.6528693950231
614,800.6034311363579
615,800.5540432548936
616,800.5056531701863
617,800.4591144757602
618,800.4151655455211
619,800.374412093721
620,800.3373143580233
621,800.3041794219688
622,800.2751589974696
623,800.25025268183
624,800.229316345859
625,800.212075045203
626,800.1981397176687
627,800.1870268797924
628,800.1781805386539
629,800.1709955754842
630,800.1648418882186
631,800.1590885657943
632,800.153127309093
633,800.1463942347077
634,800.1383891619755
635,800.1286915752659
636,800.1169726845716
637,800.1030032956359
638,800.0866574616781
639,800.0679121118228
640,800.0468430708632
641,800.0236181058011
642,799.9984878147113
643,799.9717752519496
644,799.9438651011468
645,799.9151929614419
646,799.8862350116497
647,799.8574980916511
648,799.8295101036072
649,799.8028105325743
650,799.7779408270161
651,799.7554344100627
652,799.7358061904032
653,799.7195415411798
654,799.7070847866702
655,799.6988273036044
656,799.6950954456302
657,799.6961386485001
658,799.7021182530455
659,799.7130977610783
660,799.7290353638348
661,799.7497795948484
662,799.7750688340652
663,799.804535135845
664,799.8377124845063
665,799.8740491333476
666,799.912923259491
667,799.9536609092698
668,799.995555175901
669,800.0378856615124
670,800.0799374163585
671,800.121018697265
672,800.16047708974
673,800.1977137950256
674,800.2321961098431
675,800.2634682241303
676,800.2911604159403
677,800.3149966146526
678,800.3348002267782
679,800.3504980895053
680,800.3621223949394
681,800.3698104071119
682,800.3738018120823
683,800.3744335924231
684,800.3721323439053
685,800.3674039487028
686,800.3608205628335
687,800.3530050394369
688,800.3446131883229
689,800.3363145791294
690,800.3287728202687
691,800.3226263264353
692,800.3184705287453
693,800.3168423291813
694,800.318207408522
695,800.3229507978938
696,800.331370926048
697,800.3436771508228
698,800.3599905645348
699,800.3803476449411
700,800.4047061735149
701,800.4329528391821
702,800.46491208062
703,800.5003558608132
704,800.5390140487636
705,800.5805848665444
706,800.6247446031289
707,800.6711557376734
708,800.7194728529439
709,800.769346131618
710,800.820422636369
711,800.8723459206591
712,800.9247548101939
713,800.9772823865032
714,801.0295562102807
715,801.0812006226301
716,801.1318416218744
717,801.1811144187944
718,801.2286733808502
719,801.2742037323187
720,801.3174341450622
721,801.3581492723844
722,801.3962013219943
723,801.4315198897185
724,801.4641194593089
725,801.494104176996
726,801.521669665905
727,801.5471017114451
728,801.5707716487972
729,801.5931283146897
730,801.6146865893594
731,801.6360128434613
732,801.6577079000145
733,801.6803883213698
734,801.7046669122932
735,801.7311332921961
736,801.7603352360604
737,801.7927612780317
738,801.8288249365231
739,801.8688509361276
740,801.9130639298787
741,801.9615803385359
742,802.0144038992908
743,802.0714253070554
744,802.1324259892489
745,802.1970856880093
746,802.2649932112436
747,802.3356594816938
748,802.4085318919286
749,802.4830090200733
750,802.5584549837217
751,802.6342130184729
752,802.709618162492
753,802.7840091873363
754,802.8567401389039
755,802.927191969538
756,802.9947846559401
757,803.0589899151228
758,803.1193442823684
759,803.1754620346475
760,803.2270472646078
761,803.2739042958799
762,803.3159455675318
763,803.353196153362
764,803.3857942712248
765,803.4139874419338
766,803.4381242454873
767,803.4586418095819
768,803.4760493261815
769,803.4909081377114
770,803.5038092381793
771,803.5153492904468
772,803.5261064321883
773,803.5366172228463
774,803.5473560065076
775,803.5587176899604
776,803.5710045523067
777,803.5844173838747
778,803.5990511090906
779,803.6148950312373
780,803.6318377743626
781,803.6496767673626
782,803.6681317654873
783,803.6868615883267
784,803.7054830906156
785,803.7235913820209
786,803.7407803887796
787,803.756662921481
788,803.7708894882746
789,803.7831652242675
790,803.7932644750464
791,803.8010426818873
792,803.806445224237
793,803.809512845349
794,803.8103833279273
795,803.8092892693725
796,803.8065521151385
797,803.8025729309888
798,803.797820591289
799,803.7928180705484
800,803.7881273936862
801,803.784333627374
802,803.7820281819561
803,803.781791681171
804,803.7841766842672
805,803.7896905249512
806,803.7987784826443
807,803.811807536447
808,803.8290511158103
809,803.8506754636567
810,803.876728355978
811,803.9071309305886
812,803.9416732480463
813,803.9800139385828
814,804.0216839509993
815,804.0660941378679
816,804.112546267407
817,804.1602470390726
818,804.20832474465
819,804.2558482977518
820,804.3018483837772
821,804.3453404217851
822,804.3853489136976
823,804.420932639995
824,804.4512100443377
825,804.4753840071082
826,804.4927650648041
827,804.502792052287
828,804.5050491759041
829,804.499278688236
830,804.4853886117829
831,804.4634552724332
832,804.4337206763996
833,804.3965850003422
834,804.352594705085
835,804.3024270019577
836,804.2468715231599
837,804.1868100477084
838,804.1231950355401
839,804.0570275589232
840,803.9893350637448
841,803.9211493310013
842,803.8534850428753
843,803.7873194036509
844,803.7235732719087
845,803.6630942343154
846,803.6066419861792
847,803.5548762758239
848,803.5083475706622
849,803.4674905580298
850,803.4326205733792
851,803.4039329926528
852,803.3815055034131
853,803.365302986283
854,803.3551845491852
855,803.3509121419995
856,803.3521601741945
857,803.358525653692
858,803.3695385491148
859,803.3846723021746
860,803.4033545792789
861,803.4249783706466
862,803.4489134408758
863,803.4745180098477
864,803.5011505004012
865,803.5281812624947
866,803.5550043143619
867,803.5810492147996
868,803.6057931183468
869,803.6287728932518
870,803.649596983209
871,803.6679565208872
872,803.6836350867644
873,803.6965164909319
874,803.7065900367141
875,803.7139528349212
876,803.7188088191231
877,803.7214641812201
878,803.722319048735
879,803.7218553735763
880,803.720621175393
881,803.7192114527815
882,803.7182462264357
883,803.71834633981
884,803.7201078903635
885,803.7240765164854
886,803.7307230991737
887,803.7404225637388
888,803.7534372844934
889,803.7699061784095
890,803.7898400908149
891,803.813123610582
892,803.8395229667884
893,803.868699146501
894,803.9002249295295
895,803.9336042794271
896,803.9682925378786
897,804.0037161513147
898,804.0392911144606
899,804.074439759235
900,804.1086058088353
901,804.1412677575441
902,804.1719506962028
903,804.2002367060854
904,804.225773891652
905,804.2482840530752
906,804.2675689426444
907,804.2835149828778
908,804.2960962407182
909,804.3053754134946
910,804.3115026359322
911,804.3147120057591
912,804.315315758608
913,804.313696006228
914,804.310293972879
915,804.3055967785109
916,804.3001219912179
917,804.2944003378948
918,804.2889571061103
