frame_number,force
0,801.1914319641492
1,801.2540293741232
2,801.314504371663
3,801.3722707780805
4,801.4268648121048
5,801.4779516095425
6,801.5253251975424
7,801.5689021031
8,801.6087091447357
9,801.6448662759743
10,801.6775655874171
11,801.7070477330628
12,801.7335771315501
13,801.7574172899011
14,801.7788075080831
15,801.7979420941017
16,801.8149530943225
17,801.8298974173659
18,801.84274908468
19,801.8533971519366
20,801.8616495421272
21,801.8672425710075
22,801.8698554274262
23,801.8691284784771
24,801.8646841132148
25,801.8561488916125
26,801.8431759091227
27,801.8254664087265
28,801.8027897362394
29,801.7750007718126
30,801.7420540257324
31,801.7040136932584
32,801.6610591337289
33,801.6134854505478
34,801.5616990639991
35,801.5062083888774
36,801.4476099908211
37,801.3865709067268
38,801.3238081174713
39,801.2600663617939
40,801.1960955097029
41,801.1326285933654
42,801.0703614373116
43,801.0099347171808
44,800.9519191373612
45,800.896804134811
46,800.8449901186735
47,800.7967839207242
48,800.7523969898836
49,800.7119458789373
50,800.6754546402258
51,800.6428588436765
52,800.6140110920306
53,800.5886881126528
54,800.5665996501106
55,800.5473993916156
56,800.5306980340978
57,800.5160783776868
58,800.503112015911
59,800.4913768164017
60,800.4804740569564
61,800.4700439679418
62,800.4597786131061
63,800.449431419253
64,800.4388230713561
65,800.4278438233215
66,800.4164525206188
67,800.4046728068502
68,800.392587104712
69,800.3803290234282
70,800.368074847893
71,800.3560347181254
72,800.3444440397731
73,800.3335556005527
74,800.3236327794806
75,800.3149440897029
76,800.3077591190339
77,800.3023457908861
78,800.2989687868004
79,800.2978889219484
80,800.2993632062976
81,800.3036452408711
82,800.3109855086141
83,800.3216310542349
84,800.3358240384579
85,800.3537987326276
86,800.3757767110853
87,800.4019602810337
88,800.4325244929927
89,800.4676083155863
90,800.5073056775516
91,800.5516570614884
92,800.6006422148776
93,800.6541743967194
94,800.7120964644351
95,800.774179046807
96,800.8401210169114
97,800.9095524162993
98,800.9820398682851
99,801.057094398261
100,801.134181477661
101,801.2127329926683
102,801.2921607089963
103,801.3718707235979
104,801.4512783831727
105,801.5298231446277
106,801.6069828058276
107,801.6822864788581
108,801.7553256849349
109,801.8257630592386
110,801.8933383291206
111,801.9578713859679
112,802.0192623569217
113,802.0774886072068
114,802.132598620205
115,802.1847028049725
116,802.2339615488564
117,802.2805712276016
118,802.324749267634
119,802.3667195881982
120,802.406699739515
121,802.4448907681293
122,802.4814703731223
123,802.516589439326
124,802.5503716545822
125,802.582915634575
126,802.6142988001036
127,802.644582243154
128,802.6738159648634
129,802.7020440414576
130,802.7293093886681
131,802.7556578908335
132,802.7811417995632
133,802.805822454165
134,802.8297724245624
135,802.8530770842303
136,802.8758354662123
137,802.8981601444142
138,802.9201758583552
139,802.9420166742559
140,802.9638216546573
141,802.9857292384862
142,803.0078706890303
143,803.0303629630747
144,803.0533012284736
145,803.0767511224134
146,803.1007408032148
147,803.1252529569397
148,803.1502171419021
149,803.1755030895126
150,803.2009157488251
151,803.2261929272464
152,803.2510063115155
153,803.2749664607713
154,803.2976321112462
155,803.3185238375805
156,803.3371417155028
157,803.3529861264218
158,803.3655803834386
159,803.3744935889282
160,803.3793620705127
161,803.3799078228441
162,803.3759526006679
163,803.3674267307233
164,803.3543723328505
165,803.3369412854576
166,803.3153887126972
167,803.290062932728
168,803.26139275585
169,803.2298728562821
170,803.1960477507471
171,803.160494801201
172,803.1238066975809
173,803.0865740399761
174,803.0493687842578
175,803.012729313132
176,802.9771477444536
177,802.9430598860195
178,802.9108380880052
179,802.8807871572361
180,802.8531434133716
181,802.8280767842311
182,802.805695535047
183,802.7860528989753
184,802.7691546609215
185,802.754966741524
186,802.7434220390162
187,802.7344261060449
188,802.7278615106746
189,802.7235908863818
190,802.7214587828347
191,802.721292590229
192,802.722903029541
193,802.7260848659181
194,802.7306184786278
195,802.7362726749413
196,802.7428087764351
197,802.7499857068515
198,802.7575656687337
199,802.7653199779234
200,802.7730346450023
201,802.7805153167415
202,802.7875912318781
203,802.7941179014488
204,802.799978288852
205,802.8050823800054
206,802.8093652337847
207,802.8127838178043
208,802.8153130359674
209,802.8169413125853
210,802.8176660240729
211,802.8174890757385
212,802.8164130042306
213,802.8144380655616
214,802.8115607845928
215,802.8077743699779
216,802.8030712091227
217,802.7974473475342
218,802.7909085216478
219,802.7834770926733
220,802.77519917211
221,802.7661512907138
222,802.7564460699858
223,802.746236440113
224,802.7357179663072
225,802.7251288244931
226,802.7147470211542
227,802.7048846939509
228,802.6958797265783
229,802.6880852670545
230,802.6818578759053
231,802.677544960332
232,802.6754720272924
233,802.6759302350594
234,802.679164736967
235,802.6853643258095
236,802.6946528591292
237,802.7070828693684
238,802.722631667082
239,802.7412001847872
240,802.7626147901476
241,802.7866322250762
242,802.8129476150305
243,802.8412052010673
244,802.8710112250972
245,802.9019483048456
246,802.9335905890101
247,802.9655188868701
248,802.9973348437301
249,803.0286732307444
250,803.0592116380886
251,803.0886772213709
252,803.1168504670919
253,803.1435661327656
254,803.168711658468
255,803.1922235187164
256,803.2140821353793
257,803.2343059894346
258,803.252945437815
259,803.2700765882261
260,803.2857955287799
261,803.3002132105997
262,803.3134512121153
263,803.3256384567151
264,803.3369088198447
265,803.347399499949
266,803.3572499824338
267,803.3666013767746
268,803.3755959166998
269,803.3843765032298
270,803.3930862805289
271,803.4018683112853
272,803.4108654465747
273,803.4202204611007
274,803.4300764566751
275,803.440577438778
276,803.4518688399332
277,803.4640976201763
278,803.4774115287728
279,803.4919572926202
280,803.507877871514
281,803.5253092501919
282,803.5443772899403
283,803.5651949195094
284,803.5878595724332
285,803.6124504794626
286,803.6390253403089
287,803.6676160411687
288,803.6982233433775
289,803.7308107292498
290,803.7652978236409
291,803.8015540177157
292,803.8393930896003
293,803.8785697256739
294,803.9187788559371
295,803.9596585504894
296,804.0007968448764
297,804.0417423516135
298,804.0820180331544
299,804.1211371757454
300,804.1586204343845
301,804.1940128021591
302,804.2268994929503
303,804.2569199767946
304,804.2837796672475
305,804.3072589335977
306,804.3272191717584
307,804.3436056549048
308,804.3564468851916
309,804.3658502769919
310,804.3719942577937
311,804.3751172164747
312,804.3755040170905
313,804.3734708900031
314,804.3693494158882
315,804.3634701988148
316,804.3561468307986
317,804.3476608507176
318,804.338248444752
319,804.3280895382117
320,804.3172997402697
321,804.3059254247794
322,804.2939421082613
323,804.2812561829099
324,804.2677099254703
325,804.2530895486366
326,804.2371359390138
327,804.2195576242422
328,804.2000453955533
329,804.1782879152325
330,804.1539876413369
331,804.1268765084138
332,804.0967308972515
333,804.0633853938216
334,804.0267447141954
335,803.9867931038602
336,803.9436005692334
337,803.8973254097793
338,803.8482126638715
339,803.7965883158133
340,803.7428494803755
341,803.6874512542199
342,803.63089137919
343,803.5736941074874
344,803.5163945618433
345,803.4595245231781
346,803.403600168488
347,803.3491119522295
348,803.296516554735
349,803.2462305766064
350,803.1986254983724
351,803.154023451884
352,803.1126935773317
353,803.0748490395033
354,803.0406449696436
355,803.0101775913857
356,802.9834846240735
357,802.960546851912
358,802.9412905889652
359,802.9255906718929
360,802.9132735688152
361,802.9041202266369
362,802.8978684151778
363,802.8942145481745
364,802.8928152041145
365,802.8932887404866
366,802.8952174289901
367,802.898150466617
368,802.9016081274902
369,802.9050872472192
370,802.9080681356284
371,802.9100228837954
372,802.910424928329
373,802.908759701289
374,802.9045361786015
375,802.8972990686806
376,802.886641258807
377,802.8722160328063
378,802.8537485390705
379,802.831046000643
380,802.8040061719073
381,802.7726235487623
382,802.7369928532398
383,802.6973093555247
384,802.653865688862
385,802.6070450128226
386,802.5573107119849
387,802.5051931847447
388,802.451274522003
389,802.3961719189657
390,802.340520556201
391,802.2849565362769
392,802.2301003510436
393,802.1765413201417
394,802.1248234782506
395,802.0754334249751
396,802.0287905925314
397,801.9852402204491
398,801.9450491197598
399,801.9084041072429
400,801.8754128189547
401,801.8461065448055
402,801.8204448258841
403,801.7983217542265
404,801.7795740365254
405,801.7639908084832
406,801.7513249373303
407,801.7413052553263
408,801.7336489856395
409,801.7280736598416
410,801.7243080545011
411,801.7221019209087
412,801.7212343700234
413,801.7215207078937
414,801.7228174543891
415,801.7250252909092
416,801.7280896657819
417,801.7319986779826
418,801.736777795427
419,801.7424811173042
420,801.7491792705981
421,801.7569445107218
422,801.7658340627788
423,801.7758731284466
424,801.7870391894136
425,801.7992491529784
426,801.812350540283
427,801.8261174616983
428,801.8402516678034
429,801.8543885564117
430,801.8681077001766
431,801.8809472361303
432,801.8924212493575
433,801.9020390244802
434,801.9093247878825
435,801.9138364681274
436,801.9151821608165
437,801.9130333402086
438,801.9071342510335
439,801.8973072333619
440,801.8834540082381
441,801.8655532573815
442,801.8436551523337
443,801.8178737036808
444,801.7883778118064
445,801.7553817454291
446,801.7191355744818
447,801.6799159344966
448,801.6380174287268
449,801.593744953959
450,801.5474072110188
451,801.4993115879709
452,801.4497604676384
453,801.3990488190111
454,801.347462729097
455,801.295278406513
456,801.2427612261212
457,801.1901645922525
458,801.1377286627423
459,801.0856791169253
460,801.0342260744665
461,800.9835630778089
462,800.9338659444504
463,800.8852913884681
464,800.8379755293648
465,800.7920325772033
466,800.7475539830277
467,800.7046081785046
468,800.6632408120856
469,800.623475254605
470,800.585313148148
471,800.5487348540684
472,800.5136997501629
473,800.4801464335811
474,800.4479930194616
475,800.4171378406934
476,800.387460909078
477,800.3588265170789
478,800.3310873483052
479,800.304090335487
480,800.2776841827475
481,800.2517280318488
482,800.2261003823069
483,800.200707204898
484,800.1754882446071
485,800.1504207786801
486,800.1255205432886
487,800.100840055396
488,800.0764649506173
489,800.0525091122095
490,800.0291093313447
491,800.0064201544108
492,799.9846094953975
493,799.963855458565
494,799.9443445674235
495,799.9262712716563
496,799.9098383114863
497,799.8952573070986
498,799.8827487763415
499,799.8725406902512
500,799.8648647865461
501,799.859950269733
502,799.8580151354065
503,799.8592559096847
504,799.8638368653659
505,799.8718797390603
506,799.8834547906895
507,799.8985738824967
508,799.9171861150691
509,799.9391763330163
510,799.9643664781671
511,799.9925194696879
512,800.0233451809339
513,800.0565081390533
514,800.091636624824
515,800.1283327587705
516,800.1661829718099
517,800.2047681659105
518,800.2436729894096
519,800.2824938964874
520,800.3208458645895
521,800.3583677390155
522,800.3947262087667
523,800.4296184638702
524,800.4627736639919
525,800.4939534296997
526,800.5229516174819
527,800.5495936504761
528,800.5737356342945
529,800.5952633720501
530,800.6140912415837
531,800.630160793568
532,800.6434389221225
533,800.6539155345185
534,800.6616007341914
535,800.6665215621798
536,800.6687183374042
537,800.6682406945731
538,800.6651435720516
539,800.6594835519937
540,800.6513159819285
541,800.6406931876057
542,800.6276638846686
543,800.6122736954939
544,800.5945665442969
545,800.5745866589195
546,800.5523809117186
547,800.5280012299004
548,800.5015067967852
549,800.4729658118184
550,800.442456720607
551,800.4100690063256
552,800.3759037382132
553,800.3400740617923
554,800.302705736784
555,800.2639377352001
556,800.2239228318125
557,800.1828280885376
558,800.1408351949806
559,800.0981407730641
560,800.0549569058094
561,800.0115122095425
562,799.968053685671
563,799.9248493895155
564,799.882191716717
565,799.8404009012014
566,799.7998281700825
567,799.7608579340156
568,799.7239084545441
569,799.689430628733
570,799.6579047650359
571,799.6298353633922
572,799.6057439272784
573,799.5861597897488
574,799.5716088995065
575,799.5626005435181
576,799.5596121280573
577,799.5630723976279
578,799.5733437704592
579,799.590704714389
580,799.6153331920866
581,799.6472921332272
582,799.6865177066957
583,799.7328109777703
584,799.7858333766793
585,799.845106241346
586,799.9100145206944
587,799.9798145459137
588,800.0536455844828
589,800.1305447087532
590,800.2094644276306
591,800.2892926041909
592,800.3688743351458
593,800.447035532381
594,800.5226078253447
595,800.5944541635944
596,800.6614943080542
597,800.7227293805981
598,800.7772647877114
599,800.8243310236948
600,800.8633019548547
601,800.8937101540097
602,800.9152587748365
603,800.9278294106496
604,800.9314853901672
605,800.926470040097
606,800.9131996512975
607,800.8922512400478
608,800.8643455846038
609,800.830326271296
610,800.791135552699
611,800.7477878004136
612,800.7013413304121
613,800.652869395707
614,800.603431137019
615,800.5540432555275
616,800.5056531707894
617,800.45911447633
618,800.4151655460557
619,800.3744120942192
620,800.3373143584839
621,800.304179422391
622,800.2751589978526
623,800.2502526821729
624,800.2293163461608
625,800.2120750454634
626,800.1981397178882
627,800.1870268799724
628,800.1781805387974
629,800.1709955755946
630,800.1648418883002
631,800.1590885658517
632,800.1531273091307
633,800.1463942347299
634,800.1383891619859
635,800.1286915752677
636,800.1169726845673
637,800.1030032956266
638,800.0866574616648
639,800.0679121118059
640,800.0468430708431
641,800.0236181057778
642,799.9984878146856
643,799.9717752519235
644,799.9438651011234
645,799.9151929614247
646,799.8862350116425
647,799.8574980916579
648,799.8295101036316
649,799.80281053262
650,799.7779408270858
651,799.7554344101586
652,799.7358061905277
653,799.719541541335
654,799.7070847868583
655,799.6988273038277
656,799.6950954458903
657,799.6961386487986
658,799.7021182533837
659,799.7130977614568
660,799.7290353642542
661,799.7497795953088
662,799.7750688345664
663,799.8045351363854
664,799.8377124850841
665,799.8740491339605
666,799.9129232601355
667,799.9536609099408
668,799.995555176592
669,800.0378856622164
670,800.0799374170683
671,800.1210186979743
672,800.1604770904427
673,800.1977137957164
674,800.2321961105174
675,800.2634682247838
676,800.2911604165689
677,800.3149966152528
678,800.3348002273467
679,800.3504980900397
680,800.362122395438
681,800.3698104075738
682,800.3738018125075
683,800.3744335928118
684,800.3721323442577
685,800.3674039490195
686,800.3608205631156
687,800.3530050396861
688,800.344613188542
689,800.3363145793223
690,800.3287728204403
691,800.322626326591
692,800.3184705288905
693,800.316842329322
694,800.318207408664
695,800.3229507980429
696,800.3313709262095
697,800.3436771510014
698,800.3599905647347
699,800.3803476451664
700,800.4047061737679
701,800.4329528394646
702,800.464912080934
703,800.5003558611603
704,800.5390140491447
705,800.5805848669589
706,800.6247446035748
707,800.6711557381476
708,800.7194728534425
709,800.7693461321369
710,800.8204226369039
711,800.8723459212059
712,800.9247548107486
713,800.9772823870618
714,801.0295562108392
715,801.0812006231847
716,801.1318416224211
717,801.1811144193293
718,801.2286733813694
719,801.2742037328184
720,801.3174341455384
721,801.3581492728341
722,801.3962013224146
723,801.4315198901063
724,801.4641194596611
725,801.4941041773097
726,801.521669666178
727,801.5471017116756
728,801.5707716489844
729,801.593128314834
730,801.6146865894623
731,801.6360128435256
732,801.6577079000439
733,801.6803883213685
734,801.7046669122658
735,801.731133292148
736,801.7603352359972
737,801.7927612779582
738,801.8288249364435
739,801.868850936046
740,801.9130639297995
741,801.9615803384627
742,802.0144038992267
743,802.0714253070034
744,802.1324259892107
745,802.1970856879857
746,802.2649932112347
747,802.3356594816998
748,802.4085318919495
749,802.4830090201085
750,802.5584549837715
751,802.6342130185376
752,802.7096181625725
753,802.7840091874336
754,802.8567401390195
755,802.9271919696732
756,802.9947846560958
757,803.0589899152994
758,803.1193442825664
759,803.1754620348668
760,803.2270472648472
761,803.2739042961372
762,803.315945567804
763,803.353196153645
764,803.3857942715135
765,803.4139874422234
766,803.4381242457729
767,803.4586418098589
768,803.476049326446
769,803.4909081379595
770,803.5038092384077
771,803.5153492906527
772,803.5261064323699
773,803.5366172230031
774,803.5473560066397
775,803.5587176900685
776,803.5710045523924
777,803.58441738394
778,803.5990511091386
779,803.6148950312718
780,803.6318377743872
781,803.6496767673812
782,803.6681317655032
783,803.6868615883433
784,803.7054830906359
785,803.7235913820476
786,803.7407803888153
787,803.7566629215278
788,803.7708894883348
789,803.7831652243437
790,803.7932644751414
791,803.8010426820034
792,803.8064452243757
793,803.8095128455114
794,803.810383328114
795,803.8092892695837
796,803.806552115374
797,803.8025729312479
798,803.797820591571
799,803.7928180708528
800,803.7881273940122
801,803.7843336277208
802,803.7820281823226
803,803.7817916815561
804,803.7841766846698
805,803.7896905253697
806,803.7987784830763
807,803.8118075368898
808,803.8290511162611
809,803.8506754641122
810,803.8767283564356
811,803.9071309310459
812,803.9416732485015
813,803.980013939034
814,804.021683951445
815,804.0660941383065
816,804.1125462678368
817,804.1602470394917
818,804.2083247450558
819,804.2558482981414
820,804.3018483841471
821,804.3453404221323
822,804.3853489140205
823,804.4209326402938
824,804.4512100446142
825,804.4753840073657
826,804.4927650650467
827,804.5027920525196
828,804.5050491761324
829,804.4992786884656
830,804.4853886120184
831,804.4634552726789
832,804.4337206766594
833,804.3965850006194
834,804.3525947053822
835,804.302427002276
836,804.2468715234995
837,804.186810048068
838,804.1231950359166
839,804.0570275593126
840,803.9893350641423
841,803.9211493314019
842,803.8534850432738
843,803.7873194040427
844,803.7235732722897
845,803.6630942346824
846,803.6066419865285
847,803.5548762761522
848,803.508347570967
849,803.4674905583095
850,803.4326205736328
851,803.4039329928803
852,803.3815055036154
853,803.3653029864616
854,803.3551845493421
855,803.3509121421366
856,803.3521601743132
857,803.3585256537938
858,803.3695385492016
859,803.3846723022489
860,803.4033545793435
861,803.4249783707052
862,803.4489134409329
863,803.4745180099087
864,803.501150500472
865,803.5281812625813
866,803.5550043144698
867,803.5810492149337
868,803.6057931185113
869,803.62877289345
870,803.6495969834435
871,803.6679565211601
872,803.6836350870776
873,803.6965164912874
874,803.7065900371139
875,803.7139528353665
876,803.7188088196147
877,803.721464181758
878,803.722319049318
879,803.721855374201
880,803.7206211760549
881,803.7192114534749
882,803.7182462271546
883,803.7183463405479
884,803.7201078911145
885,803.7240765172442
886,803.7307230999347
887,803.7404225644966
888,803.7534372852429
889,803.769906179146
890,803.7898400915344
891,803.8131236112813
892,803.8395229674653
893,803.8686991471545
894,803.9002249301597
895,803.9336042800344
896,803.9682925384644
897,804.0037161518812
898,804.03929111501
899,804.0744397597689
900,804.1086058093551
901,804.1412677580515
902,804.1719506966984
903,804.2002367065702
904,804.2257738921271
905,804.2482840535416
906,804.2675689431032
907,804.2835149833306
908,804.2960962411663
909,804.3053754139389
910,804.3115026363728
911,804.3147120061954
912,804.3153157590384
913,804.3136960066511
914,804.3102939732928
915,804.3055967789136
916,804.3001219916074
917,804.2944003382694
