frame_number,force
0,801.2219412400211
1,801.2616550816306
2,801.3013130507553
3,801.3407050349421
4,801.3796182166753
5,801.4178393263071
6,801.4551566367472
7,801.4913616846006
8,801.5262507207726
9,801.5596259097775
10,801.5912963094988
11,801.6210786720455
12,801.648798111819
13,801.6742886882562
14,801.697393947995
15,801.7179674666218
16,801.7358734257289
17,801.7509872565009
18,801.7631963756095
19,801.7724010316612
20,801.7785152674701
21,801.7814679829887
22,801.781204060567
23,801.7776854970233
24,801.7708924810883
25,801.7608243588321
26,801.7475004381009
27,801.7309605903843
28,801.711265613235
29,801.6884973198107
30,801.6627583264135
31,801.6341715156303
32,801.6028791623714
33,801.5690417216555
34,801.5328362885966
35,801.494454752709
36,801.4541016820904
37,801.4119919886016
38,801.3683484400302
39,801.3233990949484
40,801.2773747372457
41,801.2305063811451
42,801.1830229092994
43,801.1351489001036
44,801.0871026923268
45,801.0390947200094
46,800.9913261297028
47,800.943987674047
48,800.8972588665762
49,800.8513073808585
50,800.8062886777731
51,800.762345846739
52,800.7196096518419
53,800.6781987810797
54,800.6382203015348
55,800.5997703215589
56,800.5629348533533
57,800.5277908571173
58,800.4944074317418
59,800.4628470982262
60,800.4331671058007
61,800.4054206851171
62,800.3796581816184
63,800.3559280206595
64,800.3342774760586
65,800.3147532307369
66,800.2974017311715
67,800.2822693473815
68,800.2694023576128
69,800.2588467817889
70,800.2506480900347
71,800.2448508125066
72,800.2414980756993
73,800.2406310894072
74,800.2422886063953
75,800.2465063718575
76,800.2533165731547
77,800.2627472952433
78,800.2748219847716
79,800.2895589246542
80,800.3069707191098
81,800.3270637858915
82,800.3498378485913
83,800.3752854189561
84,800.4033912585928
85,800.4341318128521
86,800.4674746180903
87,800.5033776959713
88,800.5417889616929
89,800.5826456830351
90,800.625874031177
91,800.6713887615768
92,800.7190930556342
93,800.7688785448495
94,800.8206255317148
95,800.8742034166726
96,800.9294713368934
97,800.9862790176356
98,801.0444678296662
99,801.1038720387671
100,801.164320226983
101,801.2256368584323
102,801.287643955247
103,801.3501628445684
104,801.4130159364705
105,801.4760284922357
106,801.5390303402576
107,801.6018574945566
108,801.6643536318962
109,801.7263713896014
110,801.7877734556902
111,801.8484334317853
112,801.9082364549388
113,801.967079567412
114,802.0248718260796
115,802.08153414991
116,802.1369989186576
117,802.1912093565819
118,802.2441187550633
119,802.2956896008652
120,802.3458926779612
121,802.3947061988812
122,802.4421150007629
123,802.48810981987
124,802.5326866414133
125,802.5758461089445
126,802.6175929698057
127,802.6579355332289
128,802.6968851249641
129,802.7344555306657
130,802.7706624256422
131,802.8055227928896
132,802.8390543375144
133,802.8712749120633
134,802.9022019688615
135,802.9318520501439
136,802.9602403184034
137,802.9873801229529
138,803.0132825962712
139,803.0379562758537
140,803.0614067543144
141,803.0836363698064
142,803.1046439545796
143,803.1244246575887
144,803.1429698493658
145,803.1602671092292
146,803.176300291328
147,803.1910496695158
148,803.2044921700056
149,803.2166017104765
150,803.2273496710119
151,803.2367055241787
152,803.2446376473831
153,803.2511143307889
154,803.2561049816543
155,803.2595815117814
156,803.2615198758891
157,803.2619017052007
158,803.2607159593836
159,803.2579605082251
160,803.2536435527495
161,803.2477848009132
162,803.24041632521
163,803.2315830516053
164,803.2213428609986
165,803.2097663173495
166,803.1969360599755
167,803.1829459075972
168,803.167899721633
169,803.1519100706373
170,803.1350967307903
171,803.1175850537261
172,803.0995042364565
173,803.0809855372802
174,803.0621604895113
175,803.0431591655197
176,803.0241085368784
177,803.0051309668959
178,802.986342864088
179,802.9678535204891
180,802.9497641538923
181,802.9321671633393
182,802.9151455915072
183,802.8987727705535
184,802.8831121160711
185,802.8682170317319
186,802.8541308952897
187,802.8408871097986
188,802.8285092148265
189,802.817011057837
190,802.806397029044
191,802.7966623688089
192,802.7877935653092
193,802.7797688663818
194,802.7725589268185
195,802.7661275993684
196,802.76043285951
197,802.7554278388892
198,802.7510619348312
199,802.7472819619472
200,802.744033312484
201,802.7412610931037
202,802.7389112078511
203,802.7369313600339
204,802.7352719493314
205,802.7338868466061
206,802.7327340392377
207,802.7317761510093
208,802.7309808465322
209,802.730321129472
210,802.7297755416851
211,802.729328272119
212,802.7289691897606
213,802.7286938202196
214,802.7285032878488
215,802.728404243444
216,802.7284087901195
217,802.7285344067415
218,802.7288038538425
219,802.7292450378246
220,802.7298908078686
221,802.7307786640882
222,802.7319503616557
223,802.7334514006075
224,802.7353303926867
225,802.7376382962002
226,802.7404275128458
227,802.7437508521715
228,802.7476603881692
229,802.7522062491759
230,802.7574353883147
231,802.7633903776721
232,802.7701082626483
233,802.7776195092443
234,802.7859470763938
235,802.795105644638
236,802.8051010294377
237,802.8159298020096
238,802.8275791341543
239,802.8400268787378
240,802.8532418946536
241,802.8671846197666
242,802.8818078834122
243,802.8970579344424
244,802.9128756486678
245,802.9291978736728
246,802.9459588655866
247,802.9630917668397
248,802.9805300673635
249,802.9982089910673
250,803.0160667596804
251,803.034045703221
252,803.0520932016466
253,803.0701624517817
254,803.088213061076
255,803.1062114788733
256,803.1241312842157
257,803.1419533513052
258,803.1596659089086
259,803.177264504219
260,803.1947518806112
261,803.2121377804101
262,803.229438682143
263,803.2466774759283
264,803.2638830758134
265,803.2810899665071
266,803.29833768129
267,803.3156702069497
268,803.3331353133506
269,803.3507838106887
270,803.3686687437582
271,803.3868445371023
272,803.40536610702
273,803.4242879558473
274,803.443663261138
275,803.4635429679796
276,803.4839748865503
277,803.5050027901344
278,803.5266655063878
279,803.5489960028438
280,803.5720204848848
281,803.5957575393336
282,803.6202173584655
283,803.645401066687
284,803.6713001532956
285,803.6978959993191
286,803.7251594810791
287,803.7530506384667
288,803.7815184067425
289,803.8105004215497
290,803.8399229163495
291,803.8697007398677
292,803.8997375276592
293,803.9299260656825
294,803.9601488829193
295,803.9902791009816
296,804.0201815495722
297,804.0497141315202
298,804.078729397494
299,804.107076274002
300,804.1346018799139
301,804.1611533657808
302,804.186579716732
303,804.2107334718521
304,804.2334723256965
305,804.2546605864162
306,804.2741704685473
307,804.2918831987115
308,804.3076899133536
309,804.3214923337331
310,804.3332032164527
311,804.3427465950144
312,804.3500578424439
313,804.3550835902486
314,804.3577815350768
315,804.3581201593486
316,804.3560783928775
317,804.3516452476101
318,804.344819459925
319,804.3356091704302
320,804.3240316622725
321,804.310113170456
322,804.2938887687824
323,804.275402336014
324,804.2547065962702
325,804.231863221292
326,804.2069429764229
327,804.1800258874596
328,804.151201400252
329,804.1205685007312
330,804.0882357637246
331,804.0543213046791
332,804.0189526137559
333,803.9822662512195
334,803.9444073783363
335,803.9055290960257
336,803.8657915672043
337,803.8253609054381
338,803.7844078208187
339,803.7431060265222
340,803.7016304283798
341,803.660155143505
342,803.6188514167612
343,803.5778855164126
344,803.5374166864129
345,803.4975952161193
346,803.4585606689577
347,803.4204402958323
348,803.3833476458809
349,803.3473813748816
350,803.3126242430629
351,803.2791422940933
352,803.2469842162983
353,803.2161808996052
354,803.1867452088568
355,803.1586719915598
356,803.131938327921
357,803.106504018809
358,803.0823122971793
359,803.0592907412272
360,803.0373523628541
361,803.0163968440766
362,802.9963118979838
363,802.9769747390335
364,802.9582536568233
365,802.9400096936102
366,802.9220984257315
367,802.9043718441834
368,802.8866803241868
369,802.8688746692833
370,802.8508082104806
371,802.8323389346975
372,802.8133316121315
373,802.79365989118
374,802.7732083298176
375,802.7518743303251
376,802.7295699400854
377,802.7062234782461
378,802.6817809487225
379,802.6562072031803
380,802.6294868210039
381,802.6016246762847
382,802.5726461655598
383,802.5425970750958
384,802.5115430739734
385,802.4795688317289
386,802.4467767779516
387,802.4132855414117
388,802.379228120435
389,802.3447498405541
390,802.3100061523246
391,802.2751603167019
392,802.2403810213685
393,802.2058399706727
394,802.1717094941529
395,802.1381602205282
396,802.1053588610843
397,802.0734661380023
398,802.0426348825506
399,802.013008317384
400,801.9847185277275
401,801.957885121473
402,801.9326140812652
403,801.9089968192241
404,801.8871094488161
405,801.8670122828753
406,801.8487495529641
407,801.8323493293163
408,801.8178236100879
409,801.8051685486154
410,801.7943647964904
411,801.7853779503506
412,801.7781590929651
413,801.7726454146383
414,801.7687608967354
415,801.7664170385984
416,801.7655136072921
417,801.765939383559
418,801.7675728734724
419,801.7702829617997
420,801.7739295004952
421,801.7783638479086
422,801.7834293959083
423,801.7889621400699
424,801.79479135742
425,801.800740451806
426,801.806628010258
427,801.8122690918436
428,801.8174767487257
429,801.8220637597503
430,801.8258445420055
431,801.8286371954488
432,801.8302656261945
433,801.8305616823518
434,801.829367225155
435,801.8265360545294
436,801.8219356168736
437,801.8154484410234
438,801.8069732683426
439,801.7964258595947
440,801.7837394759463
441,801.7688650476816
442,801.7517710612613
443,801.7324432073552
444,801.7108838347498
445,801.6871112493469
446,801.6611588896138
447,801.6330744042414
448,801.6029186557703
449,801.5707646741778
450,801.5366965842624
451,801.5008085280188
452,801.4632035973392
453,801.4239927836701
454,801.3832939417971
455,801.3412307589623
456,801.2979317220919
457,801.2535290853675
458,801.2081578523132
459,801.1619547924612
460,801.1150575080649
461,801.0676035559987
462,801.0197296236802
463,800.9715707609372
464,800.9232596787072
465,800.8749261320866
466,800.8266964037451
467,800.7786928943565
468,800.7310338149078
469,800.6838329679102
470,800.6371996031817
471,800.5912383364665
472,800.5460491224351
473,800.5017272776051
474,800.4583635541501
475,800.4160442702954
476,800.3748515050406
477,800.3348633654653
478,800.2961543341731
479,800.2587956983008
480,800.2228560464522
481,800.188401799579
482,800.1554977248796
483,800.1242073744927
484,800.0945933944116
485,800.06671766296
486,800.0406412406766
487,800.016424139175
488,799.9941249366748
489,799.9738002767097
490,799.9555042863445
491,799.9392879477008
492,799.925198454352
493,799.9132785792216
494,799.9035660700736
495,799.8960930744591
496,799.8908855831512
497,799.887962871923
498,799.8873369144352
499,799.889011735076
500,799.8929826761827
501,799.8992355736017
502,799.9077458633835
503,799.9184776683968
504,799.9313829260069
505,799.9464006155039
506,799.9634561344023
507,799.982460863899
508,800.0033119559523
509,800.0258923624709
510,800.0500711097827
511,800.0757038059174
512,800.1026333615158
513,800.1306909063229
514,800.1596968841632
515,800.1894623034865
516,800.219790110258
517,800.2504766442493
518,800.2813131442424
519,800.3120872782077
520,800.3425846832638
521,800.3725905039471
522,800.4018909182987
523,800.4302746429346
524,800.457534411655
525,800.4834684257524
526,800.507881776405
527,800.5305878400374
528,800.5514096455888
529,800.5701812073305
530,800.586748809954
531,800.6009722280293
532,800.6127258619855
533,800.6218997767646
534,800.6284006339462
535,800.6321525101234
536,800.6330975946335
537,800.6311967630879
538,800.6264300310366
539,800.618796899836
540,800.6083166087105
541,800.5950283019952
542,800.5789911116343
543,800.5602841461987
544,800.5390063721217
545,800.5152763715583
546,800.4892319623401
547,800.4610296663308
548,800.4308440130718
549,800.3988666688592
550,800.3653053893464
551,800.3303828035106
552,800.2943350430409
553,800.2574102319954
554,800.2198668492123
555,800.1819719729319
556,800.1439994147227
557,800.1062277498079
558,800.0689382552396
559,800.0324127757274
560,799.9969315455661
561,799.9627709992632
562,799.9302016007806
563,799.8994857130182
564,799.8708755189215
565,799.8446109966308
566,799.8209179446831
567,799.8000060505234
568,799.7820669987575
569,799.7672726249145
570,799.7557731311873
571,799.7476953865078
572,799.743141332957
573,799.7421865169467
574,799.7448787601419
575,799.7512369844475
576,799.761250209841
577,799.7748767532967
578,799.7920436681934
579,799.8126464719081
580,799.8365492107292
581,799.8635849041059
582,799.8935563976352
583,799.9262376413545
584,799.9613753984881
585,799.998691378237
586,800.0378847741941
587,800.0786351780741
588,800.1206058262396
589,800.1634471251267
590,800.2068003954877
591,800.2503017771843
592,800.2935862423732
593,800.3362916674131
594,800.3780629081233
595,800.4185558123428
596,800.45744109601
597,800.494408010041
598,800.529167734764
599,800.5614564507719
600,800.5910380431942
601,800.6177063988705
602,800.6412872564684
603,800.6616395720662
604,800.678656367867
605,800.6922650402238
606,800.7024271177769
607,800.7091374820236
608,800.7124230855303
609,800.7123412191692
610,800.7089773867003
611,800.7024428472885
612,800.6928718889894
613,800.6804188991263
614,800.6652552987251
615,800.6475664077362
616,800.6275483078779
617,800.60540477183
618,800.5813443283731
619,800.5555775290596
620,800.5283144735646
621,800.49976264105
622,800.4701250626945
623,800.4395988528519
624,800.4083740959745
625,800.3766330704741
626,800.3445497811409
627,800.3122897660961
628,800.2800101412417
629,800.2478598442244
630,800.2159800388146
631,800.1845046377204
632,800.1535608973077
633,800.1232700326012
634,800.093747798326
635,800.0651049856324
636,800.037447795085
637,800.010878060563
638,799.9854933118597
639,799.9613866754486
640,799.9386466246714
641,799.9173566026777
642,799.8975945517468
643,799.8794323881867
644,799.8629354599576
645,799.8481620143244
646,799.835162690309
647,799.8239800416078
648,799.8146480905529
649,799.8071919099622
650,799.8016272278123
651,799.7979600516787
652,799.7961863148053
653,799.7962915503117
654,799.7982506030215
655,799.802027390832
656,799.8075747313292
657,799.8148342550843
658,799.8237364340075
659,799.8342007597939
660,799.846136111448
661,799.8594413493937
662,799.8740061656181
663,799.8897122051195
664,799.9064344543733
665,799.9240428693583
666,799.9424041938539
667,799.9613839050031
668,799.9808482203864
669,800.0006661052198
670,800.0207112244766
671,800.0408637916911
672,800.0610122760776
673,800.0810549424573
674,800.1009012102801
675,800.1204728240666
676,800.1397048271499
677,800.158546327506
678,800.1769610431098
679,800.1949276153733
680,800.2124396808118
681,800.2295056928353
682,800.2461484891832
683,800.2624046056656
684,800.2783233407463
685,800.2939655777933
686,800.3094023761132
687,800.3247133516297
688,800.3399848829508
689,800.3553081944257
690,800.3707773793764
691,800.3864874310128
692,800.4025323458333
693,800.4190033567492
694,800.4359873432929
695,800.4535654557084
696,800.4718119788452
697,800.4907934503236
698,800.5105680349931
699,800.5311851450593
700,800.5526852856834
701,800.5751001031042
702,800.5984526161154
703,800.6227576157542
704,800.6480222145728
705,800.6742465140798
706,800.7014243443929
707,800.7295440252129
708,800.7585891066083
709,800.7885390660264
710,800.8193699559876
711,800.8510550123162
712,800.8835652459991
713,800.9168700505162
714,800.9509378568051
715,800.9857368589102
716,801.0212358179333
717,801.0574049342093
718,801.0942167603791
719,801.1316471133947
720,801.1696759344027
721,801.208288043718
722,801.2474737425259
723,801.2872292214196
724,801.3275567471934
725,801.3684646115908
726,801.4099668357416
727,801.4520826296815
728,801.4948356087339
729,801.5382527722047
730,801.5823632595672
731,801.627196914689
732,801.6727827040083
733,801.71914704501
734,801.7663121057683
735,801.8142941346711
736,801.8631018718776
737,801.9127350836229
738,801.9631832529818
739,802.0144244600364
740,802.0664244886841
741,802.1191362005992
742,802.1724992133575
743,802.2264399072541
744,802.2808717664092
745,802.3356960395691
746,802.3908026884063
747,802.446071577377
748,802.5013738508372
749,802.5565734429191
750,802.6115286740363
751,802.6660939006263
752,802.7201211971133
753,802.7734620600781
754,802.8259691343012
755,802.8774979653404
756,802.9279087790171
757,802.9770682749366
758,803.0248514051594
759,803.0711430966772
760,803.1158398690333
761,803.1588512944196
762,803.2001012462363
763,803.2395288857109
764,803.277089347116
765,803.3127540985769
766,803.3465109711752
767,803.378363859929
768,803.4083321097673
769,803.4364496130665
770,803.4627636613471
771,803.4873336073056
772,803.5102294026858
773,803.5315300822583
774,803.551322261239
775,803.5696987009064
776,803.5867569792975
777,803.6025982888517
778,803.6173263760411
779,803.6310466370735
780,803.6438653805388
781,803.6558892566471
782,803.6672248358113
783,803.6779783040522
784,803.6882552347912
785,803.6981603965
786,803.7077975593504
787,803.7172692675645
788,803.7266765480344
789,803.7361185324675
790,803.7456919788233
791,803.7554906836909
792,803.7656047783948
793,803.7761199010048
794,803.787116239182
795,803.7986674482373
796,803.8108394641304
797,803.8236892469973
798,803.8372635004947
799,803.8515974128686
800,803.8667134592969
801,803.8826202964257
802,803.899311773934
803,803.9167660863203
804,803.9349450880001
805,803.9537937920974
806,803.9732400689171
807,803.9931945593568
808,804.0135508236349
809,804.0341857524107
810,804.0549602703999
811,804.0757203598249
812,804.0962984216519
813,804.1165149765704
814,804.1361806885172
815,804.1550986772261
816,804.1730670767545
817,804.1898817939351
818,804.2053394217813
819,804.2192402651946
820,804.2313914366619
821,804.2416099762538
822,804.249725944796
823,804.2555854342205
824,804.2590534348159
825,804.2600164941537
826,804.2583850980725
827,804.254095703203
828,804.2471123553731
829,804.2374278397336
830,804.2250643256951
831,804.2100734890192
832,804.1925361108865
833,804.1725611695588
834,804.1502844562539
835,804.1258667616735
836,804.0994916896616
837,804.0713631584116
838,804.0417026484832
839,804.0107462522327
840,803.9787415744071
841,803.9459445327295
842,803.912616110355
843,803.8790191150749
844,803.8454150006389
845,803.8120608038925
846,803.779206247311
847,803.7470910497791
848,803.7159424816217
849,803.6859731951678
850,803.6573793581322
851,803.6303391110931
852,803.6050113608959
853,803.5815349092962
854,803.5600279032375
855,803.5405875837267
856,803.5232903061136
857,803.5081918053277
858,803.4953276847594
859,803.484714114807
860,803.4763487318068
861,803.470211726346
862,803.4662671027818
863,803.4644640840804
864,803.4647386327836
865,803.4670150615833
866,803.4712077128776
867,803.4772226903349
868,803.484959623162
869,803.4943134366612
870,803.5051760946657
871,803.5174382730391
872,803.5309909200832
873,803.5457266612871
874,803.5615410122253
875,803.5783333712577
876,803.5960077702151
877,803.6144733671625
878,803.6336446727105
879,803.6534415107577
880,803.673788724925
881,803.6946156518918
882,803.7158553915662
883,803.7374439128829
884,803.7593190466125
885,803.78141943372
886,803.8036835137309
887,803.8260486432359
888,803.8484504253443
889,803.8708223101054
890,803.8930955017338
891,803.9151991848807
892,803.9370610574999
893,803.9586081317823
894,803.9797677417675
895,804.000468682289
896,804.0206424025888
897,804.0402241897627
898,804.0591542974618
899,804.0773789951836
900,804.094851526419
901,804.1115329699578
902,804.1273930011348
903,804.1424105498654
904,804.1565743500811
905,804.1698833723713
906,804.1823471297216
907,804.1939858440854
908,804.204830458764
909,804.214922481095
910,804.2243136439721
911,804.2330653804702
912,804.2412481090117
913,804.2489403272956
914,804.2562275157148
915,804.2632008578231
916,804.2699557949591
917,804.2765904411751
