frame_number,force
0,801.2364863388037
1,801.2744631987316
2,801.3122847951523
3,801.3497666046854
4,801.3867207585002
5,801.4229579417682
6,801.4582891134294
7,801.4925270325207
8,801.5254875909973
9,801.5569909650786
10,801.5868626065165
11,801.6149341018388
12,801.6410439317453
13,801.6650381638805
14,801.6867711102217
15,801.7061059769616
16,801.7229155315348
17,801.737082808177
18,801.7485018694581
19,801.7570786357315
20,801.7627317848672
21,801.7653937094786
22,801.7650115016413
23,801.761547922403
24,801.7549823091457
25,801.7453113771178
26,801.7325498779837
27,801.7167310840133
28,801.6979070702716
29,801.6761487699692
30,801.6515457815613
31,801.6242059114297
32,801.5942544434386
33,801.5618331354947
34,801.527098952111
35,801.4902225508611
36,801.4513865508237
37,801.4107836229024
38,801.368614453143
39,801.3250856375346
40,801.2804075677724
41,801.2347923628347
42,801.1884518950638
43,801.1415959545612
44,801.0944305896393
45,801.0471566496262
46,800.9999685405816
47,800.9530531908097
48,800.9065892161276
49,800.8607462733947
50,800.8156845912227
51,800.7715546681716
52,800.7284971324741
53,800.686642762666
54,800.6461126718201
55,800.6070186566707
56,800.5694637070068
57,800.5335426614329
58,800.499342983326
59,800.4669456166022
60,800.4364258686568
61,800.4078542635449
62,800.3812973149677
63,800.3568181824486
64,800.3344771891376
65,800.3143321923951
66,800.2964388081101
67,800.2808504971892
68,800.2676185282501
69,800.2567918342348
70,800.2484167823555
71,800.2425368767415
72,800.2391924123872
73,800.2384200982814
74,800.2402526660283
75,800.2447184765647
76,800.2518411326632
77,800.2616391011201
78,800.274125346728
79,800.289306979279
80,800.3071849134903
81,800.3277535393194
82,800.3510003972463
83,800.3769058509004
84,800.4054427489818
85,800.436576070981
86,800.4702625574987
87,800.5064503353138
88,800.5450785572428
89,800.5860770843298
90,800.6293662409028
91,800.6748566710049
92,800.722449318976
93,800.7720355501522
94,800.8234974219833
95,800.876708112151
96,800.9315325075273
97,800.9878279540278
98,801.0454451619063
99,801.1042292554062
100,801.1640209508722
101,801.2246578422759
102,801.285975767644
103,801.3478102263932
104,801.4099978167812
105,801.4723776623675
106,801.5347927947812
107,801.5970914584092
108,801.6591283034044
109,801.7207654380599
110,801.7818733187916
111,801.8423314626839
112,801.9020289718808
113,801.9608648613616
114,802.0187481836939
115,802.0755979495307
116,802.131342853727
117,802.185920832567
118,802.2392784927325
119,802.291370462405
120,802.3421587158315
121,802.391611913784
122,802.4397047867965
123,802.4864175720348
124,802.5317355019931
125,802.5756483338117
126,802.618149902196
127,802.6592376790201
128,802.6989123281835
129,802.737177250565
130,802.7740381179451
131,802.8095023979984
132,802.8435788770646
133,802.8762771921998
134,802.9076073851437
135,802.9375794867999
136,802.9662031344828
137,802.993487219292
138,803.0194395590819
139,803.0440665940359
140,803.0673731070451
141,803.0893619780203
142,803.1100339854962
143,803.1293876673809
144,803.1474192468381
145,803.1641226231008
146,803.1794894242587
147,803.1935091216234
148,803.206169211943
149,803.2174554809902
150,803.2273523670319
151,803.235843444124
152,803.2429120420053
153,803.2485420119586
154,803.2527186386731
155,803.2554296875172
156,803.2566665624697
157,803.2564255323277
158,803.2547089669688
159,803.251526516669
160,803.2468961662862
161,803.2408451002655
162,803.2334103236626
163,803.2246390010589
164,803.2145884991949
165,803.2033261439784
166,803.1909287201714
167,803.1774817497104
168,803.1630785846563
169,803.1478193466314
170,803.1318097394408
171,803.1151597589288
172,803.0979823267851
173,803.0803918819348
174,803.062502969153
175,803.0444288650704
176,803.0262802767274
177,803.0081641406974
178,802.9901825449904
179,802.9724317924365
180,802.9550016206084
181,802.9379745859659
182,802.9214256080769
183,802.9054216568877
184,802.8900215569912
185,802.8752758812115
186,802.8612269118178
187,802.8479086574982
188,802.8353469223312
189,802.8235594269545
190,802.812555984389
191,802.8023387372106
192,802.7929024691764
193,802.7842350089618
194,802.7763177416103
195,802.7691262334456
196,802.7626309624625
197,802.7567981347643
198,802.7515905619376
199,802.7469685731751
200,802.7428909363994
201,802.7393157634056
202,802.7362013755827
203,802.7335071090122
204,802.7311940404497
205,802.7292256203496
206,802.727568206895
207,802.7261915034649
208,802.7250689064929
209,802.7241777701921
210,802.723499593074
211,802.7230201325691
212,802.7227294582161
213,802.7226219579501
214,802.7226963138401
215,802.7229554623178
216,802.7234065484263
217,802.72406087377
218,802.724933827072
219,802.7260447794627
220,802.7274169256522
221,802.7290770552912
222,802.7310552435222
223,802.7333844535071
224,802.7361000449906
225,802.739239182691
226,802.7428401405658
227,802.7469415067867
228,802.7515813083999
229,802.7567960871464
230,802.762619962438
231,802.7690837144114
232,802.7762139148508
233,802.7840321309517
234,802.7925542263379
235,802.8017897830626
236,802.8117416659828
237,802.8224057467522
238,802.8337707997719
239,802.8458185787357
240,802.8585240801971
241,802.8718559964916
242,802.885777351315
243,802.9002462994721
244,802.915217063127
245,802.9306409724124
246,802.9464675756526
247,802.9626457802434
248,802.9791249802632
249,802.995856126408
250,803.0127927015294
251,803.0298915779659
252,803.047113744358
253,803.0644248968399
254,803.0817958951408
255,803.0992030910385
256,803.1166285429443
257,803.1340601320469
258,803.1514915918963
259,803.168922459069
260,803.1863579518414
261,803.2038087851696
262,803.2212909291477
263,803.2388253138499
264,803.2564374799429
265,803.2741571735369
266,803.2920178833556
267,803.3100563177052
268,803.3283118201457
269,803.3468257269435
270,803.3656406741856
271,803.3847998659223
272,803.4043463163462
273,803.42432207865
274,803.444767471154
275,803.4657203080116
276,803.4872151372251
277,803.5092824835234
278,803.5319480918143
279,803.5552321730569
280,803.5791486672942
281,803.6037045497521
282,803.6288992070673
283,803.6547239011993
284,803.6811613243405
285,803.7081852364598
286,803.7357601729722
287,803.7638412139196
288,803.7923738140474
289,803.8212937011879
290,803.8505268573795
291,803.8799896032957
292,803.9095888113077
293,803.9392222752073
294,803.9687792638341
295,803.9981412788777
296,804.0271830226762
297,804.0557735628167
298,804.0837776624933
299,804.1110572330894
300,804.1374728590594
301,804.1628853443938
302,804.1871572347629
303,804.2101542784887
304,804.2317467990384
305,804.2518109583248
306,804.2702298927832
307,804.2868947043515
308,804.3017052891586
309,804.3145709913371
310,804.325411079247
311,804.334155054386
312,804.3407428142662
313,804.345124694558
314,804.3472614129721
315,804.347123933646
316,804.3446932714779
317,804.3399602598248
318,804.3329253068625
319,804.3235981626669
320,804.3119977125205
321,804.2981518057171
322,804.2820971248709
323,804.2638790971309
324,804.2435518439152
325,804.2211781603993
326,804.1968295118035
327,804.1705860301482
328,804.1425364913425
329,804.112778249448
330,804.0814171056127
331,804.0485670936209
332,804.0143501681317
333,803.9788957813755
334,803.942340330635
335,803.9048264574312
336,803.8665021821721
337,803.8275198630771
338,803.7880349744594
339,803.748204708866
340,803.7081864217478
341,803.6681359551086
342,803.6282058936149
343,803.5885438160127
344,803.5492906016847
345,803.5105788395624
346,803.4725313720131
347,803.4352599943637
348,803.3988643206598
349,803.3634308168503
350,803.3290319959722
351,803.2957257697385
352,803.2635549576859
353,803.2325469641776
354,803.2027136387061
355,803.1740513327775
356,803.1465411587775
357,803.1201494468198
358,803.094828387787
359,803.0705168451034
360,803.0471413140715
361,803.0246170067028
362,803.0028490427994
363,802.9817337340334
364,802.9611599546665
365,802.9410105970529
366,802.9211641098877
367,802.9014961134252
368,802.8818810817745
369,802.8621940791506
370,802.842312533198
371,802.8221180238303
372,802.8014980626248
373,802.7803478371443
374,802.7585718948891
375,802.7360857402005
376,802.7128173144563
377,802.6887083278893
378,802.6637154120584
379,802.6378110645882
380,802.6109843605428
381,802.5832414073146
382,802.5546055229129
383,802.5251171215938
384,802.4948332966186
385,802.4638270995626
386,802.4321865298326
387,802.4000132634446
388,802.3674211609505
389,802.3345345978503
390,802.3014866586652
391,802.2684172318973
392,802.2354710402452
393,802.2027956400419
394,802.1705394257233
395,802.1388496766612
396,802.1078706815475
397,802.0777419692535
398,802.0485966671297
399,802.020559999681
400,801.9937479334093
401,801.9682659699939
402,801.9442080921912
403,801.9216558724137
404,801.900677756744
405,801.8813285328525
406,801.8636489797642
407,801.8476656852746
408,801.8333910087365
409,801.8208231667292
410,801.8099464257633
411,801.8007313935535
412,801.7931354021914
413,801.7871029729257
414,801.7825663488765
415,801.7794460814087
416,801.7776516543122
417,801.7770821251944
418,801.7776267603857
419,801.7791656443811
420,801.7815702577567
421,801.7847040339992
422,801.7884229217821
423,801.7925759925872
424,801.7970061404885
425,801.8015509175019
426,801.8060435353016
427,801.8103140476236
428,801.8141907112903
429,801.8175015092145
430,801.820075807573
431,801.8217461115945
432,801.8223498773107
433,801.8217313278918
434,801.8197432148945
435,801.8162484621304
436,801.8111216364665
437,801.8042502036333
438,801.7955355422555
439,801.7848937020073
440,801.772255902971
441,801.7575687856174
442,801.7407944337876
443,801.7219102022163
444,801.700908381996
445,801.677795733265
446,801.652592908643
447,801.6253337868728
448,801.5960647347576
449,801.5648438157847
450,801.5317399638211
451,801.4968321383844
452,801.4602084736867
453,801.4219654271852
454,801.3822069263425
455,801.3410435078678
456,801.2985914449317
457,801.2549718649768
458,801.2103098697278
459,801.1647336734355
460,801.1183737719284
461,801.0713621472653
462,801.0238315080305
463,800.9759145675839
464,800.9277433692716
465,800.879448672539
466,800.8311594126985
467,800.7830022400196
468,800.7351011348931
469,800.6875770898722
470,800.6405478483242
471,800.5941276913146
472,800.548427266753
473,800.5035534577868
474,800.4596092914567
475,800.4166938921471
476,800.374902485862
477,800.3343264617226
478,800.2950534965433
479,800.257167743722
480,800.2207500763748
481,800.1858783593681
482,800.1526277121907
483,800.1210707191478
484,800.0912775461269
485,800.0633159336711
486,800.0372510530398
487,800.0131452312828
488,799.9910575665302
489,799.971043461349
490,799.9531541019377
491,799.9374359090715
492,799.9239299850664
493,799.9126715773659
494,799.9036895714685
495,799.8970060152457
496,799.8926356670892
497,799.8905855534338
498,799.8908545158762
499,799.8934327251561
500,799.8983011434306
501,799.9054309309059
502,799.9147828145075
503,799.9263064557199
504,799.9399398639521
505,799.9556088998413
506,799.9732269056402
507,799.9926944930876
508,800.0138995131787
509,800.0367172231249
510,800.0610106526683
511,800.0866311600246
512,800.113419162548
513,800.1412050279232
514,800.1698101122524
515,800.1990479268976
516,800.2287254080439
517,800.2586442585202
518,800.2886023346273
519,800.3183950585144
520,800.347816843097
521,800.3766625191967
522,800.4047287552228
523,800.4318154608754
524,800.4577271688238
525,800.4822743909755
526,800.5052749475832
527,800.5265552677821
528,800.5459516586983
529,800.5633115363
530,800.5784946060061
531,800.5913739776443
532,800.6018371994704
533,800.6097871990482
534,800.6151431223919
535,800.6178410643953
536,800.6178346839545
537,800.6150956998649
538,800.6096142696731
539,800.6013992596681
540,800.5904784158422
541,800.5768984421043
542,800.560724985568
543,800.5420425223392
544,800.5209541332965
545,800.4975811586223
546,800.472062720891
547,800.4445551073854
548,800.4152310029916
549,800.384278567705
550,800.3519003589779
551,800.3183121066787
552,800.2837413533066
553,800.2484259728999
554,800.2126125804762
555,800.1765548417304
556,800.140511691079
557,800.1047454662609
558,800.0695199710706
559,800.0350984841532
560,800.0017417383164
561,799.9697058979592
562,799.939240560191
563,799.9105867989551
564,799.8839752637107
565,799.8596243374008
566,799.8377383534997
567,799.8185058697228
568,799.8020979981809
569,799.788666798583
570,799.7783437488987
571,799.7712383120673
572,799.7674366168094
573,799.7670002676269
574,799.7699652961853
575,799.7763412654585
576,799.7861105410555
577,799.799227750915
578,799.815619462603
579,799.8351841133422
580,799.8577922286584
581,799.8832869598549
582,799.9114849607383
583,799.9421776140794
584,799.9751326094366
585,800.0100958650279
586,800.0467937770707
587,800.0849357708827
588,800.1242171186683
589,800.1643219802284
590,800.2049266180668
591,800.2457027396395
592,800.2863209240368
593,800.3264540922519
594,800.3657809759223
595,800.4039895314771
596,800.4407802409114
597,800.4758692413357
598,800.5089912327315
599,800.5399021226278
600,800.5683813727424
601,800.5942340147516
602,800.6172923030335
603,800.6374169743741
604,800.654498088801
605,800.6684554324032
606,800.6792384743061
607,800.6868258864507
608,800.6912246523339
609,800.6924688033345
610,800.6906178267701
611,800.6857547918244
612,800.6779842416099
613,800.6674299020596
614,800.6542322595224
615,800.6385460588308
616,800.6205377738876
617,800.6003831044155
618,800.5782645533097
619,800.5543691361434
620,800.528886268137
621,800.5020058665962
622,800.473916697716
623,800.4448049833826
624,800.4148532683299
625,800.3842395359904
626,800.3531365541614
627,800.321711427287
628,800.2901253298238
629,800.2585333943381
630,800.2270847270335
631,800.195922521117
632,800.1651842348668
633,800.1350017972879
634,800.1055018021365
635,800.0768056538531
636,800.0490296370086
637,800.0222848912761
638,799.9966772836476
639,799.9723071782375
640,799.9492691127087
641,799.9276513992763
642,799.907535675828
643,799.8889964367319
644,799.872100571228
645,799.8569069297615
646,799.8434659290771
647,799.8318191999192
648,799.8219992772442
649,799.81402932993
650,799.8079229254176
651,799.8036838261272
652,799.8013058180862
653,799.8007725756047
654,799.8020575679794
655,799.8051240159737
656,799.8099249085762
657,799.8164030948022
658,799.8244914704544
659,799.8341132847227
660,799.8451825944408
661,799.8576048926807
662,799.871277932307
663,799.8860927544687
664,799.9019349173274
665,799.9186859029434
666,799.9362246638832
667,799.9544292608546
668,799.9731785406716
669,799.992353807209
670,800.0118404427296
671,800.0315294422871
672,800.0513188314285
673,800.0711149471861
674,800.0908335713267
675,800.1104009094852
676,800.1297544096002
677,800.1488434108871
678,800.1676296136962
679,800.1860873615782
680,800.2042037282113
681,800.2219784032795
682,800.239423374243
683,800.2565624049151
684,800.2734303147874
685,800.2900720648543
686,800.3065416590097
687,800.3229008774778
688,800.3392178699838
689,800.3555656483387
690,800.3720205268421
691,800.3886605621848
692,800.4055640425071
693,800.422808069584
694,800.4404672706792
695,800.4586126686437
696,800.4773107306282
697,800.4966226071248
698,800.5166035636483
699,800.5373025978058
700,800.5587622272343
701,800.581018431752
702,800.6041007358208
703,800.628032420364
704,800.6528308502833
705,800.6785078943418
706,800.7050704030789
707,800.7325207066485
708,800.7608571014543
709,800.7900743078678
710,800.8201638948053
711,800.8511146784762
712,800.8829131125175
713,800.9155436932901
714,800.9489894043327
715,800.9832322171354
716,801.0182536538022
717,801.0540354039025
718,801.0905599748861
719,801.1278113444661
720,801.1657755765941
721,801.2044413613905
722,801.2438004427652
723,801.2838479038734
724,801.3245822891022
725,801.3660055505496
726,801.4081228145527
727,801.4509419681051
728,801.4944730668417
729,801.5387275690534
730,801.5837174075263
731,801.62945392256
732,801.6759466910551
733,801.7232022943994
734,801.7712230711812
735,801.8200058994805
736,801.8695410477736
737,801.9198111255901
738,801.9707901593629
739,802.0224428183326
740,802.0747238185052
741,802.1275775350368
742,802.1809378506757
743,802.2347282584213
744,802.2888622222265
745,802.3432437842952
746,802.397768394194
747,802.4523239245668
748,802.506791831856
749,802.5610484201858
750,802.6149661727547
751,802.6684151245719
752,802.7212642595916
753,802.7733829235082
754,802.8246422506968
755,802.874916607511
756,802.924085050903
757,802.9720327913965
758,803.0186526374273
759,803.0638463887454
760,803.107526141127
761,803.1496154617029
762,803.1900503932856
763,803.2287802488802
764,803.265768165894
765,803.300991402042
766,803.3344413668804
767,803.3661233912081
768,803.3960562438929
769,803.4242714159329
770,803.450812203772
771,803.475732634235
772,803.4990962806305
773,803.520975023302
774,803.5414478058653
775,803.5605994290806
776,803.5785194110236
777,803.5953009310942
778,803.6110398703969
779,803.625833960435
780,803.6397820497533
781,803.6529834898374
782,803.6655376289649
783,803.6775433913064
784,803.6890989126831
785,803.7003012043564
786,803.7112458190016
787,803.722026495704
788,803.7327347636955
789,803.7434594895583
790,803.7542863589578
791,803.7652972883259
792,803.7765697626875
793,803.7881760952656
794,803.8001826064559
795,803.8126487267225
796,803.8256260393558
797,803.8391572907765
798,803.8532754031831
799,803.8680025246238
800,803.8833491465934
801,803.8993133125766
802,803.9158799361678
803,803.9330202459535
804,803.9506913740364
805,803.9688361028349
806,803.9873827812605
807,804.006245420622
808,804.0253239842302
809,804.044504889519
810,804.063661743576
811,804.0826563307353
812,804.1013398636704
813,804.1195544972816
814,804.1371350901663
815,804.1539111861173
816,804.1697091808641
817,804.1843546369813
818,804.1976747106864
819,804.2095006560043
820,804.2196703720822
821,804.2280309569735
822,804.2344412272241
823,804.238774159076
824,804.2409192040305
825,804.2407844279901
826,804.2382984200933
827,804.2334119169107
828,804.2260990915528
829,804.2163584661417
830,804.2042134193125
831,804.1897122751474
832,804.1729279733526
833,804.1539573326318
834,804.1329199315039
835,804.1099566422114
836,804.08522786117
837,804.058911482612
838,804.031200661441
839,804.0023014080228
840,803.9724300541912
841,803.9418106292118
842,803.9106721868802
843,803.8792461273015
844,803.8477635573406
845,803.8164527325451
846,803.7855366202654
847,803.7552306186464
848,803.7257404609932
849,803.697260331403
850,803.6699712144771
851,803.6440394973021
852,803.6196158346663
853,803.59683427893
854,803.5758116660961
855,803.5566472423628
856,803.539422512125
857,803.5242012887494
858,803.5110299330914
859,803.4999377700245
860,803.4909376765587
861,803.4840268336264
862,803.4791876280104
863,803.4763886848996
864,803.4755860088828
865,803.4767242130104
866,803.479737819804
867,803.4845526206909
868,803.4910870784308
869,803.4992537516401
870,803.5089607143992
871,803.5201129390156
872,803.5326136074267
873,803.5463653178534
874,803.5612711580491
875,803.5772356223446
876,803.5941653545773
877,803.6119697034114
878,803.6305610821089
879,803.649855131886
880,803.6697706958153
881,803.6902296177323
882,803.7111563872024
883,803.7324776583057
884,803.7541216794976
885,803.7760176847584
886,803.7980953082542
887,803.8202840890654
888,803.8425131256014
889,803.864710923785
890,803.8868054649936
891,803.9087245021096
892,803.9303960735601
893,803.9517492057252
894,803.9727147570106
895,803.9932263464824
896,804.0132213090637
897,804.0326416282657
898,804.0514348127364
899,804.0695546979669
900,804.0869621642997
901,804.1036257670253
902,804.119522276313
903,804.1346371248833
904,804.148964759746
905,804.1625088923374
906,804.1752826400439
907,804.1873085505949
908,804.1986184988323
909,804.2092534451021
910,804.2192630476342
911,804.2287051256786
912,804.2376449726311
913,804.2461545190397
914,804.2543113473357
915,804.2621975653182
916,804.2698985526463
917,804.2775016014178
