frame_number,force
0,687.2009300085581
1,687.3965643929448
2,687.5917203683448
3,687.7859222570793
4,687.9786998083388
5,688.1695908250344
6,688.3581436936366
7,688.5439197936909
8,688.7264957677153
9,688.9054656351288
10,689.0804427366014
11,689.2510614984387
12,689.4169790101342
13,689.5778764113611
14,689.7334600870233
15,689.8834626706255
16,690.027643857377
17,690.1657910292047
18,690.2977196942336
19,690.4232737435194
20,690.5423255283406
21,690.6547757625435
22,690.7605532560015
23,690.8596144864711
24,690.95194301766
25,691.0375487716071
26,691.1164671640837
27,691.1887581127634
28,691.2545049292186
29,691.3138131073966
30,691.36680902316
31,691.4136385614485
32,691.4544656889071
33,691.4894709899502
34,691.5188501832862
35,691.5428126341703
36,691.5615798750147
37,691.5753841435859
38,691.5844669444197
39,691.5890776359314
40,691.5894720434011
41,691.5859110969218
42,691.5786594939391
43,691.5679843881312
44,691.554154109263
45,691.5374369209463
46,691.5180998239165
47,691.4964074113752
48,691.4726207810162
49,691.4469965065538
50,691.4197856703447
51,691.3912329577952
52,691.3615758133061
53,691.3310436565201
54,691.2998571569321
55,691.26822756476
56,691.2363560961182
57,691.2044333705146
58,691.172638898472
59,691.1411406172805
60,691.1100944740188
61,691.0796440569184
62,691.0499202781959
63,691.021041112983
64,690.9931113997511
65,690.9662227079341
66,690.9404532785269
67,690.9158680430564
68,690.8925187249972
69,690.8704440252852
70,690.8496698906739
71,690.8302098611838
72,690.8120654912497
73,690.7952268379622
74,690.7796730084225
75,690.7653727567223
76,690.752285120253
77,690.7403600856278
78,690.7295392762451
79,690.7197566555634
80,690.7109392418955
81,690.7030078319247
82,690.6958777311786
83,690.6894594900888
84,690.6836596441542
85,690.6783814567846
86,690.6735256640144
87,690.6689912212798
88,690.6646760535263
89,690.6604778106552
90,690.6562946300071
91,690.6520259058069
92,690.6475730627965
93,690.642840328604
94,690.6377354974463
95,690.6321706768321
96,690.6260630088273
97,690.6193353575089
98,690.6119169539314
99,690.603743989268
100,690.5947601462306
101,690.5849170590503
102,690.5741746935782
103,690.5625016413192
104,690.5498753239866
105,690.5362821078851
106,690.5217173295252
107,690.5061852352223
108,690.4896988385242
109,690.4722797006468
110,690.4539576404187
111,690.4347703809964
112,690.4147631405425
113,690.393988173296
114,690.3725042664653
115,690.350376197681
116,690.3276741574545
117,690.3044731410625
118,690.2808523146256
119,690.2568943609596
120,690.2326848116676
121,690.2083113723367
122,690.1838632476409
123,690.1594304728873
124,690.1351032580828
125,690.1109713497191
126,690.0871234140575
127,690.0636464441855
128,690.0406251921036
129,690.0181416268468
130,689.9962744198644
131,689.9750984591476
132,689.9546843936172
133,689.9350982091355
134,689.9164008375069
135,689.8986478000583
136,689.8818888875984
137,689.8661678785803
138,689.8515222971253
139,689.8379832121593
140,689.825575078284
141,689.814315618259
142,689.804215746358
143,689.7952795316927
144,689.7875042009722
145,689.7808801806763
146,689.7753911786613
147,689.7710143046966
148,689.7677202289391
149,689.7654733775244
150,689.7642321654147
151,689.7639492678497
152,689.764571932272
153,689.7660423318924
154,689.7682979604251
155,689.7712720657062
156,689.774894118319
157,689.7790903099225
158,689.7837840746563
159,689.7888966258976
160,689.7943475001672
161,689.8000551006771
162,689.8059372350016
163,689.8119116438738
164,689.8178965199988
165,689.8238110165145
166,689.8295757446355
167,689.8351132595054
168,689.840348532437
169,689.8452094066528
170,689.8496270328817
171,689.853536281311
172,689.8568761274012
173,689.859590010256
174,689.8616261628686
175,689.8629379135323
176,689.8634839574831
177,689.8632285978813
178,689.8621419554943
179,689.8602001465555
180,689.8573854282455
181,689.8536863112723
182,689.8490976390174
183,689.8436206324649
184,689.8372628997676
185,689.8300384090767
186,689.8219674231761
187,689.8130763943856
188,689.8033978183436
189,689.7929700461149
190,689.7818370556299
191,689.7700481851713
192,689.7576578329368
193,689.7447251277357
194,689.7313135767876
195,689.7174906971259
196,689.7033276369624
197,689.6888987926993
198,689.6742814264167
199,689.6595552877691
200,689.6448022431908
201,689.6301059139719
202,689.6155513233725
203,689.6012245520319
204,689.5872124007033
205,689.5736020594171
206,689.5604807821328
207,689.5479355659543
208,689.5360528344686
209,689.5249181257336
210,689.5146157863117
211,689.5052286727118
212,689.4968378603435
213,689.4895223579932
214,689.4833588236626
215,689.4784212759885
216,689.4747807948509
217,689.4725052051255
218,689.4716587385863
219,689.4723016706121
220,689.4744899307697
221,689.4782746894083
222,689.4837019256914
223,689.4908119855054
224,689.4996391398705
225,689.510211155322
226,689.522548887238
227,689.5366659059089
228,689.5525681641232
229,689.570253714551
230,689.5897124848683
231,689.6109261176606
232,689.6338678804202
233,689.6585026486582
234,689.6847869625423
235,689.7126691546918
236,689.7420895443671
237,689.7729806920396
238,689.8052677083064
239,689.838868611724
240,689.8736947307939
241,689.9096511459163
242,689.9466371677796
243,689.9845468494783
244,690.0232695303802
245,690.0626904096501
246,690.1026911460854
247,690.143150479158
248,690.1839448648698
249,690.2249491196749
250,690.2660370662223
251,690.3070821757206
252,690.3479582031133
253,690.3885398126617
254,690.4287031923537
255,690.4683266553898
256,690.5072912261315
257,690.5454812070236
258,690.5827847224931
259,690.6190942357385
260,690.6543070348508
261,690.6883256859995
262,690.7210584531035
263,690.7524196847091
264,690.7823301690584
265,690.8107174576138
266,690.8375161563305
267,690.8626681834031
268,690.886122991947
269,690.90783775572
270,690.9277775157508
271,690.9459152859284
272,690.9622321159703
273,690.9767171100364
274,690.9893673983694
275,691.0001880580799
276,691.0091919782953
277,691.0163996650641
278,691.0218389828971
279,691.025544832438
280,691.0275587668724
281,691.0279285526125
282,691.0267076820186
283,691.0239548472682
284,691.0197333847985
285,691.0141106989033
286,691.0071576715158
287,690.9989480640926
288,690.9895579175629
289,690.9790649571432
290,690.9675480095918
291,690.9550864407315
292,690.9417596209698
293,690.9276464264868
294,690.9128247839415
295,690.8973712666208
296,690.8813607491506
297,690.8648661258662
298,690.8479580951981
299,690.8307050095867
300,690.8131727877977
301,690.7954248843023
302,690.7775223088559
303,690.7595236884508
304,690.7414853630235
305,690.7234615056768
306,690.7055042583908
307,690.6876638757091
308,690.6699888711798
309,690.6525261632066
310,690.635321217757
311,690.618418185252
312,690.6018600284882
313,690.5856886381983
314,690.5699449331945
315,690.5546689429344
316,690.5398998715355
317,690.5256761433734
318,690.5120354310652
319,690.4990146663984
320,690.4866500336199
321,690.4749769433394
322,690.4640299853094
323,690.4538428598079
324,690.4444482892618
325,690.4358779128971
326,690.4281621671901
327,690.4213301542314
328,690.415409499424
329,690.410426199426
330,690.4064044608942
331,690.4033665302867
332,690.4013325150152
333,690.4003201970658
334,690.4003448420874
335,690.401419009513
336,690.4035523714996
337,690.4067515492587
338,690.4110199743284
339,690.416357780294
340,690.4227617285837
341,690.4302251705276
342,690.43873804626
343,690.4482869191312
344,690.4588550429319
345,690.4704224590691
346,690.4829661213629
347,690.4964600466191
348,690.5108754893496
349,690.5261811388982
350,690.5423433366661
351,690.559326310268
352,690.5770924207316
353,690.5956024186693
354,690.6148157056768
355,690.6346905974593
356,690.6551845848214
357,690.6762545880136
358,690.6978571999463
359,690.7199489149394
360,690.742486341423
361,690.7654263982631
362,690.7887264945773
363,690.8123446924074
364,690.8362398511105
365,690.8603717520145
366,690.884701201719
367,690.9091901125431
368,690.9338015591198
369,690.9584998107927
370,690.9832503399563
371,691.0080198065514
372,691.0327760184846
373,691.0574878670154
374,691.0821252355788
375,691.1066588804036
376,691.1310602817351
377,691.1553014656479
378,691.1793547984926
379,691.2031927585313
380,691.226787691332
381,691.2501115563499
382,691.273135672219
383,691.2958304684386
384,691.3181652513766
385,691.3401079920907
386,691.3616251421438
387,691.382681482046
388,691.4032400057262
389,691.4232618433654
390,691.4427062236208
391,691.4615304747728
392,691.4796900629439
393,691.4971386645144
394,691.5138282692412
395,691.5297093103521
396,691.5447308181108
397,691.5588405941438
398,691.5719854050743
399,691.584111195384
400,691.5951633205216
401,691.6050868017351
402,691.6138266040049
403,691.6213279383003
404,691.6275365894455
405,691.6323992705111
406,691.6358640029601
407,691.6378805189097
408,691.6384006791761
409,691.6373788996314
410,691.6347725789368
411,691.6305425219987
412,691.6246533546067
413,691.6170739255664
414,691.6077776935088
415,691.5967430965029
416,691.5839539030334
417,691.5693995420555
418,691.5530754076078
419,691.5349831308218
420,691.5151308104688
421,691.4935331930436
422,691.4702117944199
423,691.445194956746
424,691.4185178363483
425,691.3902223209706
426,691.3603568773779
427,691.3289763327465
428,691.2961415952658
429,691.2619193212105
430,691.2263815373854
431,691.1896052287364
432,691.1516719004943
433,691.1126671227122
434,691.0726800632783
435,691.0318030138516
436,690.9901309114897
437,690.9477608571481
438,690.9047916312796
439,690.8613232067037
440,690.8174562592991
441,690.7732916774496
442,690.7289300715778
443,690.6844712859161
444,690.6400139160993
445,690.5956548379054
446,690.5514887537329
447,690.5076077634782
448,690.4641009653108
449,690.4210540902126
450,690.3785491729742
451,690.3366642616688
452,690.2954731666961
453,690.255045249122
454,690.2154452471824
455,690.1767331402594
456,690.138964050761
457,690.102188185
458,690.0664508140221
459,690.0317922947091
460,689.9982481304069
461,689.9658490684303
462,689.9346212292389
463,689.9045862600441
464,689.875761505383
465,689.8481601886984
466,689.8217916009403
467,689.7966612934846
468,689.7727712730215
469,689.7501201959683
470,689.7287035599547
471,689.70851389027
472,689.6895409198496
473,689.6717717621223
474,689.6551910765457
475,689.6397812270575
476,689.6255224342572
477,689.6123929226964
478,689.600369064563
479,689.5894255203053
480,689.5795353761124
481,689.5706702781854
482,689.5628005641466
483,689.5558953922118
484,689.5499228687966
485,689.5448501753965
486,689.5406436961346
487,689.5372691480737
488,689.5346917165167
489,689.5328761965152
490,689.5317871401683
491,689.5313890080433
492,689.5316463225696
493,689.532523821008
494,689.5339866051024
495,689.5360002840096
496,689.5385311072256
497,689.5415460852074
498,689.5450130967625
499,689.5489009833603
500,689.5531796310017
501,689.5578200402811
502,689.5627943850179
503,689.5680760594059
504,689.5736397132363
505,689.5794612748019
506,689.5855179617866
507,689.5917882815626
508,689.5982520235112
509,689.6048902468273
510,689.6116852672466
511,689.6186206450848
512,689.6256811753475
513,689.6328528791661
514,689.6401229946691
515,689.647479964664
516,689.6549134184374
517,689.6624141457479
518,689.6699740620991
519,689.6775861647596
520,689.685244478428
521,689.6929439886062
522,689.7006805604897
523,689.7084508415213
524,689.7162521460214
525,689.7240823201973
526,689.7319395859876
527,689.7398223632703
528,689.747729071937
529,689.7556579175084
530,689.7636066654799
531,689.7715724100009
532,689.7795513421676
533,689.7875385228532
534,689.7955276650397
535,689.8035109311265
536,689.8114787516008
537,689.819419672325
538,689.8273202377593
539,689.8351649161078
540,689.8429360698669
541,689.8506139723869
542,689.8581768688011
543,689.8656010787
544,689.8728611381982
545,689.8799299798573
546,689.8867791495105
547,689.89337905898
548,689.8996992728202
549,689.9057088254808
550,689.9113765629457
551,689.916671500716
552,689.9215631886611
553,689.926022072745
554,689.9300198434912
555,689.9335297611817
556,689.9365269485376
557,689.9389886432132
558,689.9408944043724
559,689.9422262691719
560,689.9429688559032
561,689.9431094112244
562,689.9426377999863
563,689.9415464381698
564,689.9398301722659
565,689.9374861112836
566,689.9345134196464
567,689.9309130802905
568,689.9266876373841
569,689.921840927514
570,689.9163778073142
571,689.9103038847248
572,689.9036252606284
573,689.8963482875407
574,689.8884793522442
575,689.8800246894311
576,689.8709902330853
577,689.8613815112767
578,689.851203588683
579,689.8404610598858
580,689.8291580951661
581,689.8172985386163
582,689.8048860556155
583,689.7919243236128
584,689.7784172578263
585,689.7643692625908
586,689.7497854994716
587,689.734672164368
588,689.7190367672737
589,689.702888409927
590,689.6862380581354
591,689.6690988069307
592,689.6514861374377
593,689.6334181638724
594,689.6149158677583
595,689.5960033154524
596,689.576707855144
597,689.5570602899909
598,689.5370950241152
599,689.5168501776797
600,689.4963676665108
601,689.4756932409451
602,689.4548764780834
603,689.4339707217689
604,689.4130329651049
605,689.3921236705147
606,689.3713065222918
607,689.3506481071762
608,689.3302175204411
609,689.3100858980864
610,689.2903258792727
611,689.2710110065012
612,689.2522150738648
613,689.2340114356384
614,689.2164722883805
615,689.1996679398399
616,689.1836660776319
617,689.1685310499938
618,689.1543231701154
619,689.1410980548407
620,689.1289060079702
621,689.1177914575173
622,689.1077924548052
623,689.0989402416271
624,689.0912588905771
625,689.0847650234034
626,689.0794676123169
627,689.0753678687281
628,689.0724592225706
629,689.070727393544
630,689.0701505535784
631,689.0706995776981
632,689.0723383784891
633,689.075024317955
634,689.0787086897277
635,689.0833372639702
636,689.0888508862813
637,689.095186120463
638,689.1022759238936
639,689.1100503442976
640,689.1184372278536
641,689.1273629299376
642,689.136753020797
643,689.1465329794129
644,689.1566288703225
645,689.1669680000881
646,689.177479551544
647,689.1880951942201
648,689.1987496684441
649,689.2093813392444
650,689.21993271516
651,689.2303509271051
652,689.2405881636557
653,689.2506020610467
654,689.2603560480395
655,689.2698196472148
656,689.2789687350073
657,689.2877857627985
658,689.2962599404649
659,689.3043873820144
660,689.3121712107799
661,689.3196216196652
662,689.3267558805726
663,689.3335982965392
664,689.3401800903677
665,689.3465392246173
666,689.3527201493632
667,689.3587734755624
668,689.3647555730437
669,689.3707280934308
670,689.376757420176
671,689.3829140502638
672,689.3892719147163
673,689.3959076476441
674,689.4028998162628
675,689.4103281267206
676,689.418272621915
677,689.4268128869229
678,689.4360272753011
679,689.4459921663407
680,689.4567812605158
681,689.4684649181523
682,689.4811095445278
683,689.4947770229454
684,689.5095241958292
685,689.5254023926957
686,689.542457003172
687,689.560727093071
688,689.5802450617973
689,689.6010363401215
690,689.6231191287766
691,689.6465041800284
692,689.6711946256902
693,689.6971858556312
694,689.7244654506576
695,689.7530131728023
696,689.782801014738
697,689.813793308625
698,689.8459468935896
699,689.8792113403041
700,689.9135292307951
701,689.948836491458
702,689.9850627768998
703,690.02213190136
704,690.0599623134051
705,690.0984676090435
706,690.1375570787256
707,690.1771362844668
708,690.2171076636929
709,690.2573711557861
710,690.2978248460837
711,690.3383656213098
712,690.3788898307291
713,690.419293948273
714,690.4594752315647
715,690.4993323737873
716,690.5387661440516
717,690.5776800117638
718,690.6159807505378
719,690.6535790174453
720,690.6903899039937
721,690.7263334562249
722,690.761335162382
723,690.7953264070784
724,690.8282448907295
725,690.8600350128299
726,690.890648217888
727,690.9200433028224
728,690.9481866833215
729,690.9750526141682
730,691.000623356407
731,691.0248892840674
732,691.0478489250291
733,691.0695089332788
734,691.0898839919844
735,691.1089966480597
736,691.1268770796153
737,691.1435627985759
738,691.159098292092
739,691.173534607917
740,691.1869288900319
741,691.1993438710314
742,691.2108473272772
743,691.2215115022163
744,691.2314125030267
745,691.2406296759219
746,691.2492449656438
747,691.2573422645658
748,691.2650067564451
749,691.2723242594537
750,691.2793805726725
751,691.2862608294138
752,691.2930488596139
753,691.2998265631131
754,691.3066732969501
755,691.3136652826707
756,691.3208750427896
757,691.3283708775929
758,691.336216393583
759,691.3444700927348
760,691.3531850278774
761,691.36240852534
762,691.3721819731454
763,691.3825406721625
764,691.3935137481059
765,691.4051241229744
766,691.4173885447459
767,691.4303176737175
768,691.4439162227853
769,691.4581831473419
770,691.4731118785987
771,691.4886905925168
772,691.5049025056484
773,691.5217261893958
774,691.5391358954678
775,691.5571018872745
776,691.5755907741114
777,691.5945658469261
778,691.613987416267
779,691.6338131544278
780,691.6539984441388
781,691.6744967350927
782,691.6952599076943
783,691.7162386416476
784,691.7373827858213
785,691.758641725248
786,691.7799647408641
787,691.8013013573709
788,691.8226016741011
789,691.8438166730576
790,691.8648984975463
791,691.8858006941466
792,691.906478410312
793,691.926888540144
794,691.9469898121814
795,691.9667428151555
796,691.986109960276
797,692.0050553817425
798,692.0235447805098
799,692.0415452191965
800,692.0590248780152
801,692.07595278301
802,692.0922985190603
803,692.1080319409369
804,692.1231228955858
805,692.1375409673691
806,692.1512552555511
807,692.1642341905565
808,692.1764453930349
809,692.1878555778613
810,692.1984305040755
811,692.2081349713354
812,692.2169328635302
813,692.224787240533
814,692.2316604793624
815,692.2375144657722
816,692.2423108362859
817,692.2460112693661
818,692.2485778233012
819,692.2499733176458
820,692.2501617544378
821,692.2491087746228
822,692.2467821437953
823,692.243152259612
824,692.2381926717004
825,692.2318806040485
826,692.2241974695087
827,692.2151293658782
828,692.204667543158
829,692.1928088322655
830,692.1795560265442
831,692.1649182086379
832,692.148911016607
833,692.1315568444932
834,692.1128849734605
835,692.0929316299597
836,692.071739967639
837,692.049359970684
838,692.0258482777875
839,692.0012679273415
840,691.9756880256086
841,691.9491833412583
842,691.9218338322434
843,691.8937241140923
844,691.8649428810719
845,691.8355822921809
846,691.8057373324824
847,691.775505158159
848,691.7449844323545
849,691.7142746586876
850,691.6834755195723
851,691.6526862264851
852,691.6220048890278
853,691.5915279091142
854,691.5613494055975
855,691.5315606728425
856,691.5022496743284
857,691.4735005700123
858,691.4453932745174
859,691.4180030423609
860,691.3914000760456
861,691.3656491527871
862,691.3408092664864
863,691.3169332837275
864,691.294067615683
865,691.2722519108648
866,691.2515187757865
867,691.231893531474
868,691.2133940136335
869,691.196030423731
870,691.1798052376905
871,691.1647131784534
872,691.150741257947
873,691.1378688926421
874,691.1260680948204
875,691.1153037393668
876,691.1055339036719
877,691.0967102757754
878,691.0887786231312
879,691.0816793119611
880,691.0753478658961
881,691.069715552716
882,691.0647099891655
883,691.0602557555858
884,691.0562750141884
885,691.0526881270141
886,691.0494142714074
887,691.0463720512479
888,691.043480101091
889,691.0406576788486
890,691.0378252417746
891,691.0349050001706
892,691.0318214424719
893,691.0285018238723
894,691.0248766092635
895,691.0208798612524
896,691.0164495656926
897,691.0115278896615
898,691.0060613692037
899,691.0000010264355
900,690.9933024182575
901,690.9859256219613
902,690.97783516562
903,690.9689999125017
904,690.9593929088609
905,690.9489912041358
906,690.9377756522142
907,690.9257307018429
908,690.9128441834104
909,690.8991070986724
910,690.8845134197143
911,690.869059903161
912,690.8527459248721
913,690.8355733389128
914,690.8175463626513
915,690.7986714877521
916,690.7789574147735
917,690.7584150070456
