acceleration,velocity,displacement
-0.04589238835575208,0.0,0.0
-0.04311271344805669,-2.2251275450952192e-05,-5.562818862738048e-09
-0.040339836023637145,-4.311441281887565e-05,-2.1904240930195012e-08
-0.03758051475792751,-6.259450051426681e-05,-4.833146926348063e-08
-0.03484143121858546,-8.069998700839505e-05,-8.41550911441461e-08
-0.032129152541824184,-9.744263294849747e-05,-1.2869074613336923e-07
-0.02945009548715308,-0.00011283744495574178,-1.8126076560942903e-07
-0.0268104922017232,-0.00012690259187796084,-2.411957748178547e-07
-0.024216357968445942,-0.00013965930442050311,-3.078362488924707e-07
-0.021673461170203766,-0.00015113175920516555,-3.8053401479888784e-07
-0.019187295663515014,-0.00016134694841359525,-4.5865369170357806e-07
-0.016763055709235086,-0.00017033453625678278,-5.415740628711726e-07
-0.014405613557882004,-0.00017812670357356206,-6.286893728287588e-07
-0.01211949974253339,-0.0001847579818986659,-7.194105441968158e-07
-0.009908886098919382,-0.0001902650783590291,-8.131663092612395e-07
-0.007777571509025321,-0.0001946866927610153,-9.094042520412506e-07
-0.0057289703480821845,-0.00019806332822529216,-1.0075917572878275e-06
-0.0037661036040678433,-0.00020043709671332968,-1.107216863522483e-06
-0.0018915926333292138,-0.00020185152077267896,-1.2077890178939852e-06
-0.00010765551279998411,-0.00020235133280921126,-1.3088397312894577e-06
0.0015838940582080933,-0.00020198227317285924,-1.4099231327849754e-06
0.0031816453704746235,-0.00020079088831568857,-1.5106164231571123e-06
0.0046845869177167335,-0.00019882433024364074,-1.6105202277969446e-06
0.006092100313304011,-0.00019613015843588554,-1.709258849966826e-06
0.007403952021861673,-0.0001927561453520941,-1.806480425913821e-06
0.008620283020868149,-0.00018875008659141165,-1.9018569838996975e-06
0.00974159651599042,-0.000184159616707197,-1.99508440972435e-06
0.010768743848645098,-0.00017903203161603813,-2.0858823218051585e-06
0.011702908752909165,-0.00017341411846564958,-2.1739938593255805e-06
0.012545590141559274,-0.00016735199374203247,-2.259185387377501e-06
0.013298583628464283,-0.00016089095029952658,-2.3412461233878905e-06
0.013963962022591397,-0.00015407531388676266,-2.419987689434463e-06
0.01454405504716836,-0.0001469483096193227,-2.4952435953109845e-06
0.015041428539311359,-0.00013955193872270278,-2.5668686573964907e-06
0.015458863372050245,-0.00013192686574486237,-2.634738358513382e-06
0.01579933431563378,-0.00012411231632294137,-2.6987481540303327e-06
0.01606598901759337,-0.00011614598548963458,-2.7588127294834767e-06
0.01626212723269701,-0.00010806395642706199,-2.814865214962651e-06
0.016391180382777766,-9.99006295231933e-05,-2.866856361450215e-06
0.016456691481670192,-9.168866155708131e-05,-2.9147536842202838e-06
0.016462295427777756,-8.345891482971933e-05,-2.958540578316984e-06
0.016411699651339085,-7.524041605994011e-05,-2.998215411039399e-06
0.01630866511109308,-6.706032486933208e-05,-3.033790596271717e-06
0.016156987665207633,-5.89439116752569e-05,-3.065291655407864e-06
0.015960479882299462,-5.091454478838013e-05,-3.0927562695237733e-06
0.01572295339105063,-4.299368647004261e-05,-3.116233327338379e-06
0.015448201876535238,-3.520089765314614e-05,-3.135781973369176e-06
0.015139984816342425,-2.7553850979926722e-05,-3.1514706605274446e-06
0.014802012022066395,-2.0068351770324517e-05,-3.1633762112150073e-06
0.014437929026255807,-1.2758366508243966e-05,-3.1715828907846496e-06
0.014051303337398218,-5.636058417330459e-06,-3.176181497016043e-06
0.013645611572786594,1.2881703102157443e-06,-3.1772684690428217e-06
0.013224227465751349,8.00563006985023e-06,-3.1749450189478052e-06
0.012790410729691259,1.4509289618710883e-05,-3.169316289025665e-06
0.012347296751362055,2.0793716488974212e-05,-3.160490537498744e-06
0.011897887083540821,2.685501244769993e-05,-3.1485783552645756e-06
0.01144504070925685,3.2690744395899346e-05,-3.1336919160536757e-06
0.010991466049445188,3.8299871085574854e-05,-3.115944262183307e-06
0.010539713682818112,4.3682666018640676e-05,-3.095448627907253e-06
0.010092169749587846,4.884063687674217e-05,-3.0723178021834074e-06
0.009651050026815775,5.3776441820843076e-05,-3.046663532509011e-06
0.009218394690648102,5.849380300020905e-05,-3.0185959713037482e-06
0.008796063809828617,6.299741762532823e-05,-2.988223166147364e-06
0.008385733636278963,6.729286698685513e-05,-2.955650594994318e-06
0.007988893769437089,7.138652383828415e-05,-2.9209807472880333e-06
0.0076068452753606025,7.528545859948358e-05,-2.8843127516785914e-06
0.007240699842729292,7.899734487900605e-05,-2.845742050808969e-06
0.006891380052390627,8.253036485278603e-05,-2.805360123376021e-06
0.006559620818325169,8.589311507046498e-05,-2.763254253395208e-06
0.006245972023525154,8.909451328092757e-05,-2.71950734630736e-06
0.00595080233293533,9.214370687004269e-05,-2.6741977912696177e-06
0.005674304130197262,9.504998348582584e-05,-2.6273993686806505e-06
0.005416499501527501,9.782268439375703e-05,-2.5791812017107548e-06
0.005177247172908491,0.00010047112106236602,-2.529607750346724e-06
0.004956250287183717,0.00010300449542738907,-2.478738846224285e-06
0.004753064886266592,0.00010543182422075165,-2.42662976631225e-06
0.0045671089521456204,0.0001077618676803547,-2.3733313433369735e-06
0.004397671868655001,0.00011000306288555486,-2.318890110695496e-06
0.004243924190728157,0.00011216346190040065,-2.2633484794990072e-06
0.004104927636898415,0.0001142506748573073,-2.2067449453095802e-06
0.0039796452454608265,0.0001162718180778971,-2.1491143220757793e-06
0.003866951654567937,0.00011823346730290429,-2.090488000730579e-06
0.003765643481184844,0.00012014161608684249,-2.030894229883142e-06
0.003674449779398551,0.00012200163940198833,-1.970358416010934e-06
0.003592042557051739,0.0001238182624861009,-1.908903440538912e-06
0.0035170473304432007,0.00012559553495797464,-1.846549991177893e-06
0.003448053705613247,0.00012733681021698874,-1.783316904884152e-06
0.0033836259889358862,0.00012904473014062603,-1.7192215197947484e-06
0.0033223138450367007,0.00013072121509911916,-1.654280033484812e-06
0.0032626630305759153,0.00013236745931802233,-1.5885078648805268e-06
0.0032032262280004926,0.00013398393163266642,-1.5219200171428545e-06
0.0031425739782217532,0.000135570381684222,-1.4545314388136324e-06
0.0030793056727917525,0.00013712585159697538,-1.3863573804933331e-06
0.0030120605281269736,0.00013864869314720506,-1.317413744307288e-06
0.0029395284365847456,0.000140136590388383,-1.247717423423391e-06
0.002860460576015159,0.00014158658764153298,-1.177286628915912e-06
0.0027736796578718467,0.00014299512270000473,-1.1061412013305277e-06
0.0026780896949115747,0.00014435806503820058,-1.0343029043959764e-06
0.0025726851652110006,0.00014567075875323123,-9.617956984481184e-07
0.0024565594398293705,0.00014692806990449132,-8.886459912836878e-07
0.0023289123334985793,0.0001481244378478233,-8.14882864345609e-07
0.0021890566402628935,0.00014925393009126368,-7.405382723608373e-07
0.0020364235341468603,0.00015031030013486611,-6.656472148043048e-07
0.0018705667469439884,0.00015128704770513883,-5.902478778443035e-07
0.0016911654746374712,0.0001521774807605342,-5.143817457278852e-07
0.0014980260026027283,0.00015297477862984425,-4.380936808802906e-07
0.0012910820695619801,0.00015367205564788543,-3.614319723108582e-07
0.0010703940093671016,0.0001542624246676177,-2.8444835223198246e-07
0.0008361467252619366,0.00015473905985127496,-2.071979811022593e-07
0.0005886465701987354,0.00015509525817514013,-1.2973940159565553e-07
0.0003283172255744239,0.0001553244991240834,-5.213446227084964e-08
5.569468158314214e-05,0.0001554205021008728,2.555178803538941e-08
-0.0002285785786426274,0.00015537728112660791,1.0325123384225959e-07
-0.0005237600997462103,0.0001551891964570107,1.8089285323816422e-07
-0.0008290146025457957,0.0001548510027814377,2.5840290304777634e-07
-0.0011434216928337894,0.0001543578937075928,3.3570512717003396e-07
-0.0014659840673834686,0.00015370554226753848,4.127209861638168e-07
-0.0017956361543608476,0.0001528901372121024,4.89369906033727e-07
-0.002131253120425859,0.0001519084148934057,5.65569544060104e-07
-0.0024716601651992485,0.00015075768657199943,6.412360694264552e-07
-0.0028156420112560787,0.0001494358610278856,7.162844563264265e-07
-0.0031619524920787913,0.00014794146240205188,7.906287871839108e-07
-0.003509324141341301,0.00014627364324369685,8.64182563595348e-07
-0.003856477690657653,0.0001444321927856971,9.368590226026964e-07
-0.004202131389407856,0.00014241754051568073,1.008571455928041e-06
-0.004545010072844912,0.00014023075515011754,1.0792335298444905e-06
-0.00488385392468961,0.0001378735391507339,1.1487596034197034e-06
-0.005217426901989031,0.00013534821894406425,1.2170650429434028e-06
-0.005544524804315152,0.0001326577310174882,1.284066530433791e-06
-0.005863982973059647,0.0001298056040731445,1.3496823642064492e-06
-0.0061746836034262545,0.00012679593742902302,1.413832749581991e-06
-0.006475562647953538,0.00012363337586617808,1.4764400779057914e-06
-0.006765616290092336,0.00012032308113166662,1.5374291921552526e-06
-0.007043906968450813,0.00011687070031703083,1.5967276375174269e-06
-0.007309568932316792,0.00011328233134183893,1.6542658954321444e-06
-0.0075618133058509415,0.000109564485782297,1.7099775997131783e-06
-0.007799932635389968,0.00010572404929698676,1.7637997334829993e-06
-0.008023304893943588,0.00010176823991465338,1.8156728057859093e-06
-0.008231396919314524,9.770456446133885e-05,1.8655410068799074e-06
-0.00842376726806973,9.354077341449278e-05,1.9133523413488653e-06
-0.008600068476533523,8.928481447834197e-05,1.959058738322074e-06
-0.00876004873053585,8.494478517657463e-05,2.0026161382358034e-06
-0.008903552954408806,8.052888475533846e-05,2.043984555718782e-06
-0.009030523332099088,7.604536568371148e-05,2.0831281183285443e-06
-0.00914099926796576,7.150248503369528e-05,2.120015081007896e-06
-0.009235116787554065,6.690845601981532e-05,2.1546178162712737e-06
-0.009313107378099823,6.227139997840185e-05,2.186912780270828e-06
-0.009375296275884673,5.759929906490573e-05,2.216880455031655e-06
-0.009422100214547195,5.289994994229776e-05,2.244505267283456e-06
-0.009454024646023847,4.8180918727155e-05,2.2697754844508196e-06
-0.009471660432121517,4.344949745761866e-05,2.292683088497013e-06
-0.009475679987606036,3.8712662352686774e-05,2.3132236284495893e-06
-0.00946683284820386,3.39770341437343e-05,2.3313960525736945e-06
-0.009445940646958315,2.9248840769943753e-05,2.347202521302114e-06
-0.009413891505632635,2.4533882731796015e-05,2.360648202177549e-06
-0.009371633873629402,1.9837501386980508e-05,2.3717410482072435e-06
-0.00932016986951854,1.5164550451193523e-05,2.380491561166787e-06
-0.009260548200533453,1.0519370933680524e-05,2.3869125415130055e-06
-0.009193856754169805,5.90576969500471e-06,2.3910188266701767e-06
-0.009121214971672266,1.3270017635441923e-06,2.3928270195348137e-06
-0.009043766119928834,-3.2142435093560823e-06,2.3923552090983606e-06
-0.008962669568469571,-7.715852431455683e-06,2.3896226851131577e-06
-0.008879093149954862,-1.2176293111061793e-05,2.384649648727528e-06
-0.008794205646755662,-1.6594617810239424e-05,2.3774569209972027e-06
-0.008709169419394543,-2.0970461576776974e-05,2.3680656511504486e-06
-0.008625133182064976,-2.5304037227141854e-05,2.356497026449469e-06
-0.00854322493184687,-2.9596126755619817e-05,2.3427719854537786e-06
-0.00846454504546973,-3.384806924994897e-05,2.3269109364523863e-06
-0.008390159569478257,-3.806174540368597e-05,2.3089334827889775e-06
-0.008321093744831207,-4.223955873226333e-05,2.28885815675499e-06
-0.008258325817717455,-4.638441362290049e-05,2.266702163666199e-06
-0.008202781186333134,-5.049969037391314e-05,2.242481137666996e-06
-0.008155326919019568,-5.458921740025131e-05,2.2162089107234546e-06
-0.008116766662356025,-5.865724079559521e-05,2.187897296174493e-06
-0.008087835948857171,-6.270839144839851e-05,2.1575558881134943e-06
-0.00806919791435972,-6.674764991420274e-05,2.125191877772844e-06
-0.008061439438397176,-7.078030925239196e-05,2.0908098879811953e-06
-0.008065067720204237,-7.481193604204231e-05,2.0544118266575865e-06
-0.008080507299428892,-7.884832979695059e-05,2.0159967601978385e-06
-0.008108097529027993,-8.289548100406481e-05,1.9755608074975844e-06
-0.008148090508191866,-8.695952801336977e-05,1.9330970552432257e-06
-0.008200649482746231,-9.10467130111043e-05,1.8885954949871072e-06
-0.008265847720605686,-9.516333731194228e-05,1.8420429824063456e-06
-0.008343667873392132,-9.931571621044174e-05,1.7934232190257495e-06
-0.00843400184052162,-0.00010351013363892018,1.7427167565634091e-06
-0.00853665115524844,-0.0001077527968878627,1.6899010239317135e-06
-0.008651327913418523,-0.00011204979165502944,1.6349503767959905e-06
-0.008777656266740586,-0.00011640703770006922,1.5778361694572159e-06
-0.008915174500309412,-0.00012083024539183173,1.5185268486842406e-06
-0.009063337702285035,-0.00012532487344248035,1.4569880689756626e-06
-0.009221521011398334,-0.0001298960881209012,1.3931828285848172e-06
-0.009389023403713939,-0.00013454872422467926,1.327071625498422e-06
-0.009565071961392228,-0.0001392872480659558,1.2586126324257632e-06
-0.00974882655161376,-0.0001441157226942073,1.1877618897357225e-06
-0.009939384830827883,-0.0001490377755398177,1.1144735151772163e-06
-0.010135787481967857,-0.00015405656861801662,1.0386999291377576e-06
-0.010337023594300504,-0.0001591747713870837,9.603920941364825e-07
-0.010542036105116823,-0.00016439453631193803,8.79499767211727e-07
-0.010749727234668953,-0.00016971747714688448,7.959717638470213e-07
-0.010958963858456879,-0.00017514464992016593,7.097562320802587e-07
-0.01116858277567742,-0.0001806765365786995,6.208009354555423e-07
-0.011377395851626441,-0.00018631303123552547,5.290535435019861e-07
-0.011584195031676544,-0.0001920534289563512,4.3446192845401696e-07
-0.011787757237413803,-0.00019789641702362378,3.3697446695902323e-07
-0.011986849158668642,-0.0002038400686226444,2.365403455474562e-07
-0.012180231954218041,-0.00020988183890086607,1.3310986866657856e-07
-0.012366665874504874,-0.0002160185633580468,2.6634768101850344e-08
-0.012544914819506908,-0.00022224645853154975,-8.29314873705488e-08
-0.012713750838027796,-0.00022856112494593344,-1.956333832399196e-07
-0.012871958560929483,-0.00023495755229567276,-3.1151305255032114e-07
-0.013018339548461816,-0.0002414301268230206,-4.306099723299945e-07
-0.013151716532323252,-0.0002479726408432169,-5.529606642465538e-07
-0.013270937551003736,-0.0002545783043640486,-6.785984005483702e-07
-0.013374880006640706,-0.0002612397587534597,-8.075529163277472e-07
-0.013462454702547788,-0.00026794909243075686,-9.398501291238013e-07
-0.013532609943500341,-0.0002746978585922689,-1.0755118668795577e-06
-0.013584335789659091,-0.0002814770950255588,-1.2145556052840146e-06
-0.013616668549974887,-0.0002882773461104673,-1.3569942155680211e-06
-0.013628695586053423,-0.0002950886871444744,-1.5028357238817566e-06
-0.013619560474017233,-0.00030190075115949205,-1.6520830834577482e-06
-0.013588468537542746,-0.00030870275841238205,-1.8047339608507167e-06
-0.013534692721739894,-0.0003154835487272027,-1.960780537635613e-06
-0.013457579730781431,-0.000322231616840333,-2.120209329027497e-06
-0.01335655630936696,-0.0003289351508503701,-2.283001020950173e-06
-0.013231135517045607,-0.00033558207380697324,-2.449130327114509e-06
-0.013080922832467961,-0.0003421600883943516,-2.61856586766484e-06
-0.012905621931595026,-0.0003486567245853674,-2.79127007090977e-06
-0.012705040000694548,-0.00035505939006843975,-2.967199099573222e-06
-0.012479092459455809,-0.00036135542318347735,-3.146302802886201e-06
-0.012227806976553183,-0.0003675321480424796,-3.3285246956926903e-06
-0.011951326664795897,-0.00037357693145281687,-3.5138019655665142e-06
-0.01164991235586109,-0.00037947724120798113,-3.7020655087317136e-06
-0.011323943879097093,-0.0003852207052667207,-3.893239995350389e-06
-0.01097392030147945,-0.00039079517131186486,-4.087243964495036e-06
-0.01060045912287062,-0.0003961887661679524,-4.28398994886499e-06
-0.01020429446024017,-0.0004013899545637301,-4.483384629047911e-06
-0.009786274288522617,-0.0004063875967509208,-4.685329016876573e-06
-0.009347356823556955,-0.0004111710045289407,-4.889718667196539e-06
-0.00888860613286207,-0.00041572999526804543,-5.096443917145785e-06
-0.008411187051350567,-0.0004200549435640986,-5.3053901518538215e-06
-0.007916359469714675,-0.0004241368301943649,-5.516438095293438e-06
-0.007405472054908696,-0.00042796728807552076,-5.729464124860909e-06
-0.006879955452951559,-0.0004315386449524858,-5.94434060811791e-06
-0.006341315012484447,-0.0004348439625688448,-6.160936259998243e-06
-0.005791123057225638,-0.0004378770720862723,-6.379116518662022e-06
-0.005231010737044472,-0.0004406326055348398,-6.5987439380673e-06
-0.004662659505194973,-0.0004431060230953997,-6.81967859522486e-06
-0.004087792294216071,-0.00044529363604525247,-7.041778510010023e-06
-0.003508164481378026,-0.000447192625239151,-7.264900075331124e-06
-0.002925554739497562,-0.00044880105504436986,-7.488898495402004e-06
-0.0023417558618884686,-0.00045011788269471635,-7.713628229836776e-06
-0.0017585656353163246,-0.00045114296306901757,-7.93894344127771e-06
-0.0011777778150867848,-0.00045187704893161836,-8.164698444277869e-06
-0.0006011732364524684,-0.00045232178669450316,-8.3907481531844e-06
-3.0511084765581635e-05,-0.00045247970777480766,-8.616948526801727e-06
0.0005324796507461607,-0.0004523542156333125,-8.843157007653757e-06
0.0010861085024408386,-0.00045194956859501574,-9.069232953710838e-06
0.001628731579380173,-0.0004512708585745605,-9.295038060503232e-06
0.0021587592953382843,-0.0004503239858558809,-9.520436771610843e-06
0.00267466371160632,-0.00044911563010414474,-9.74529667560085e-06
0.003174985444051152,-0.0004476532178152304,-9.969488887580694e-06
0.0036583401022218655,-0.0004459448864286621,-1.0192888413641668e-05
0.004123424252248125,-0.0004439994453400446,-1.0415374496583844e-05
0.004569020913805482,-0.0004418263340485312,-1.0636830941430988e-05
0.004994004605108851,-0.0004394355776688026,-1.085714641936032e-05
0.005397345939723693,-0.0004368377400325945,-1.107621474878567e-05
0.005778115765105608,-0.00043404387460638716,-1.1293935152445415e-05
0.006135488824809046,-0.0004310654734589085,-1.1510212489461739e-05
0.006468746922451685,-0.0004279144145220933,-1.172495746145699e-05
0.0067772815605506645,-0.0004246029074013427,-1.1938086791937849e-05
0.007060596023888485,-0.0004211434380052329,-1.2149523378289492e-05
0.007318306879791426,-0.0004175487122793129,-1.2359196415860628e-05
0.007550144872804494,-0.0004138315993411639,-1.2567041493765748e-05
0.007755955189174498,-0.00041000507432566917,-1.2773000662182456e-05
0.007935697053901604,-0.00040608216126490013,-1.2977022471080099e-05
0.008089442605207463,-0.00040207587635012284,-1.3179061980483854e-05
0.008217374978508558,-0.00039799917195419384,-1.3379080742559933e-05
0.00831978553438539,-0.0003938648818259703,-1.3577046756004974e-05
0.008397070186276383,-0.00038968566789580487,-1.3772934393435418e-05
0.008449724820648588,-0.00038547396914407364,-1.3966724302695388e-05
0.008478339846737779,-0.00038124195297722707,-1.4158403283225713e-05
0.00848359395452735,-0.0003770014695269108,-1.4347964138851748e-05
0.008466247191247275,-0.00037276400924046715,-1.4535405508543593e-05
0.00842713348582879,-0.00036854066407119814,-1.4720731676871508e-05
0.008367152755255729,-0.000364342092510927,-1.490395236601704e-05
0.008287262714730457,-0.00036017848864343047,-1.508508251130563e-05
0.00818847049156209,-0.00035605955534185734,-1.526414202230195e-05
0.0080718241268254,-0.00035199448168726045,-1.544115553155923e-05
0.007938404049522087,-0.0003479919246431736,-1.561615213314184e-05
0.0077893146198826846,-0.0003440599949758224,-1.5789165113046588e-05
0.007625675849416925,-0.0003402062473584975,-1.5960231673630166e-05
0.007448615408942061,-0.0003364376745439078,-1.6129392654105767e-05
0.007259261034418034,-0.0003327607054330678,-1.629669224910001e-05
0.007058733439563962,-0.0003291812068145723,-1.646217772716192e-05
0.006848139846810056,-0.0003257044884929788,-1.6625899150988807e-05
