acceleration,velocity,displacement
0.006605642603248098,0.0,0.0
0.004449605989695068,5.527624296471583e-06,2.7638121482357917e-09
0.002306572326448793,8.905713454543515e-06,9.980481023743341e-09
0.00019264417950935688,1.015532170752259e-05,1.9510998604776394e-08
-0.0018702918248092062,9.316497884872667e-06,2.9246908400974023e-08
-0.003852851559244158,6.454926192845984e-06,3.713262043983335e-08
-0.005718132021610739,1.6694344024185356e-06,4.119480073746561e-08
-0.007424037044337736,-4.901650130555702e-06,3.957869287339703e-08
-0.008928105989648724,-1.3077721647548932e-05,3.058900698434471e-08
-0.010194221345639104,-2.2638885315192845e-05,1.273070350297382e-08
-0.011199942562125744,-3.333596726907527e-05,-1.525672278916024e-08
-0.011942994289082192,-4.4907435694679244e-05,-5.43784242710375e-08
-0.012445505835089627,-5.7101685756765156e-05,-1.0538298499675971e-07
-0.012754758591803425,-6.970181797021168e-05,-1.6878473686024812e-07
-0.01293950499209301,-8.254894976215989e-05,-2.4491012072643393e-07
-0.013081605553257237,-9.555950503483502e-05,-3.339643481249314e-07
-0.013263865409310236,-0.00010873224051611876,-4.3611022090040826e-07
-0.013556262421908188,-0.00012214230443172798,-5.515474933743316e-07
-0.014003692805398765,-0.00013592228204538145,-6.805797866128864e-07
-0.01461838023793513,-0.0001502333185670484,-8.236575869191013e-07
-0.01537903389918738,-0.00016523202563560965,-9.813902590204304e-07
-0.016237042681506136,-0.0001810400639259564,-1.1545263038012135e-06
-0.017128112199449652,-0.0001977226413664343,-1.343907656447409e-06
-0.017986438990749923,-0.0002152799169615341,-1.5504089356113932e-06
-0.018758166731248808,-0.00023365221982253346,-1.774875004003427e-06
-0.019411452119556655,-0.0002527370292479362,-2.018069628538662e-06
-0.01994157679785936,-0.0002724135437066442,-2.280644915015952e-06
-0.020370692998855838,-0.0002925696786050018,-2.563136526171775e-06
-0.02074270397798746,-0.00031312637709342343,-2.8659845540209876e-06
-0.02111442791248792,-0.00033405494303866113,-3.18957521408703e-06
-0.021544615460066585,-0.00035538446472493837,-3.53429491796883e-06
-0.022082508137105383,-0.00037719802652352435,-3.900586163593061e-06
-0.022757418594350654,-0.0003996179898892524,-4.28899417179945e-06
-0.023570574861394283,-0.00042278198661712486,-4.700194160052638e-06
-0.024490475019231208,-0.0004468125115574376,-5.134991409139919e-06
-0.02545301844130272,-0.0004717842582877046,-5.594289794062491e-06
-0.026367195568271183,-0.0004976943652924915,-6.079029105852589e-06
-0.02712599311143104,-0.0005244409596323426,-6.590096768315006e-06
-0.027620886910750188,-0.0005518143996434332,-7.128224447952894e-06
-0.02775749422786844,-0.0005795035902127425,-7.693883442880983e-06
-0.027469869057195125,-0.0006071172718552743,-8.287193873914991e-06
-0.02673134757490534,-0.0006342178801713246,-8.90786144992829e-06
-0.025560545264710167,-0.0006603638265911323,-9.555152303309518e-06
-0.024021867166079076,-0.0006851550328065269,-1.0227911733008348e-05
-0.022220462710184224,-0.0007082761977446586,-1.092462734828394e-05
-0.020291927916799568,-0.0007295323930581506,-1.1643531643685344e-05
-0.01838761293953516,-0.0007488721634863179,-1.2382733921957578e-05
-0.016657325165664656,-0.0007663946325389178,-1.3140367319970196e-05
-0.015232065057323269,-0.0007823393276504117,-1.3914734300064861e-05
-0.014209570016242658,-0.0007970601451871947,-1.4704434036483665e-05
-0.013644810145787828,-0.0008109873352682099,-1.550845777671137e-05
-0.013546565295281338,-0.0008245830229887445,-1.6326242955839846e-05
-0.01388006348129773,-0.0008382963373770341,-1.7157682636022736e-05
-0.014574489762710049,-0.0008525236139990379,-1.800309261171077e-05
-0.015533332611753223,-0.0008675775251862696,-1.8863143181303425e-05
-0.0166454042033516,-0.0008836668935938221,-1.973876539069347e-05
-0.01779489574922462,-0.0009008870435701101,-2.063104235927544e-05
-0.01886962216340333,-0.0009192193025264241,-2.1541095532323706e-05
-0.019767322946145464,-0.0009385377750811986,-2.2469974071127517e-05
-0.020400313837769003,-0.0009586215934731558,-2.3418553755404695e-05
-0.020698910877492472,-0.0009791712058307865,-2.4387450155056665e-05
-0.020614019858326265,-0.0009998276711986958,-2.5376949593571407e-05
-0.020119169140143098,-0.0010201942656979305,-2.638696056201972e-05
-0.019212013117943103,-0.0010398598568269737,-2.7416987623282174e-05
-0.017915007248486266,-0.0010584233670101885,-2.8466129235200756e-05
-0.01627476689311765,-0.0010755182540809905,-2.9533100045746346e-05
-0.014359757339554831,-0.0010908355161973267,-3.0616276930885504e-05
-0.012256386403743076,-0.0011041435880689756,-3.1713766483018656e-05
-0.01006396096299417,-0.0011153037617523441,-3.2823490157929314e-05
-0.007888969015731223,-0.0011242802267417069,-3.394328215217634e-05
-0.005838778334051536,-0.0011311441004165982,-3.507099431575549e-05
-0.004014541096340287,-0.001136070760131794,-3.620460174602969e-05
-0.0025032862719086587,-0.0011393296738159185,-3.734230196300354e-05
-0.0013698256395914593,-0.0011412662297716686,-3.848259991479733e-05
-0.0006497283696915309,-0.0011422760067763102,-3.9624371033071324e-05
-0.0003447806535841267,-0.001142773261287948,-4.0766895667103455e-05
-0.00042193053518406205,-0.001143156616882332,-4.1909860606188596e-05
-0.0008159978471704588,-0.0011437755810735093,-4.305332670516652e-05
-0.001435862246518388,-0.0011449015111203538,-4.419766525126345e-05
-0.002173638481699503,-0.0011467062614844627,-4.534346913756586e-05
-0.002916195976646764,-0.001149251178713636,-4.6491447857664914e-05
-0.0035578617962578264,-0.0011524882076000883,-4.7642317550821774e-05
-0.004012441520246859,-0.0011562733592583407,-4.8796698334250986e-05
-0.004222472788265437,-0.0011603908164125969,-4.995503042208645e-05
-0.00416420959443629,-0.0011645841576039477,-5.1117517909094726e-05
-0.0038478787540270347,-0.0011685902017781794,-5.228410508878579e-05
-0.0033137395647585225,-0.001172171010937572,-5.3454485695143663e-05
-0.002625113997942719,-0.0011751404377189226,-5.462814141947191e-05
-0.0018597551971598716,-0.0011773828723164739,-5.580440307448961e-05
-0.0011007932137124428,-0.00117886314652191,-5.69825260839088e-05
-0.0004282553630111169,-0.0011796276708102718,-5.816177149257489e-05
8.80862168493727e-05,-0.0011797977553833527,-5.9341484205671706e-05
0.0003940949642346916,-0.0011795566647928107,-6.0521161415759786e-05
0.00045481008026209405,-0.0011791322122705623,-6.170050585429147e-05
0.0002563230713972965,-0.0011787766456947326,-6.287946028327412e-05
-0.00019390467780634106,-0.0011787454364979371,-6.405822132437045e-05
-0.0008684217361277165,-0.0011792765997049042,-6.523723234247188e-05
-0.0017230438986334444,-0.0011805723325222848,-6.641715680858547e-05
-0.0027018113361087994,-0.001182784760139656,-6.759883535491644e-05
-0.0037428987366395555,-0.0011860071151760302,-6.878323129257428e-05
-0.004784375651856699,-0.0011902707523702783,-6.997137022634743e-05
-0.005768817086326635,-0.00119554734873937,-7.116427927690226e-05
-0.006646155325553452,-0.0012017548349453101,-7.23629303687446e-05
-0.007374607154602566,-0.001208765216185388,-7.356819039430995e-05
-0.007920011161775698,-0.0012164125253435773,-7.478077926507444e-05
-0.008254413014710771,-0.0012244997374318205,-7.600123539646214e-05
-0.008354935218841876,-0.0012328044115485967,-7.722988747095235e-05
-0.0082036573203615,-0.0012410837078181984,-7.846683153063575e-05
-0.0077885803764280006,-0.0012490798266665932,-7.971191329787814e-05
-0.007105155686837712,-0.001256526694698226,-8.096471655856055e-05
-0.006157666910992861,-0.0012631581059971413,-8.222455895890824e-05
-0.004960012534028503,-0.001268716945719652,-8.349049648476664e-05
-0.003535868257338516,-0.0012729648861153355,-8.476133740068414e-05
-0.0019184927025043242,-0.001275692066595257,-8.603566587703945e-05
-0.00015048006282279732,-0.0012767265529779206,-8.731187518682604e-05
0.0017163137917928597,-0.0012759436361134354,-8.858821028137171e-05
0.0036205633853002464,-0.001273275197524889,-8.986281969819088e-05
0.0054911647897252355,-0.0012687193334373762,-9.113381696367202e-05
0.007247521262297878,-0.0012623499904113647,-9.239935162559639e-05
0.008801505706142685,-0.0012543254769271444,-9.365768935926565e-05
0.010061950535489802,-0.001244893748806328,-9.490729897213239e-05
0.010941664663911013,-0.0012343919412066277,-9.614694181713887e-05
0.01136608935932379,-0.0012232380641950102,-9.737575681983969e-05
0.011282291062806834,-0.001211913873983945,-9.859333278892917e-05
0.010666989407691452,-0.0012009392337486958,-9.97997593427955e-05
0.009532418841100494,-0.0011908395296242999,-0.00010099564872448199
0.007928986945674498,-0.0011821088267309123,-0.0001021821229026596
0.005944090809346621,-0.0011751722878534019,-0.00010336076345995175
0.0036970508110315027,-0.0011703517170432128,-0.00010453352546240006
0.0013306768107259105,-0.001167837853232334,-0.00010570262024753783
-0.0009996351685968394,-0.0011676723324112695,-0.00010687037534035963
-0.0031381250585555236,-0.0011697412125248458,-0.00010803908211282769
-0.004940910535290136,-0.0011737807303217687,-0.00010921084308425099
-0.006286970111543765,-0.0011793946706451857,-0.00011038743078473448
-0.007086863923773802,-0.0011860815876628445,-0.0001115701689138885
-0.0072886774999892075,-0.001193269358374726,-0.00011275984438690729
-0.006881136693151457,-0.0012003542654712963,-0.0001139566561988303
-0.005894024908940287,-0.001206741846272342,-0.00011516020425470213
-0.004395955142770771,-0.0012118868362981975,-0.0001163695185959874
-0.0024895357542249496,-0.0012153295817466953,-0.00011758312680500984
-0.0003043198654489239,-0.0012167265095565322,-0.00011879915485066145
0.0020115295439151084,-0.0012158729047172991,-0.00012001545455779837
0.0042997733430721755,-0.0012127172532738054,-0.00012122974963679392
0.006400228818945371,-0.0012073672521927966,-0.00012243979188952722
0.00815854215051187,-0.001200087866708068,-0.00012364351944897764
0.00943388590214397,-0.0011912916526817402,-0.00012483920920867254
0.010106793587745846,-0.0011815213129367952,-0.0001260256156914818
0.01008727743065832,-0.0011714242774275932,-0.000127202088486664
0.009323218466299467,-0.0011617190294791143,-0.00012836866014011734
0.007808490931422052,-0.0011531531747802535,-0.000129526096242247
0.005589555087832211,-0.0011464541517706263,-0.00013067589990552246
0.0027688579881383186,-0.001142274945232641,-0.0001318202644540241
-0.0004964102936819215,-0.0011411387213854129,-0.00013296197128733313
-0.004001060877137891,-0.0011433874569708228,-0.00013410423437651124
-0.007504316933336774,-0.00114914014587606,-0.00013525049817793468
-0.010747320262454674,-0.0011582659644739557,-0.00013640420123310967
-0.013474344553005523,-0.0011703767968816857,-0.0001375685226137875
-0.015455569848456833,-0.001184841754082417,-0.00013874613188926956
-0.016508841993554364,-0.0012008239600034226,-0.00013993896474631247
-0.01651793557768122,-0.0012173373487890404,-0.0001411480454007087
-0.015445431361044152,-0.001233319032258403,-0.0001423733735912324
-0.013339068211428185,-0.0012477112820446393,-0.00014361388874838392
-0.010330948524367459,-0.0012595462904125372,-0.00014486751753461252
-0.006629263390332993,-0.0012680263963698874,-0.00014613130387800373
-0.0025025691309463354,-0.001272592312630527,-0.00014740161323250394
0.0017426833792502099,-0.0012729722555063752,-0.00014867439551657238
0.00578963032001339,-0.0012692060986567433,-0.00014994548469365393
0.009340510344403028,-0.0012616410283245352,-0.00015121090825714458
0.012144360300822115,-0.0012508985930019226,-0.0001524671780678078
0.014019156736294522,-0.0012378168344833642,-0.00015371153578155045
0.014865785979345736,-0.0012233743631255441,-0.0001549421313803549
0.01467275837035626,-0.0012086050909506931,-0.000156158121107393
0.013512009076393529,-0.0011945127072273182,-0.000157359680006482
0.01152724911272739,-0.0011819930781327577,-0.00015854793289916204
0.008917055072226452,-0.0011717709260402808,-0.00015972481490124856
0.005915122868551644,-0.0011643548370698917,-0.00016089287778280365
0.002769879960895517,-0.0011600123356551681,-0.00016205506136916618
-0.00027485504400388084,-0.0011587648231967222,-0.00016321444994859212
-0.002997026006312909,-0.0011604007637218807,-0.00016437403274205143
-0.005210638162626204,-0.0011645045958063502,-0.00016553648542181555
-0.0067768675152046695,-0.0011704983486452657,-0.00016670398689404135
-0.007611775752876907,-0.0011776926702793066,-0.00016787808240350364
-0.007690397493697807,-0.001185343756902594,-0.0001690596006170946
-0.007046976335248696,-0.0011927124438170672,-0.00017024862871745444
-0.005771284653127276,-0.001199121574311255,-0.00017144454572651862
-0.004001142238202303,-0.0012040077877569198,-0.00017264611040755272
-0.0019113356582195205,-0.0012069640267051308,-0.00017385159631478375
0.0003007157444886249,-0.0012077693366619963,-0.0001750589629964673
0.0024317885509292036,-0.0012064030845142873,-0.00017626604920705546
0.0042907969107478655,-0.0012030417917834487,-0.00017747077164520432
0.005715914274099798,-0.001198038436191025,-0.00017867131175919155
0.006588723618607772,-0.001191886117244671,-0.0001798662740359094
0.006843501015632436,-0.001185170004927551,-0.0001810548020969955
0.006470470122751609,-0.0011785130193583588,-0.00018223664360913846
0.005512891541169025,-0.0011725213385263985,-0.00018341216078808083
0.0040588889452960845,-0.0011677354482831658,-0.00018458228918148562
0.0022297448104301545,-0.0011645911314053026,-0.00018574845247132986
0.0001668809312975878,-0.0011633928185344389,-0.00018691244444629974
-0.001980293114787049,-0.0011642995246261836,-0.00018807629061788004
-0.004064159333066213,-0.0011673217508501102,-0.00018924210125561818
-0.005945930010092261,-0.0011723267955216893,-0.00019041192552880407
-0.0075006058220891195,-0.00117905006343778,-0.0001915876139582838
-0.008620989675023928,-0.0011871108611863366,-0.00019277069442059585
-0.009221810634673262,-0.001196032261341185,-0.0001939622659818596
-0.009244501596246468,-0.001205265417456645,-0.0001951629148212585
-0.008662354048023277,-0.00121421884527878,-0.00019637265695262622
-0.007485002895122273,-0.0012222925237503526,-0.00019759091263714078
-0.005760948151623877,-0.0012289154992737256,-0.00019881651664865283
-0.0035771705486623,-0.0012335845586238688,-0.00020004776667760163
-0.0010553917656008992,-0.0012359008397810004,-0.00020128250937680406
0.0016552469610978337,-0.001235600912183252,-0.00020251826025278617
0.004389167990829078,-0.0012325787047072886,-0.00020375235006123144
0.006978540912729028,-0.0012268948502555095,-0.00020498208683871283
0.009269294474056698,-0.0012187709325621166,-0.00020620491973012163
0.01113676332509997,-0.0012085679036625383,-0.00020741858914823395
0.012498325388088564,-0.001196750359305944,-0.0002086212482797182
0.013320459488279625,-0.00118384096686776,-0.00020981154394280504
0.013618558003381066,-0.0011703714581219296,-0.00021098865015529988
0.013449578462719878,-0.0011568373898888792,-0.0002121522545793053
0.012899514606865801,-0.0011436628433540864,-0.00021330250469592677
0.01206883283210253,-0.0011311786696346022,-0.00021443992545242113
0.011059106340845042,-0.0011196147000481283,-0.0002155653221372625
0.009963270864423038,-0.0011091035114454942,-0.00021667968124300933
0.008860580586069014,-0.0010996915857202482,-0.0002177840787915922
0.007815875515187405,-0.00109135335766962,-0.00021887960126328713
0.006881657394775632,-0.0010840045912146386,-0.00021996728023772927
0.006101030107962292,-0.0010775132474632697,-0.00022104803915706821
0.005509743319141196,-0.001071707860749718,-0.0002221226497111747
0.005136160280601183,-0.0010663849089498467,-0.0002231916960960245
0.004998837073179602,-0.0010613174102729562,-0.00022425554725563588
0.005102398951342214,-0.0010562667922606953,-0.00022531433935690272
0.005433133413119703,-0.0010509990260784644,-0.0002263679722660723
0.00595586029501979,-0.0010453045292243947,-0.00022741612404372373
0.006613315932441307,-0.0010390199411106642,-0.00022845828627889126
0.007328850066298337,-0.0010320488581112943,-0.00022949382067850223
0.008012755971830265,-0.00102437805509223,-0.000230522034135104
0.008571868526840784,-0.0010160857428428945,-0.00023154226603407156
0.008921174989762845,-0.0010073392210845928,-0.0002325539785160353
0.008995422625188449,-0.0009983809222771172,-0.00023355683858771614
0.008758480616380453,-0.0009895039706563327,-0.00023455078103418287
0.008208635556331768,-0.0009810204125699766,-0.00023553604322579602
0.007378848153301282,-0.0009732266707151602,-0.00023651316676743858
0.006332000488616579,-0.0009663712463942012,-0.00023748296572599327
0.005152143799461214,-0.0009606291742501623,-0.00023844646593631545
0.003933515516797532,-0.000956086344592033,-0.00023940482369573654
0.002769373773408579,-0.0009527348999469299,-0.00024035923431800602
0.0017423752206703724,-0.0009504790254498904,-0.00024131084128070442
0.0009174787727433037,-0.0009491490984531836,-0.00024226065534265596
0.0003375915090206341,-0.0009485215633123017,-0.0002432094906735387
2.1692779575757245e-05,-0.0009483419211680034,-0.00024415792241577885
-3.4970916497968553e-05,-0.0009483485602364645,-0.0002451062676564811
0.00014107689837652325,-0.0009482955072455252,-0.0002460545896902221
0.0005051863547359383,-0.000947972375618969,-0.00024700272363165434
0.0009999026828263807,-0.0009472198311001879,-0.00024795031973501395
0.0015616901728230969,-0.0009459390346723632,-0.0002488968991679002
0.0021282424756660047,-0.0009440940683481186,-0.00024984191571941045
0.002645146238857275,-0.000941707373990857,-0.00025078481644057995
0.0030707170679318673,-0.0009388494423374624,-0.0002517250948487441
0.0033783829025928022,-0.0009356248923522001,-0.00025266233201608895
0.0035567855565874443,-0.00093215730812261,-0.00025359622311632633
0.0036083895507028627,-0.0009285747205689648,-0.0002545265891306721
0.0035474778167512854,-0.0009249967868852377,-0.00025545337488439923
0.0033979489952635777,-0.0009215240734792303,-0.0002563766353145815
0.0031906995391894396,-0.0009182297492120038,-0.0002572965122259271
0.002960095580301936,-0.000915154351652258,-0.00025821320427635926
0.0027393260762282588,-0.0009123046408239929,-0.00025912693377259737
0.0025550787072714295,-0.000909657438432243,-0.0002600379148122255
0.0024226368239446366,-0.000907168580666635,-0.00026094632782177495
0.0023428544836886344,-0.0009047858350128183,-0.00026185230502961466
0.002302280760231932,-0.000902463267390858,-0.0002627559295808165
0.0022768564128705262,-0.0009001736988043067,-0.00026365724806391407
0.0022383345396510203,-0.000897916103328046,-0.00026455629296498023
0.002161517705027144,-0.0008957161772057069,-0.0002654531091052471
0.0020301900484687237,-0.0008936203233289589,-0.00026634777735551443
0.0018403420435268542,-0.0008916850572829611,-0.0002672404300458204
0.0016003881389969308,-0.0008899646921916992,-0.0002681312549205577
0.0013288967522534726,-0.000888500049746074,-0.0002690204872915266
0.0010506456057976952,-0.0008873102785670484,-0.00026990839245568315
0.0007917776326916707,-0.0008863890669478038,-0.00027079524212844056
0.000574782094212669,-0.0008857057870843516,-0.0002716812895554566
0.0004141423071326336,-0.0008852113248836789,-0.00027256674811144065
0.00031366394249981473,-0.0008848474217588627,-0.0002734517774847619
0.00026638389947651885,-0.0008845573978378745,-0.0002743364798945603
0.0002573646787780156,-0.0008842955235487472,-0.0002752209063552536
0.00026886065417681347,-0.0008840324108822698,-0.0002761050703224691
0.00028674237721837057,-0.0008837546093665722,-0.00027698896383259353
0.0003068044264870475,-0.0008834578359647195,-0.00027787257005525915
0.00033952165082481626,-0.0008831346729260636,-0.0002787558663097045
0.0004119908514760979,-0.000882758916674913,-0.000279638813104505
0.0005663296630654832,-0.0008822697564176423,-0.0002805213274410513
0.0008545531302861704,-0.0008815593150209664,-0.0002814032419767706
0.0013306507050828747,-0.0008804667131032819,-0.0002822842549908327
0.0020412097028942476,-0.0008787807828992934,-0.000283163878738834
