frame_number,force
0,734.571350006325
1,734.4929749967471
2,734.414877833609
3,734.3373342160689
4,734.2606155808127
5,734.1849870489988
6,734.1107054615244
7,734.0380175240441
8,733.9671580789163
9,733.8983485182405
10,733.8317953500449
11,733.7676889277191
12,733.7062023506442
13,733.6474905417471
14,733.591689505385
15,733.538915766507
16,733.4892659897733
17,733.4428167758031
18,733.3996246309467
19,733.3597261061951
20,733.3231380993365
21,733.2898583122445
22,733.2598658525993
23,733.2331219669397
24,733.20957089034
25,733.1891407974233
26,733.1717448394755
27,733.1572822527042
28,733.1456395233328
29,733.1366915964078
30,733.130303116653
31,733.1263296909984
32,733.1246191635018
33,733.1250128945212
34,733.1273470374723
35,733.1314538080361
36,733.1371627415982
37,733.1443019344638
38,733.1526992631409
39,733.1621835745309
40,733.1725858390191
41,733.1837402584617
42,733.1954853217426
43,733.2076648016455
44,733.2201286878453
45,733.2327340515681
46,733.2453458381748
47,733.2578375851732
48,733.270092064922
49,733.2820018528092
50,733.2934698223764
51,733.3044095688131
52,733.3147457618064
53,733.3244144282304
54,733.3333631648076
55,733.3415512806228
56,733.348949868941
57,733.355541807192
58,733.3613216835112
59,733.3662956480673
60,733.3704811875109
61,733.3739068213405
62,733.3766117203063
63,733.3786452493214
64,733.3800664399055
65,733.3809433986212
66,733.3813526579447
67,733.3813784754758
68,733.3811120870674
69,733.3806509190946
70,733.38009776416
71,733.3795599231623
72,733.3791483154847
73,733.3789765588299
74,733.3791600212332
75,733.3798148497675
76,733.3810569827567
77,733.3830011542854
78,733.3857599011338
79,733.3894425830349
80,733.3941544273354
81,733.39999560889
82,733.4070603756686
83,733.4154362303594
84,733.4252031779074
85,733.436433047956
86,733.4491888994761
87,733.4635245129392
88,733.4794839740473
89,733.4971013526034
90,733.516400480126
91,733.537394829529
92,733.560087499381
93,733.5844713039721
94,733.6105289685618
95,733.6382334267352
96,733.6675482141204
97,733.6984279502535
98,733.7308188984177
99,733.7646595919568
100,733.7998815150362
101,733.836409826241
102,733.8741641147896
103,733.9130591810286
104,733.9530058343253
105,733.993911701788
106,734.0356820407753
107,734.0782205477205
108,734.1214301557809
109,734.1652138140032
110,734.2094752410491
111,734.2541196472451
112,734.2990544196732
113,734.3441897656114
114,734.389439309553
115,734.4347206386996
116,734.4799557918777
117,734.5250716873013
118,734.5700004851342
119,734.6146798812769
120,734.6590533291535
121,734.7030701865092
122,734.7466857846385
123,734.7898614184601
124,734.8325642573237
125,734.8747671780138
126,734.9164485228521
127,734.9575917870043
128,734.9981852400035
129,735.0382214874938
130,735.0776969807216
131,735.1166114831381
132,735.1549675047766
133,735.1927697154483
134,735.2300243479289
135,735.266738603027
136,735.3029200694507
137,735.3385761714865
138,735.3737136559148
139,735.4083381268402
140,735.4424536345474
141,735.4760623229965
142,735.5091641399309
143,735.5417566129062
144,735.5738346932843
145,735.6053906683911
146,735.6364141400636
147,735.666892066192
148,735.6968088608465
149,735.726146548276
150,735.754884966371
151,735.7830020155758
152,735.8104739489158
153,735.837275697718
154,735.8633812264956
155,735.888763909896
156,735.9133969242667
157,735.9372536459636
158,735.9603080484142
159,735.9825350907171
160,736.00391109218
161,736.024414089056
162,736.0440241712371
163,736.0627237977133
164,736.0804980902858
165,736.0973351054166
166,736.113226084399
167,736.1281656824774
168,736.1421521779705
169,736.1551876623356
170,736.1672782110701
171,736.178434033623
172,736.1886695989444
173,736.1980037326567
174,736.2064596818878
175,736.2140651437675
176,736.2208522531743
177,736.2268575250713
178,736.2321217474155
179,736.2366898222456
180,736.2406105545322
181,736.2439363898769
182,736.2467231029166
183,736.249029438859
184,736.2509167118603
185,736.2524483662562
186,736.2536895093402
187,736.2547064264547
188,736.2555660900778
189,736.2563356744131
190,736.2570820859752
191,736.2578715191513
192,736.258769044048
193,736.2598382323496
194,736.2611408254357
195,736.2627364474312
196,736.2646823641333
197,736.2670332870375
198,736.2698412200884
199,736.2731553453225
200,736.2770219423044
201,736.2814843354693
202,736.2865828633579
203,736.2923548640678
204,736.29883467183
205,736.3060536206666
206,736.3140400525915
207,736.3228193290756
208,736.3324138447878
209,736.3428430423024
210,736.3541234262821
211,736.3662685757871
212,736.3792891537207
213,736.3931929132069
214,736.4079847020249
215,736.4236664674705
216,736.4402372643281
217,736.4576932678058
218,736.4760277918793
219,736.4952313121945
220,736.5152914918805
221,736.5361932083232
222,736.5579185790117
223,736.5804469851097
224,736.6037550926363
225,736.6278168728164
226,736.6526036245689
227,736.6780840027088
228,736.7042240551606
229,736.7309872715713
230,736.7583346447907
231,736.78622474636
232,736.8146138174005
233,736.8434558764704
234,736.8727028455054
235,736.9023046938547
236,736.9322095991342
237,736.9623641227213
238,736.9927133973213
239,737.0232013239684
240,737.0537707760188
241,737.0843638080577
242,737.1149218677476
243,737.1453860081623
244,737.1756970972978
245,737.2057960208372
246,737.2356238742373
247,737.2651221408654
248,737.2942328540997
249,737.3228987428085
250,737.3510633611656
251,737.3786712049925
252,737.4056678175097
253,737.4319998876331
254,737.4576153440619
255,737.4824634485473
256,737.5064948918243
257,737.5296618955397
258,737.5519183229087
259,737.5732197997178
260,737.5935238460003
261,737.6127900175562
262,737.6309800551102
263,737.6480580368143
264,737.6639905272704
265,737.6787467143191
266,737.692298524524
267,737.7046207099165
268,737.7156909017276
269,737.7254896301645
270,737.7340003112982
271,737.741209202406
272,737.7471053268138
273,737.7516803696788
274,737.754928547142
275,737.7568464518187
276,737.7574328770341
277,737.7566886211274
278,737.754616272605
279,737.7512199774743
280,737.7465051913589
281,737.740478420333
282,737.7331469553634
283,737.7245186055775
284,737.7146014350544
285,737.7034035065641
286,737.6909326345091
287,737.6771961492497
288,737.6622006761138
289,737.645951933766
290,737.6284545573309
291,737.6097119518141
292,737.5897261814644
293,737.5684979006561
294,737.5460263310154
295,737.5223092877385
296,737.497343255871
297,737.4711235150597
298,737.4436443089066
299,737.4148990526096
300,737.3848805702911
301,737.3535813515755
302,737.3209938161325
303,737.2871105756299
304,737.2519246846431
305,737.2154298746594
306,737.1776207674758
307,737.1384930657998
308,737.0980437200714
309,737.0562710718303
310,737.0131749754173
311,736.9687569012168
312,736.9230200248037
313,736.8759693068906
314,736.8276115686594
315,736.7779555661114
316,736.7270120659658
317,736.6747939244397
318,736.6213161686342
319,736.566596078257
320,736.5106532636103
321,736.4535097348542
322,736.3951899578226
323,736.3357208931318
324,736.2751320176903
325,736.213455330353
326,736.1507253456211
327,736.086979080452
328,736.0222560390416
329,735.9565981988254
330,735.8900499984891
331,735.8226583266731
332,735.7544725090415
333,735.685544290993
334,735.6159278124485
335,735.5456795695678
336,735.4748583569083
337,735.4035251835606
338,735.331743158381
339,735.259577341766
340,735.1870945635858
341,735.1143632085633
342,735.041452971712
343,734.9684345874531
344,734.8953795366115
345,734.8223597357356
346,734.7494472132896
347,734.6767137770877
348,734.6042306765385
349,734.5320682620373
350,734.460295642936
351,734.388980345521
352,734.3181879731686
353,734.2479818717744
354,734.1784228043753
355,734.1095686396934
356,734.0414740603952
357,733.9741902981948
358,733.9077649037679
359,733.842241558763
360,733.7776599347404
361,733.7140556004274
362,733.6514599753838
363,733.5899003258758
364,733.5293997977394
365,733.4699774809698
366,733.4116485012521
367,733.354424134525
368,733.298311941885
369,733.2433159232587
370,733.1894366884887
371,733.1366716435075
372,733.0850151878681
373,733.0344589192196
374,732.9849918407842
375,732.9366005691386
376,732.8892695409918
377,732.8429812184808
378,732.7977162923527
379,732.7534538816451
380,732.7101717279666
381,732.6678463825635
382,732.6264533844259
383,732.58596742721
384,732.5463625122657
385,732.507612085499
386,732.4696891574407
387,732.4325664079801
388,732.3962162789047
389,732.360611058488
390,732.3257229633062
391,732.2915242233455
392,732.2579871767117
393,732.225084379409
394,732.1927887339139
395,732.161073638501
396,732.1299131583178
397,732.0992822192569
398,732.0691568261578
399,732.0395143069837
400,732.0103335839793
401,731.981595471421
402,731.9532829975277
403,731.9253817456663
404,731.8978802075741
405,731.8707701393746
406,731.8440469099664
407,731.8177098310731
408,731.7917624586479
409,731.7662128559425
410,731.7410738090414
411,731.7163629863602
412,731.6921030351274
413,731.6683216102823
414,731.6450513338472
415,731.6223296848794
416,731.6001988214666
417,731.5787053372253
418,731.557899955603
419,731.5378371659192
420,731.5185748056205
421,731.5001735938384
422,731.482696622001
423,731.4662088078549
424,731.4507763197445
425,731.4364659783081
426,731.4233446427867
427,731.4114785886899
428,731.4009328826256
429,731.3917707591891
430,731.3840530046413
431,731.3778373528248
432,731.3731778997982
433,731.3701245443572
434,731.3687224616571
435,731.3690116164879
436,731.3710263213135
437,731.374794841977
438,731.3803390514888
439,731.3876741303346
440,731.3968083107846
441,731.4077426627655
442,731.4204709196931
443,731.4349793439088
444,731.4512466327656
445,731.4692438679244
446,731.4889345120057
447,731.5102744580488
448,731.5332121377303
449,731.5576886935355
450,731.5836382180789
451,731.6109880610071
452,731.6396592011246
453,731.6695666790022
454,731.7006200834762
455,731.7327240842525
456,731.7657790024143
457,731.7996814107986
458,731.8343247564483
459,731.8695999973718
460,731.9053962458278
461,731.9416014106189
462,731.9781028312876
463,732.014787897261
464,732.0515446450672
465,732.0882623274612
466,732.1248319496707
467,732.1611467691662
468,732.1971027559919
469,732.2325990114128
470,732.2675381439713
471,732.3018266034871
472,732.3353749743087
473,732.3680982293281
474,732.3999159466546
475,732.4307524915009
476,732.4605371661925
477,732.4892043307103
478,732.5166934948704
479,732.5429493816422
480,732.5679219599153
481,732.5915664447703
482,732.6138432641822
483,732.6347179929602
484,732.6541612571211
485,732.6721486141943
486,732.6886604166662
487,732.7036816666028
488,732.7172018692557
489,732.7292148922588
490,732.7397188354223
491,732.7487159146284
492,732.7562123619792
493,732.7622183429693
494,732.7667478901066
495,732.7698188513585
496,732.7714528513193
497,732.7716752631108
498,732.7705151893301
499,732.7680054502699
500,732.7641825769025
501,732.7590868049798
502,732.7527620656987
503,732.7452559682285
504,732.7366197697601
505,732.72690832896
506,732.7161800387511
507,732.7044967347058
508,732.6919235763438
509,732.6785289000612
510,732.66438404385
511,732.6495631447924
512,732.634142910301
513,732.6182023636314
514,732.6018225639395
515,732.5850863011872
516,732.5680777663232
517,732.5508821974189
518,732.5335855030875
519,732.5162738654966
520,732.4990333261757
521,732.4819493583781
522,732.4651064302874
523,732.4485875641496
524,732.4324738971065
525,732.4168442494063
526,732.401774704801
527,732.387338207115
528,732.3736041766955
529,732.3606381503081
530,732.3485014473824
531,732.3372508644758
532,732.3269383990984
533,732.3176110041117
534,732.3093103747003
535,732.3020727709854
536,732.2959288800295
537,732.2909037206789
538,732.2870165935647
539,732.2842810773182
540,732.2827050709403
541,732.2822908808681
542,732.2830353494578
543,732.2849300198095
544,732.2879613305502
545,732.2921108334177
546,732.2973554263883
547,732.3036675960146
548,732.3110156643908
549,732.319364037835
550,732.3286734553159
551,732.3389012350733
552,732.3500015183206
553,732.361925509323
554,732.3746217112667
555,732.38803615738
556,732.4021126372113
557,732.4167929185613
558,732.4320169657286
559,732.4477231546107
560,732.4638484855009
561,732.4803287953845
562,732.4970989728131
563,732.5140931796494
564,732.5312450848742
565,732.5484881160329
566,732.5657557337004
567,732.582981733574
568,732.600100579496
569,732.6170477689848
570,732.6337602308827
571,732.6501767525351
572,732.6662384316473
573,732.6818891460116
574,732.6970760329359
575,732.711749969372
576,732.7258660432249
577,732.7393840060856
578,732.7522686976685
579,732.7644904324121
580,732.7760253388645
581,732.7868556427627
582,732.7969698856651
583,732.8063630730153
584,732.8150367483863
585,732.8229989936181
586,732.8302643568559
587,732.8368537120341
588,732.8427940546048
589,732.8481182397674
590,732.8528646707326
591,732.857076944822
592,732.8608034641879
593,732.8640970164914
594,732.8670143300237
595,732.8696156077575
596,732.8719640450128
597,732.8741253351347
598,732.8761671666089
599,732.8781587138335
600,732.8801701229272
601,732.8822719936087
602,732.8845348581453
603,732.8870286585912
604,732.889822224109
605,732.8929827509951
606,732.8965752888206
607,732.9006622365386
608,732.9053028523917
609,732.910552781427
610,732.9164636049883
611,732.9230824176925
612,732.9304514382592
613,732.938607660419
614,732.9475825490464
615,732.9574017852713
616,732.9680850630633
617,732.9796459388529
618,732.992091735316
619,733.0054235003815
620,733.0196360222571
621,733.0347179003644
622,733.0506516705535
623,733.0674139811081
624,733.0849758142971
625,733.1033027471614
626,733.1223552452084
627,733.1420889836037
628,733.1624551917831
629,733.1834010185468
630,733.2048699151235
631,733.2268020332455
632,733.2491346343692
633,733.2718025056146
634,733.2947383783153
635,733.3178733461739
636,733.3411372814411
637,733.364459248808
638,733.3877679175048
639,733.4109919723905
640,733.43406052481
641,733.4569035237814
642,733.4794521675769
643,733.5016393148828
644,733.5233998936626
645,733.5446713048285
646,733.5653938170367
647,733.5855109483059
648,733.6049698295923
649,733.6237215450589
650,733.6417214439355
651,733.6589294197449
652,733.6753101540218
653,733.6908333230349
654,733.7054737672051
655,733.7192116238498
656,733.7320324245688
657,733.7439271589999
658,733.7548923068003
659,733.7649298395963
660,733.7740471944286
661,733.7822572202272
662,733.7895780990361
663,733.7960332435894
664,733.8016511720231
665,733.8064653593659
666,733.8105140646488
667,733.8138401321219
668,733.8164907646856
669,733.8185172671218
670,733.8199747564353
671,733.8209218369287
672,733.8214202385267
673,733.8215344182397
674,733.8213311265832
675,733.8208789432784
676,733.8202477893553
677,733.8195084248958
678,733.8187319421638
679,733.8179892628042
680,733.8173506461002
681,733.8168852138815
682,733.8166604967143
683,733.8167420050612
684,733.8171928277569
685,733.8180732584932
686,733.8194404495192
687,733.8213480909441
688,733.8238461140068
689,733.8269804172248
690,733.8307926151653
691,733.8353198104735
692,733.8405943904487
693,733.846643849637
694,733.8534906398382
695,733.8611520490347
696,733.8696401113177
697,733.8789615509622
698,733.8891177651268
699,733.9001048505127
700,733.9119136788618
701,733.9245300244744
702,733.9379347449571
703,733.9521040150886
704,733.9670096129463
705,733.9826192565572
706,733.9988969879892
707,734.0158036003804
708,734.0332971023508
709,734.0513332135155
710,734.0698658842261
711,734.088847832062
712,734.1082310869182
713,734.1279675358461
714,734.1480094581121
715,734.1683100402331
716,734.1888238603026
717,734.2095073313017
718,734.2303190944249
719,734.2512203552061
720,734.2721751567003
721,734.2931505849941
722,734.3141169033626
723,734.335047612971
724,734.3559194399372
725,734.3767122501858
726,734.3974088945789
727,734.4179949875631
728,734.4384586235211
729,734.4587900363271
730,734.4789812089857
731,734.4990254410703
732,734.5189168817587
733,734.5386500360817
734,734.5582192522378
735,734.5776181986239
736,734.5968393402051
737,734.6158734248243
738,734.6347089911873
739,734.6533319114126
740,734.6717249814457
741,734.689867571696
742,734.7077353480074
743,734.7253000701216
744,734.7425294717476
745,734.7593872235144
746,734.7758329776856
747,734.7918224918011
748,734.80730782736
749,734.822237618775
750,734.8365574066257
751,734.850210027738
752,734.8631360532106
753,734.8752742646104
754,734.8865621584115
755,734.8969364693567
756,734.9063337044458
757,734.9146906804383
758,734.921945058944
759,734.9280358742295
760,734.9329040495159
761,734.9364928977546
762,734.938748603056
763,734.9396206793863
764,734.9390624034412
765,734.9370312182162
766,734.9334891029735
767,734.9284029047177
768,734.921744626556
769,734.9134916696574
770,734.9036270275647
771,734.8921394333715
772,734.8790234611503
773,734.8642795830384
774,734.8479141829337
775,734.829939527122
776,734.8103736917924
777,734.7892404476447
778,734.7665691026982
779,734.7423943055875
780,734.7167558126762
781,734.6896982232444
782,734.6612706881466
783,734.6315265986835
784,734.6005232632758
785,734.5683215790842
786,734.5349857039778
787,734.5005827322518
788,734.465182376446
789,734.4288566578027
790,734.3916796084229
791,734.3537269879582
792,734.315076016445
793,734.275805123275
794,734.2359937110785
795,734.195721932836
796,734.155070480613
797,734.1141203844339
798,734.0729528197134
799,734.0316489215174
800,733.9902896037581
801,733.9489553807608
802,733.9077261872984
803,733.8666811920201
804,733.8258985995361
805,733.7854554385976
806,733.7454273367997
807,733.7058882846908
808,733.6669103935094
809,733.6285636511838
810,733.5909156810042
811,733.5540315066218
812,733.5179733259884
813,733.4828002960578
814,733.4485683298933
815,733.4153299079592
816,733.3831339052289
817,733.3520254352389
818,733.3220457117995
819,733.2932319290796
820,733.2656171610148
821,733.2392302810947
822,733.2140959036711
823,733.190234348365
824,733.1676616298131
825,733.1463894753316
826,733.126425372861
827,733.1077726511711
828,733.0904305942885
829,733.0743945925949
830,733.0596563333347
831,733.0462040324539
832,733.0340227077509
833,733.0230944909732
834,733.0133989742087
835,733.0049135837702
836,732.9976139731456
837,732.9914744259343
838,732.986468259984
839,732.9825682246591
840,732.9797468840608
841,732.9779769802639
842,732.9772317723254
843,732.9774853486158
844,732.9787129114894
845,732.9808910343147
846,732.9839978914684
847,732.9880134618753
848,732.9929197060046
849,732.9987007153007
850,733.0053428323714
851,733.0128347401433
852,733.0211675186716
853,733.0303346692408
854,733.0403321062901
855,733.0511581179005
856,733.0628132951808
857,733.0753004306023
858,733.0886243854371
859,733.1027919265446
860,733.1178115325927
861,733.1336931696262
862,733.1504480359598
863,733.1680882768486
864,733.1866266703759
865,733.2060762874489
866,733.2264501303255
867,733.2477607553077
868,733.2700198860075
869,733.2932380238789
870,733.3174240622697
871,733.3425849090218
872,733.3687251213701
873,733.3958465563534
874,733.4239480399591
875,733.453025058009
876,733.483069471188
877,733.5140692562912
878,733.5460082763486
879,733.5788660836131
880,733.6126177604309
881,733.6472338027053
882,733.6826800489889
883,733.7189176561288
884,733.755903120778
885,733.7935883452991
886,733.8319207464351
887,733.8708434053391
888,733.9102952577347
889,733.9502113228108
890,733.9905229691991
891,734.031158216738
892,734.0720420737941
893,734.113096911
894,734.1542428726581
895,734.1953983264705
896,734.2364803507287
897,734.2774052561016
898,734.3180891376101
899,734.3584484518406
900,734.3984006145109
901,734.4378646132944
902,734.4767616300177
903,734.5150156653376
904,734.5525541580927
905,734.5893085907724
906,734.6252150721699
907,734.6602148886683
908,734.6942550166906
909,734.727288590136
910,734.7592753178748
911,734.7901818476049
912,734.8199820733485
913,734.8486573843084
914,734.8761968530445
915,734.9025973614723
916,734.927863663781
917,734.9520083852187
