acceleration,velocity,displacement
0.0006062576568215676,0.0,0.0
-0.00044048390123487875,4.1443438896672224e-08,1.0360859724168056e-11
-0.0014835146665662228,-4.3955620305360325e-07,-8.916733131506471e-11
-0.0025191525245815602,-1.4402230008405491e-06,-5.591121322886028e-10
-0.0035437722883629496,-2.9559542040766764e-06,-1.658156433517909e-09
-0.004553833118348173,-4.980355555754457e-06,-3.6422338734756924e-09
-0.00554590476244189,-7.505290025951973e-06,-6.7636452689023e-09
-0.006516692330312706,-1.0520939299140622e-05,-1.1270202600175448e-08
-0.00746305937250501,-1.4015877224845051e-05,-1.7404406731171865e-08
-0.008382049075203395,-1.7977154336772154e-05,-2.5402664621576167e-08
-0.00927090340958609,-2.2390392457969525e-05,-3.549455132026158e-08
-0.010127080100959114,-2.7239888335605828e-05,-4.790212151865542e-08
-0.010948267311442805,-3.250872518870631e-05,-6.283927489973346e-08
-0.011732395959748093,-3.817889100650403e-05,-8.051117894853604e-08
-0.012477649632536073,-4.423140240457507e-05,-1.0111375230130581e-07
-0.013182472074729657,-5.0646432831391506e-05,-1.2483321111029744e-07
-0.013845572276378098,-5.7403443919168446e-05,-1.5184568029793743e-07
-0.014465927193890355,-6.448131878673556e-05,-1.8231687097441342e-07
-0.015042782153732615,-7.18584961236413e-05,-2.1640182470200762e-07
-0.015575648997227147,-7.951310391138125e-05,-2.5424472471076326e-07
-0.01606430204507569,-8.742309167195695e-05,-2.959787736065978e-07
-0.016508771990023693,-9.55663601807318e-05,-3.4172613656977e-07
-0.016909337860548303,-0.0001039208876433748,-3.9159794852579666e-07
-0.0172665172305356,-0.00011246485141614577,-4.456943832906768e-07
-0.017581054871380786,-0.00012117674444162486,-5.041047822551195e-07
-0.01785391005067924,-0.00013003548567213987,-5.669078397835607e-07
-0.018086242680993302,-0.000139020523855058,-6.341718421653602e-07
-0.018279398518447454,-0.0001481119341549182,-7.059549566678543e-07
-0.01843489360224992,-0.00015729050718509254,-7.82305567002857e-07
-0.018554398110399415,-0.00016653783011325488,-8.632626513274439e-07
-0.018639719787400748,-0.00017583635958770492,-9.488561987526838e-07
-0.018692787082484133,-0.00018516948630517614,-1.039107660225904e-06
-0.018715632122331845,-0.00019452159110638014,-1.134030429578793e-06
-0.018710373627017114,-0.00020387809254371737,-1.2336303504913176e-06
-0.01867919985820334,-0.00021322548591502249,-1.3379062451060026e-06
-0.018624351668178538,-0.00022255137379661796,-1.4468504600339128e-06
-0.01854810570605575,-0.00023184448814017654,-1.5604494255181114e-06
-0.01845275784066332,-0.0002410947040268563,-1.6786842235598697e-06
-0.018340606876340194,-0.0002502930452061072,-1.8015311608681105e-06
-0.018213938657287723,-0.0002594316815895142,-1.9289623425670158e-06
-0.018075010667404832,-0.00026850391892068733,-2.060946242694566e-06
-0.017926037232512033,-0.00027750418089566653,-2.1974482676486546e-06
-0.017769175422806812,-0.00028642798405949623,-2.3384313088874453e-06
-0.0176065117390825,-0.00029527190584996855,-2.4838562813648113e-06
-0.017440049652117342,-0.0003040335461977685,-2.6336826443767455e-06
-0.01727169805466217,-0.00031271148312446336,-2.7878689017073036e-06
-0.017103260676042495,-0.0003213052228071395,-2.9463730781902045e-06
-0.016936426492718138,-0.0003298151445993297,-3.109153170041822e-06
-0.016772761144611875,-0.0003382424415086622,-3.27616756656882e-06
-0.016613699346771548,-0.00034658905663150803,-3.4473754411038623e-06
-0.01646053827671663,-0.00035485761603738005,-3.6227371092710843e-06
-0.016314431918433674,-0.0003630513585861676,-3.802214352926971e-06
-0.01617638634987177,-0.00037117406315324397,-3.985770708361824e-06
-0.016047255967477404,-0.00037922997373258124,-4.17337171758328e-06
-0.015927740645975515,-0.0003872237228859445,-4.364985141737911e-06
-0.015818383835021474,-0.0003951602540061937,-4.560581135960946e-06
-0.015719571600033226,-0.0004030447428649574,-4.760132385178734e-06
-0.015631532622396256,-0.0004108825189205648,-4.963614200625115e-06
-0.015554339180554922,-0.0004186789868713026,-5.171004577073081e-06
-0.01548790913560498,-0.00042643954895034257,-5.382284211028492e-06
-0.015432008943667643,-0.00043416952847016074,-5.597436480383618e-06
-0.015386257711081973,-0.00044187409513384815,-5.8164473862846205e-06
-0.015350132290834989,-0.0004495581926343274,-6.039305458226664e-06
-0.01532297338723727,-0.0004572264690538455,-6.266001623648707e-06
-0.015303992601725365,-0.00046488321055108614,-6.49652904354994e-06
-0.015292280333524387,-0.0004725322787848986,-6.730882915883937e-06
-0.015286814449127425,-0.00048017705248056154,-6.969060248700302e-06
-0.01528646964173467,-0.00048782037350327706,-7.211059605196262e-06
-0.015290027406117982,-0.0004954644977652402,-7.456880823013392e-06
-0.01529618655920798,-0.0005031110512565717,-7.706524710268845e-06
-0.015303574248997826,-0.0005107609914586232,-7.959992720947644e-06
-0.015310757412699619,-0.0005184145743740475,-8.217286612405812e-06
-0.015316254660662968,-0.0005260713273923882,-8.47840808784742e-06
-0.015318548565690138,-0.0005337300281989764,-8.743358426745262e-06
-0.01531609832392343,-0.0005413886899213798,-9.01213810627535e-06
-0.015307352727030894,-0.0005490445526841184,-9.284746416926725e-06
-0.015290763354634827,-0.0005566940817045348,-9.561181075523889e-06
-0.015264797869641954,-0.000564332972010604,-9.841437838952675e-06
-0.015227953281168952,-0.0005719561597983067,-1.0125510121904903e-05
-0.015178769029559806,-0.0005795578403759889,-1.0413388621948476e-05
-0.015115839745455828,-0.0005871314925697429,-1.070506095518491e-05
-0.015037827538321254,-0.0005946699093906871,-1.1000511305675018e-05
-0.014943473674443118,-0.0006021652346938783,-1.1299720091696159e-05
-0.014831609507072133,-0.000609609005489257,-1.1602663651741943e-05
-0.014701166525962771,-0.0006169921994975157,-1.1909313952988636e-05
-0.014551185406537477,-0.0006243052874806408,-1.2219638324733175e-05
-0.01438082396139882,-0.0006315382898226248,-1.2533599219058992e-05
-0.014189363922632812,-0.0006386808367936327,-1.2851154000713057e-05
-0.013976216501331353,-0.0006457222318996238,-1.3172254767886372e-05
-0.013740926676449675,-0.000652651517694069,-1.3496848205284795e-05
-0.013483176164891288,-0.0006594575434044043,-1.3824875470559413e-05
-0.013202785028445166,-0.0006661290337027384,-1.4156272114836199e-05
-0.012899711884018072,-0.0006726546579308542,-1.4490968037744598e-05
-0.012574052700733496,-0.0006790230990770421,-1.4828887476996571e-05
-0.012226038192298233,-0.0006852231218003,-1.5169949032215906e-05
-0.011856029845636603,-0.0006912436388097837,-1.5514065722368426e-05
-0.011464514662582923,-0.0006970737749368386,-1.586114507580508e-05
-0.01105209872430873,-0.0007027029282835616,-1.621108925161018e-05
-0.010619499714357414,-0.0007081208278932282,-1.6563795190654376e-05
-0.010167538553885622,-0.000713317587460289,-1.6919154794492754e-05
-0.009697130309722569,-0.000718283754676191,-1.7277055130026874e-05
-0.009209274530314856,-0.0007230103558862003,-1.763737865766747e-05
-0.008705045146083862,-0.0007274889358053,-1.8000003480590345e-05
-0.008185580045472556,-0.0007317115921031891,-1.8364803612567467e-05
-0.0076520704186664795,-0.0007356710047192238,-1.873164926177307e-05
-0.007105749956670559,-0.0007393604598130581,-1.910040712790614e-05
-0.006547883999809685,-0.0007427738683021782,-1.947094070993495e-05
-0.005979758735429902,-0.0007459057789859881,-1.984311062175699e-05
-0.005402670544848915,-0.0007487513863060578,-2.021677491308e-05
-0.0048179155971706505,-0.0007513065328415626,-2.0591789392866906e-05
-0.004226779782868701,-0.0007535677066865725,-2.096800795274894e-05
-0.0036305290704050177,-0.0007555320338998909,-2.1345282887895556e-05
-0.003030400356474974,-0.0007571972662566109,-2.172346521293468e-05
-0.0024275928724925688,-0.0007585617645638527,-2.2102404970639796e-05
-0.0018232602110758438,-0.0007596244778347448,-2.2481951531239446e-05
-0.001218503040685203,-0.0007603849186476851,-2.2861953880360052e-05
-0.0006143625758658417,-0.0007608431350518228,-2.3242260893784927e-05
-1.1814864253438535e-05,-0.0007609996794118526,-2.3622721597400846e-05
0.0005882340556567471,-0.0007608555746140017,-2.400318541090731e-05
0.0011849520781903305,-0.00076041227808054,-2.4383502374080947e-05
0.0017775839925831237,-0.0007596716440628466,-2.4763523354616795e-05
0.0023654534435391165,-0.0007586358847038161,-2.514310023680846e-05
0.0029479638558163684,-0.0007573075303789772,-2.5522086090579158e-05
0.0035245983016658974,-0.0007556893898396066,-2.5900335320633804e-05
0.004094918309615842,-0.0007537845106867861,-2.6277703795765403e-05
0.004658561634134474,-0.0007515961407008485,-2.665404895861231e-05
0.005215239024961373,-0.0007491276905360745,-2.7029229916421542e-05
0.005764730050916163,-0.0007463826982671051,-2.7403107513622335e-05
0.006306878045131941,-0.0007433647962430931,-2.7775544387249886e-05
0.006841584251898993,-0.0007400776806688353,-2.814640500647787e-05
0.007368801275651836,-0.0007365250842869476,-2.8515555697716816e-05
0.00788852595715092,-0.0007327107524787469,-2.888286465690824e-05
0.008400791819278774,-0.0007286384230346394,-2.9248201950786587e-05
0.00890566122994466,-0.0007243118097723335,-2.961143950898833e-05
0.00940321743130909,-0.0007197345901070201,-2.997245110895817e-05
0.00989355659415225,-0.0007149103966006548,-3.033111235563509e-05
0.010376780069863305,-0.0007098428124346509,-3.068730065789391e-05
0.010852987013889632,-0.0007045353706637127,-3.1040895203668506e-05
0.011322267533212842,-0.0006989915570269371,-3.139177693559117e-05
0.011784696473745792,-0.0006932148160251974,-3.17398285288542e-05
0.012240327929277081,-0.0006872085599244417,-3.208493437284161e-05
0.012689190533580781,-0.0006809761803087272,-3.24269805578999e-05
0.013131283588739476,-0.0006745210617781471,-3.276585486842162e-05
0.013566574073891986,-0.0006678465973624893,-3.310144678320678e-05
0.013994994561688992,-0.000660956205203594,-3.34336474838483e-05
0.014416442045104578,-0.0006538533460518956,-3.376234987166217e-05
0.014830777650926512,-0.0006465415411278879,-3.408744859345712e-05
0.015237827194572168,-0.0006390243899165132,-3.440884007621822e-05
0.01563738251733932,-0.0006313055874885353,-3.472642257056948e-05
0.01602920354313643,-0.0006233889409734164,-3.504009620268497e-05
0.01641302099585337,-0.0006152783848386689,-3.5349763034137986e-05
0.016788539723710933,-0.0006069779946587778,-3.5655327129012345e-05
0.01715544257274463,-0.000598491999084664,-3.5956694627448205e-05
0.01751339473697312,-0.0005898247897572345,-3.625377382465868e-05
0.01786204849808425,-0.0005809809289484702,-3.6546475254335105e-05
0.018201048259785906,-0.0005719651547590026,-3.6834711775261974e-05
0.018530035777374207,-0.0005627823837497126,-3.711839865988915e-05
0.018848655477371776,-0.0005534377109360261,-3.739745368356058e-05
0.019156559760524886,-0.0005439364071265519,-3.7671797213076226e-05
0.019453414191757893,-0.0005342839136384813,-3.794135229326748e-05
0.019738902502341112,-0.0005244858344649565,-3.820604473029334e-05
0.02001273135429715,-0.000514547926000797,-3.846580317040978e-05
0.020274634837134178,-0.0005044760844529391,-3.8720559173023215e-05
0.020524378680971064,-0.0004942763310734128,-3.8970247276904805e-05
0.020761764179243056,-0.0004839547953583593,-3.921480505851275e-05
0.020986631819399786,-0.0004735176963586986,-3.945417318144201e-05
0.021198864624073596,-0.0004629713222478302,-3.968829543609364e-05
0.021398391211100928,-0.00045232200828903657,-3.991711876872786e-05
0.021585188586476532,-0.0004415761133396422,-4.014059329913503e-05
0.02175928468276831,-0.000430739995022331,-4.0358672326225524e-05
0.021920760641600555,-0.0004198199836912388,-4.0571312320903916e-05
0.02206975281580711,-0.0004088223553268869,-4.077847290565845e-05
0.022206454446209663,-0.0003977533035113827,-4.098011682036801e-05
0.022331116959397494,-0.0003866189106599809,-4.117620987391085e-05
0.02244405083360936,-0.00037542511871172917,-4.136672088125378e-05
0.022545625979315673,-0.0003641776995084979,-4.155162158580884e-05
0.022636271575576745,-0.0003528822251197748,-4.173088656696591e-05
0.02271647529990047,-0.0003415440384009055,-4.190449313284608e-05
0.02278678189798801,-0.00033016822410143336,-4.207242119847166e-05
0.022847791061377347,-0.000318759580861592,-4.223465314971242e-05
0.022900154607416904,-0.00030732259444439346,-4.2391173693538916e-05
0.02294457297609531,-0.0002958614125485154,-4.2541969695287146e-05
0.02298179106850375,-0.0002843798215373656,-4.2687030003808614e-05
0.02301259345935221,-0.00027288122540540164,-4.2826345265544304e-05
0.02303779903307435,-0.000261368627282295,-4.295990772871623e-05
0.023058255123827982,-0.00024984461374306943,-4.308771103897257e-05
0.023074831275493483,-0.00023831134214323906,-4.320975002794415e-05
0.023088412765442587,-0.00022677053113300503,-4.3326020496263213e-05
0.023099894048124694,-0.00021522345442961322,-4.343651899265387e-05
0.023110172272147348,-0.0002036709378495452,-4.3541242590723655e-05
0.02312014101097955,-0.00019211335952876347,-4.364018866506823e-05
0.023130684327238228,-0.00018055065319420903,-4.3733354668248976e-05
0.023142671268149766,-0.00016898231429536204,-4.382073791012137e-05
0.02315695086868422,-0.00015740740876115354,-4.39023353408855e-05
0.023174347719081678,-0.00014582458411421207,-4.3978143339104344e-05
0.023195658132471736,-0.00013423208265132372,-4.404815750579573e-05
0.023221646925220298,-0.0001226277563869007,-4.4112372465555286e-05
0.023253044799580225,-0.00011100908345570057,-4.417078167551593e-05
0.023290546296963935,-9.937318568156452e-05,-4.422337724280025e-05
0.023334808270643694,-8.771684703966261e-05,-4.427014975098056e-05
0.023386448809777076,-7.603653276955742e-05,-4.431108809593286e-05
0.023446046536134326,-6.432840893307958e-05,-4.434617933135852e-05
0.023514140193216,-5.2588362250741995e-05,-4.4375408524154475e-05
0.023591228451943575,-4.08120200894521e-05,-4.439875861973952e-05
0.023677769864946473,-2.899477051022959e-05,-4.441621031738944e-05
0.023774182915399796,-1.7131782315143024e-05,-4.4427741955595785e-05
0.02388084612656118,-5.21802505465278e-06,-4.4433329407438236e-05
0.023998098214887333,6.751711030709349e-06,-4.443294598594422e-05
0.02412623827355403,1.878279515281969e-05,-4.442656235939834e-05
0.024265525968886634,3.088073621342986e-05,-4.4414146476556774e-05
0.02441618172977129,4.305116313809435e-05,-4.439566350171889e-05
0.02457838691206345,5.5299805298553034e-05,-4.4371075759609726e-05
0.02475228392472634,6.763247300775049e-05,-4.434034269003315e-05
0.024937976315015004,8.005503806768582e-05,-4.430342081226429e-05
0.02513552882769955,9.257341435336445e-05,-4.426026369915903e-05
0.025344967469991337,0.00010519353842778717,-4.421082196096374e-05
0.02556627961801277,0.00011792135019978819,-4.415504323880685e-05
0.02579941418955672,0.00013076277365168057,-4.4092872207843985e-05
0.026044281889073914,0.00014372369767133821,-4.402425059001323e-05
0.026300755513550718,0.00015680995702199436,-4.3949117176339895e-05
0.02656867029726125,0.00017002731347469735,-4.386740785871572e-05
0.026847824269338943,0.0001833814371163474,-4.377905567106796e-05
0.02713797859896898,0.00019687788783342438,-4.3683990839830514e-05
0.027438857910200044,0.00021052209696071662,-4.358214084363198e-05
0.02775015056482519,0.00022431934907947293,-4.3473430482121936e-05
0.02807150893416961,0.00023827476395422162,-4.3357781953863516e-05
0.028402549699437084,0.0002523932786126233,-4.3235114943221806e-05
0.028742854228364142,0.0002666796295945736,-4.3105346716170004e-05
0.02909196907222025,0.0002811383354197197,-4.296839222491643e-05
0.02944940661506966,0.0002957736793415422,-4.282416422122612e-05
0.029814645894868066,0.0003105896924690266,-4.267257337827348e-05
0.030187133611656456,0.00032559013734565775,-4.251352842081981e-05
0.030566285341433783,0.0003407784920839303,-4.234693626346241e-05
0.030951486976635852,0.0003561579351634477,-4.217270215665057e-05
0.031342096408148855,0.0003717313310096439,-4.199072984010729e-05
0.031737445448989675,0.0003875012164739285,-4.18009217032364e-05
0.032136841982583576,0.00040346978833182185,-4.160317895203496e-05
0.03253957230659793,0.00041963889190411725,-4.139740178197598e-05
0.03294490363799738,0.0004360100108902661,-4.118348955627738e-05
0.03335208674409631,0.00045258425848578954,-4.096134098893337e-05
0.03376035866700353,0.0004693623698385645,-4.0730854331852276e-05
0.03416894551368401,0.00048634469588373637,-4.0491927565421704e-05
0.0345770652853216,0.0005035311985834877,-4.02444585918049e-05
0.03498393071314379,0.0005209214475831041,-3.9988345430263255e-05
0.035388752056565685,0.0005385146182755315,-3.9723486413798595e-05
0.03579073981122281,0.0005563094912424786,-3.9449780386419095e-05
0.03618910727439287,0.0005743044530138826,-3.9167126900355004e-05
0.03658307292411437,0.0005924974980635094,-3.887542641258566e-05
0.036971862584123744,0.0006108862319405689,-3.857458048008464e-05
0.03735471136681255,0.000629467875428303,-3.8264491953242423e-05
0.03773086540698341,0.000648239269621752,-3.794506516697991e-05
0.038099583415664606,0.000667196881827414,-3.761620612911762e-05
0.038460138092475255,0.000686336812204449,-3.7277822705609654e-05
0.038811817438433635,0.0007056548010871763,-3.692982480228675e-05
0.03915392601254412,0.0007251462369499207,-3.657212454277747e-05
0.03948578617745953,0.0007448061649974216,-3.6204636442290634e-05
0.03980673938070179,0.0007646292963869619,-3.582727757694454e-05
0.040116147515961834,0.0007846100181111279,-3.5439967748320015e-05
0.04041339440098914,0.0008047424035903657,-3.504262964289464e-05
0.040697887393642086,0.0008250202240390234,-3.46351889859873e-05
0.04096905915049462,0.0008454369606750576,-3.421757468980878e-05
0.04122636951690942,0.0008659858178419086,-3.3789718995179534e-05
0.041469307519122894,0.0008866597371009167,-3.3351557606443827e-05
0.04169739340100917,0.0009074514123309497,-3.290302981908586e-05
0.04191018061435066,0.0009283533058347897,-3.2444078639544424e-05
0.04210725764573567,0.0009493576653998113,-3.197465089673577e-05
0.04228824955890645,0.0009704565422009718,-3.149469734483558e-05
0.042452819153295594,0.0009916418093790223,-3.100417275694058e-05
0.04260066768163034,0.0010129051810877537,-3.0503036009323886e-05
0.042731535114070955,0.001034238231786679,-2.9991250156105277e-05
0.04284519996308416,0.0010556324155559678,-2.9468782494269616e-05
0.042941478687012265,0.0010770790852184919,-2.8935604619076e-05
0.043020224686308325,0.001098569511061822,-2.839169247000592e-05
0.04308132691165361,0.0011200948989613124,-2.7837026367500137e-05
0.04312470811641504,0.0011416464077183294,-2.7271591040830227e-05
0.043150322793086934,0.0011632151654457049,-2.669537564753922e-05
0.04315815482586178,0.0011847922848504421,-2.6108373784965183e-05
0.04314821487699788,0.001206368877276157,-2.5510583494433534e-05
0.04312053751742985,0.001227936065374764,-2.4902007258770804e-05
0.04307517811937922,0.0012494849942839663,-2.428265199385612e-05
0.04301220954571105,0.001271006841200239,-2.365252903498507e-05
0.04293171868864285,0.0012924928232588273,-2.3011654118870303e-05
0.04283380292306296,0.0013139342036617538,-2.2360047362140156e-05
0.04271856654418409,0.0013353222960285655,-2.1697733237217575e-05
0.0425861172522385,0.0013566484669776712,-2.1024740546466015e-05
0.04243656272997309,0.001377904136973224,-2.034110239547829e-05
0.042270007343052064,0.0013990807794914803,-1.9646856166362115e-05
0.04208654899248739,0.001420169918575365,-1.8942043491845405e-05
0.04188627616319467,0.0014411631248642857,-1.8226710230985492e-05
0.041669265231098214,0.001462052010212859,-1.7500906447216205e-05
0.04143557810084791,0.0014828282210458455,-1.6764686389401528e-05
0.04118526024817646,0.0015034834306331016,-1.601810847648179e-05
0.040918339242264935,0.001524009330505712,-1.5261235286197086e-05
0.04063482382264639,0.0015443976212719398,-1.4494133548252672e-05
0.040334703593706146,0.001564640003126028,-1.371687414215318e-05
0.040017949376184477,0.0015847281663685007,-1.2929532099779547e-05
0.03968451422592152,0.0016046537822690273,-1.2132186612620166e-05
