acceleration,velocity,displacement
-0.009014017668153395,0.0,0.0
-0.008834490742867431,-4.462127102755207e-06,-1.115531775688802e-09
-0.008646907622942589,-8.832476694207712e-06,-4.4391827249295325e-09
-0.008451330753750973,-1.3107036288381102e-05,-9.924060970576735e-09
-0.00824783466626,-1.7281827643383846e-05,-1.7521276953517973e-08
-0.008036508875187013,-2.13529135287456e-05,-2.7179962246550334e-08
-0.007817460302709486,-2.531640582321972e-05,-3.884729208454166e-08
-0.0075908151014645,-2.9168474674263216e-05,-5.24685122089124e-08
-0.007356719820219774,-3.2905358404684285e-05,-6.798697047864927e-08
-0.007115341916466607,-3.6523373838855884e-05,-8.534415353953432e-08
-0.0068668696639393005,-4.0018926733957364e-05,-1.0447972868273763e-07
-0.006611511529164525,-4.3388522032233324e-05,-1.253315908742853e-07
-0.006349495107799807,-4.662877369147441e-05,-1.4783591480521224e-07
-0.006081065728525664,-4.9736413900555776e-05,-1.7192721170321978e-07
-0.005806484847120749,-5.270830154446738e-05,-1.9753839056447556e-07
-0.005526028351695464,-5.5541429844171435e-05,-2.2460082341163526e-07
-0.005239984872723785,-5.823293315027625e-05,-2.5304441416024716e-07
-0.004948654146679301,-6.078009290512702e-05,-2.8279767067409797e-07
-0.004652345441532829,-6.318034280218005e-05,-3.1378777960092477e-07
-0.004351376035676376,-6.543127317148235e-05,-3.459406835943404e-07
-0.004046069752882125,-6.753063461862197e-05,-3.7918116054186647e-07
-0.0037367555776289087,-6.947634095124973e-05,-4.1343290443433437e-07
-0.003423766381210743,-7.126647144095964e-05,-4.486186075323867e-07
-0.0031074377688289864,-7.289927247846958e-05,-4.84660043512244e-07
-0.0027881070301823538,-7.437315867822242e-05,-5.21478151301417e-07
-0.002466112168069271,-7.568671347778532e-05,-5.589931193404189e-07
-0.00214179099540001,-7.683868926865264e-05,-5.971244700270284e-07
-0.0018154803126151592,-7.782800709565643e-05,-6.357911441181057e-07
-0.0014875151886121684,-7.865375597096327e-05,-6.749115848847606e-07
-0.0011582283677092852,-7.931519186004364e-05,-7.144038218425123e-07
-0.0008279498184419259,-7.981173640658144e-05,-7.541855539091686e-07
-0.0004970064285501543,-8.014297546832946e-05,-7.941742318778963e-07
-0.00016572183248225468,-8.030865753358756e-05,-8.342871401283755e-07
0.00016558366526625597,-8.030869207539156e-05,-8.744414775306202e-07
0.0004965931264857424,-8.014314787745356e-05,-9.145544375188315e-07
0.0008269930357147474,-7.981225133690344e-05,-9.545432873224207e-07
0.0011564734262426248,-7.93163847214141e-05,-9.94325446337e-07
0.001484728103472733,-7.865608433898526e-05,-1.0338185636020999e-06
0.0018114549669770942,-7.78320385713728e-05,-1.0729405943296894e-06
0.0021363564048901755,-7.684508572840598e-05,-1.111609875404634e-06
0.002459139707591606,-7.569621170028553e-05,-1.149745199761807e-06
0.0027795174239943475,-7.438654741738905e-05,-1.1872658895412256e-06
0.0030972075683809424,-7.291736616929522e-05,-1.2240918679378966e-06
0.00341193358810196,-7.12900808801745e-05,-1.260143729700264e-06
0.003723424030504056,-6.950624147552299e-05,-1.2953428102891885e-06
0.004031411899828541,-6.756753249293984e-05,-1.3296112537813042e-06
0.004335633758823426,-6.547577107827685e-05,-1.3628720796741084e-06
0.004635828683463127,-6.323290546770522e-05,-1.3950492488106039e-06
0.004931737200427726,-6.08410139967325e-05,-1.4260677286767133e-06
0.005223100317935774,-5.830230461714162e-05,-1.455853558330182e-06
0.005509658717475611,-5.561911485828878e-05,-1.4843339131990394e-06
0.005791152140133113,-5.2793912143886594e-05,-1.5114371699495833e-06
0.006067319001050169,-4.982929435859077e-05,-1.5370929715752026e-06
0.006337896293458401,-4.672799053496363e-05,-1.5612322927985911e-06
0.006602619872904208,-4.349286149337298e-05,-1.5837875058056754e-06
0.006861225220154202,-4.012690022010838e-05,-1.6046924462340458e-06
0.0071134487619034775,-3.663323172459396e-05,-1.6238824792202213e-06
0.007359029789432655,-3.3015112086759926e-05,-1.6412945651730598e-06
0.007597712970944968,-2.927592639666552e-05,-1.6568673247939162e-06
0.00782925141584489,-2.5419185299968053e-05,-1.6705411027180745e-06
0.008053410218854291,-2.1448519891293256e-05,-1.6822580290158898e-06
0.008269970380458031,-1.7367674741465176e-05,-1.6919620776740794e-06
0.008478732969439472,-1.31804989039908e-05,-1.6995991210854435e-06
0.00867952337903939,-8.890934816871086e-06,-1.705116979515659e-06
0.0088721955397388,-4.503005087176539e-06,-1.7084654644916708e-06
0.009056635977626045,-2.0797207835327383e-08,-1.7095964150654237e-06
0.009232767631172818,4.551553694364388e-06,-1.7084637259437915e-06
0.009400553357843703,9.20988394161852e-06,-1.7050233665347957e-06
0.009559999084356233,1.3950022052168502e-05,-1.699233390036349e-06
0.00971115658588604,1.8767810969729072e-05,-1.6910539317808744e-06
0.009854125910968962,2.3659131593942823e-05,-1.6804471961399565e-06
0.009989057482291813,2.8619927442258017e-05,-1.6673774313809062e-06
0.010116153886682938,3.36462302845017e-05,-1.6518108919492163e-06
0.010235671324697545,3.873418658734682e-05,-1.633715787731254e-06
0.010347920639898507,4.388008457849584e-05,-1.6130622199397933e-06
0.010453267810443067,4.908038169108123e-05,-1.5898221033723991e-06
0.010552133770841639,5.433173208640241e-05,-1.5639690749280282e-06
0.010644993439771027,5.9631013889055574e-05,-1.5354783884341636e-06
0.010732373859576528,6.497535571389246e-05,-1.5043267960334266e-06
0.010814851407429476,7.036216203064396e-05,-1.4704924165972924e-06
0.010893048113038118,7.578913691076086e-05,-1.4339545918619412e-06
0.010967627192931368,8.125430573725323e-05,-1.3946937311999377e-06
0.011039287961713067,8.675603452591433e-05,-1.3526911461341457e-06
0.011108760300251376,9.229304659140545e-05,-1.3079288758548157e-06
0.01117679886296772,9.786443638221022e-05,-1.2603895051114117e-06
0.011244177203455937,0.00010346968039881613,-1.2100559759161552e-06
0.011311681989907955,0.00010910864519715711,-1.1569113945171618e-06
0.01138010746580226,0.00011478159256108466,-1.1009388350776014e-06
0.011450250287692575,0.00012048918199945837,-1.0421211414374657e-06
0.011522904842613261,0.00012623247078203482,-9.804407282420925e-07
0.011598859111055886,0.00013201291177045212,-9.158793826039708e-07
0.011678891098767985,0.0001378323493229081,-8.484180673306307e-07
0.011763765819753266,0.0001436930135525384,-7.780367266117692e-07
0.01185423277940821,0.00014959751320232876,-7.047140949230523e-07
0.011951023878036822,0.00015554882736669,-6.284275097807977e-07
0.012054851631466424,0.00016155029624406581,-5.491527288781087e-07
0.012166407598581496,0.0001676056110515778,-4.6686375205419776e-07
0.01228636092571962,0.0001737188031826531,-3.8153264849564003e-07
0.012415356959154187,0.00017989423265387156,-2.9312938953650885e-07
0.012554015918659756,0.00018613657587332504,-2.016216874047097e-07
0.012702931649079522,0.00019245081276525987,-1.0697484024506347e-07
0.012862670468196396,0.00019884221329457885,-9.151583730103792e-09
0.013033770113048179,0.00020531632343988998,9.188805045351342e-08
0.013216738760765265,0.00021187895065834334,1.9618686897807176e-07
0.013412054071747552,0.00021853614886647155,3.037906438592755e-07
0.013620162181254922,0.00022529420292972217,4.1474823180832393e-07
0.013841476556972892,0.0002321596126142791,5.291116856943242e-07
0.014076376645411939,0.00023913907591487533,6.469363578266129e-07
0.014325206245328063,0.0002462394716375603,7.682809947147217e-07
0.014588271571398023,0.00025346784109174183,8.932078228970473e-07
0.014865839005262565,0.000260831368735907,1.0217826253539595e-06
0.015158132560891045,0.0002683373616274454,1.1540748079447976e-06
0.015465331100680272,0.00027599322754283823,1.2901574552373686e-06
0.015787565330430832,0.000283806451650616,1.4301073750357321e-06
0.016124914594718206,0.0002917845716319033,1.574005130856362e-06
0.016477403498855674,0.00029993515115529676,1.721935061553162e-06
0.016844998390196212,0.00030826575162755973,1.8739852872488761e-06
0.017227603729112313,0.0003167839021573869,2.030247700695113e-06
0.01762505837592842,0.00032549706768364705,2.190817943155371e-06
0.018037131832459422,0.000334412615235744,2.3557953638852186e-06
0.01846352050782032,0.00034353777832081393,2.5252829622743582e-06
0.018903844105965708,0.0003528796194742604,2.6993873117231266e-06
0.019357642237667807,0.0003624449910601688,2.8782184643567337e-06
0.019824371347602284,0.0003722404944564863,3.0618898357358975e-06
0.020303402035635684,0.0003822724378022958,3.250518068800593e-06
0.020794016847936882,0.0003925467925231889,3.4442228763819644e-06
0.02129540861197516,0.0004030691488881669,3.6431268617348034e-06
0.021806679381964435,0.0004138446708866518,3.847355316678508e-06
0.022326840047106795,0.0004248780507439196,4.057035997086151e-06
0.022854810639763586,0.0004361734634156372,4.27229887562604e-06
0.023389421367365337,0.0004477345214174194,4.493275871834305e-06
0.02392941437654062,0.0004595642303533959,4.720100559777009e-06
0.02447344623560486,0.00047166494550643227,4.952907853741965e-06
0.025020091096861923,0.00048403832983954896,5.191833672578461e-06
0.02556784448707275,0.0004966853137355326,5.437014583472232e-06
0.02611512768300327,0.0005096060567780517,5.6885874261006275e-06
0.02666029265279122,0.0005227999118620003,5.9466889182606405e-06
0.027201627565215193,0.0005362653919165019,6.211455244205266e-06
0.027737362876253734,0.0005500001395268691,6.483021627066109e-06
0.02826567799895119,0.0005640008997456704,6.7615218868842435e-06
0.028784708557438782,0.0005782634963847679,7.047087985916853e-06
0.029292554222293623,0.000592782812079701,7.33984956303297e-06
0.029787287120595557,0.0006075527724154233,7.639933459156752e-06
0.030266960807992144,0.0006225663343975703,7.94746323586e-06
0.03072961978038767,0.0006378154795446652,8.26255868934556e-06
0.03117330948829749,0.0006532912118618364,8.585335362197185e-06
0.03159608679674093,0.000668983560933096,8.915904055395919e-06
0.0319960308079972,0.0006848815903342805,9.254370343212763e-06
0.03237125393785687,0.000700973411520744,9.600834093676519e-06
0.03271991311842602,0.0007172462032848148,9.955388997377909e-06
0.03304022099972412,0.0007336862368143523,1.03181221074027e-05
0.033330457034697836,0.0007502789063229578,1.0689113393187029e-05
0.0335889783519442,0.0007670087651696183,1.1068435311060173e-05
0.03381423035052789,0.0007838595673452364,1.1456152394188887e-05
0.03400475699248875,0.0008008143141809905,1.1852320864570444e-05
0.03415921080455555,0.0008178553061302516,1.2256988269648255e-05
0.034276362607191795,0.0008349641994831884,1.2670193146051615e-05
0.03435511095650105,0.0008521220678741117,1.3091964712890939e-05
0.034394491223091565,0.0008693094684190098,1.352232259696422e-05
0.034393684163788005,0.0008865065122657297,1.3961276592135404e-05
0.034352023790864224,0.0009036929392543928,1.4408826455015435e-05
0.03426900432558829,0.0009208481962835059,1.4864961738899909e-05
0.034144286040338596,0.0009379515188749876,1.5329661667689533e-05
0.03397769983715472,0.0009549820153443609,1.580289505124437e-05
0.03376925046907116,0.0009719187529209173,1.628462024331069e-05
0.03351911837432208,0.0009887408451317657,1.677478514282386e-05
0.033227660151497265,0.0010054275397632206,1.7273327239047605e-05
0.032895407746125545,0.0010219583067376263,1.7780173700672816e-05
0.03252306644517775,0.0010383129252854522,1.8295241508678585e-05
0.03211151179189631,0.0010544715698447206,1.881843763246113e-05
0.03166178554471358,0.001070414894178873,1.934965924846703e-05
0.03117509081138684,0.0010861241132678983,1.9888794000328722e-05
0.030652786490861887,0.0011015810825934604,2.043572029929406e-05
0.03009638115119452,0.0011167683745039745,2.099030766356842e-05
0.02950752646577073,0.0011316693514082158,2.155241709504647e-05
0.028888010322289687,0.0011462682356052308,2.212190149179983e-05
0.028239749703248,0.0011605501756116153,2.2698606094604042e-05
0.027564783407512596,0.0011745013088893055,2.328236896572927e-05
0.026865264643245516,0.001188108820901995,2.3873021498177096e-05
0.0261434534860004,0.0012013610004343064,2.447038895351117e-05
0.025401709176460133,0.0012142472910999216,2.507429102639473e-05
0.02464248223164737,0.0012267583389519484,2.5684542433907697e-05
0.023868306345136394,0.0012388860360961443,2.630095352766972e-05
0.02308179003833653,0.0012506235601920125,2.692333092674176e-05
0.022285607996017663,0.001261965409700601,2.755147816921491e-05
0.021482491990712643,0.0012729074346972836,2.8185196380314383e-05
0.020675221288653164,0.001283446863017125,2.8824284954742986e-05
0.019866612440962144,0.0012935823214495288,2.946854225085965e-05
0.0190595083926148,0.001303313851657923,3.0117766294136513e-05
0.01825676687715107,0.0013126429204753645,3.077175548716983e-05
0.01746124809858476,0.0013215724242192984,3.14303093233435e-05
0.01667580173195029,0.001330106686676932,3.209322910106756e-05
0.015903253300819906,0.0013382514504351247,3.276031863534557e-05
0.01514639001221417,0.0013460138612633832,3.34313849632702e-05
0.014407946145137625,0.0013534024453027212,3.410623903991172e-05
0.013690588099414615,0.0013604270788638592,3.478469642095337e-05
0.012996899218970287,0.0013670989506934554,3.5466577928342697e-05
0.012329364512866972,0.0013734305166264147,3.615171029517266e-05
0.011690355412389497,0.001379435446607729,3.6839926785981195e-05
0.011082114720537366,0.0013851285641409607,3.7531067788668366e-05
0.01050674192397919,0.00139052577830209,3.822498137427913e-05
0.009966179043627347,0.0013956440085439916,3.892152382099065e-05
0.009462197200336307,0.0014005011026049824,3.9620560098777894e-05
0.008996384068693304,0.0014051157479222397,4.03219643114097e-05
0.00857013238440389,0.001409507377035514,4.102562009264914e-05
0.00818462965671962,0.001413696067545795,4.1731420953794464e-05
0.007840849213206661,0.0014177024372632767,4.2439270579996734e-05
0.007539542671206533,0.00142154753523438,4.3149083073121146e-05
0.007281233898870673,0.0014252527293768993,4.386078313927397e-05
0.007066214510909255,0.0014288395914793443,4.457430621948803e-05
0.006894540942090946,0.0014323297803425943,4.528959856244351e-05
0.006766033145817436,0.0014357449238645715,4.600661723849531e-05
0.006680274966218918,0.0014391065008925806,4.6725330094684596e-05
0.006636616226251184,0.001442435723690698,4.7445715650830416e-05
0.0066341765561942255,0.0014457534218863094,4.816776293722467e-05
0.006671850950854317,0.0014490799287630715,4.889147127488701e-05
0.0067483169937695,0.0014524349707492274,4.9616849999765086e-05
0.006862043638777195,0.0014558375609073641,5.0343918132679234e-05
0.007011301408176629,0.0014593058971691026,5.107270399719835e-05
0.007194173855351912,0.0014628572659849848,5.180324478798687e-05
0.007408570141099485,0.0014665079519840976,5.253558609247914e-05
0.007652238578979683,0.0014702731541641175,5.3269781369016196e-05
0.007922781012214514,0.001474166909061916,5.400589138482271e-05
0.008217667891948248,0.0014782020212879567,5.474398361741017e-05
0.008534253931816763,0.0014823900017438979,5.5484131623168134e-05
0.008869794217531297,0.0014867410137812348,5.622641437704942e-05
0.009221460657439836,0.0014912638274999777,5.697091558736972e-05
0.009586358671469869,0.001495965782332205,5.7717722989827765e-05
0.009961544024385498,0.001500852758006169,5.846692762491236e-05
0.010344039709484023,0.0015059291539396362,5.9218623102898815e-05
0.010730852781315373,0.001511197877062336,5.997290486064931e-05
0.01111899102419515,0.0015166603380137138,6.072986941441832e-05
0.011505479331682163,0.001522316455602683,6.148961361282243e-05
0.011887375665751425,0.0015281646693520415,6.22522338940611e-05
0.01226178646380276,0.00153420195988443,6.301782555137022e-05
0.012625881364315195,0.0015404238768414594,6.37864820105517e-05
0.012976907130686837,0.00154682457396521,6.455829412325337e-05
0.013312200673029375,0.001553396850916139,6.53333494794737e-05
0.013629201092041224,0.0015601322013574068,6.611173174254209e-05
0.013925460681276243,0.0015670208668007361,6.689352000958163e-05
0.014198654823286628,0.0015740518956768768,6.767878820020103e-05
0.014446590719585744,0.0015812132070625949,6.84676044758859e-05
0.01466721491489413,0.0015884916584712149,6.926003069226935e-05
0.01485861960076506,0.0015958731171001298,7.005612188616218e-05
0.015019047697853597,0.0016033425339247844,7.085592579891842e-05
0.015146896722815226,0.0016108840200299516,7.16594824374071e-05
0.015240721457628486,0.0016184809245750626,7.246682367355835e-05
0.015299235459629187,0.001626115913804377,7.327797288315321e-05
0.015321311472253274,0.0016337710505373478,7.409294462423865e-05
0.015305980811319592,0.001641427873608241,7.491174435527505e-05
0.015252431807698424,0.0016490674767629956,7.573436819286785e-05
0.015160007388988286,0.0016566705865621672,7.656080270869915e-05
0.015028201887419214,0.001664217638881269,7.739102476506002e-05
0.01485665717085457,0.0016716888536458376,7.82250013881918e-05
0.01464515820289148,0.0016790643074892741,7.906268967847558e-05
0.014393628140368311,0.0016863240040750891,7.990403675636667e-05
0.014102123072390314,0.0016934479418782788,8.074897974285501e-05
0.013770826498397578,0.0017004161792709758,8.159744577314231e-05
0.013400043636416762,0.0017072088968046793,8.244935204216123e-05
0.012990195647028262,0.0017138064566255406,8.330460588051878e-05
0.012541813852161044,0.001720189459000338,8.416310485942525e-05
0.012055534014626662,0.001726338795967035,8.502473692316709e-05
0.011532090718603808,0.0017322357021503426,8.588938054769644e-05
0.010972311858269683,0.001737861802794561,8.675690492393267e-05
0.010377113216626297,0.0017431991590632849,8.762717016439713e-05
0.00974749310970676,0.001748230310644868,8.850002753182417e-05
0.009084527080221335,0.00175293831569235,8.937531968840848e-05
0.008389362641319965,0.0017573067881227354,9.025288096436225e-05
0.007663214089825639,0.0017613199323055218,9.113253764446932e-05
0.006907357422708,0.0017649625751836552,9.201410827134162e-05
0.006123125390863102,0.001768220195887048,9.289740396410929e-05
0.005311902706763038,0.0017710789529114545,9.378222875130891e-05
0.00447512139805747,0.0017735257089376596,9.466837991677119e-05
0.003614256281980934,0.0017755480533576693,9.555564835734501e-05
0.0027308205293356154,0.0017771343225604984,9.644381895132456e-05
0.0018263612872404624,0.0017782736180146424,9.733267093646834e-05
0.0009024553329552128,0.0017789558221696913,9.822197829651443e-05
-3.929526408935111e-05,0.0017791716121869077,9.911151015510358e-05
-0.000997267488356979,0.001778912471498796,0.00010000103117602501
-0.0019698217410294926,0.0017781706991914495,0.00010089030196869757
-0.00295530622333159,0.0017769394172003593,0.00010177907949779552
-0.003952061345848179,0.0017752125753080644,0.00010266711749592262
-0.004958424175313551,0.001772984953927774,0.00010355416687823158
-0.0059727329306052375,0.0017702521646512943,0.00010443997615787634
-0.006993331525724339,0.0017670106485372118,0.00010532429186117346
-0.00801857413203414,0.0017632576721227722,0.00010620685894133846
-0.009046829707408022,0.0017589913211629117,0.00010708742118965988
-0.010076486426661379,0.0017542104921293943,0.00010796572164298296
-0.011105955946307243,0.001748914881536152,0.00010884150298639934
-0.012133677442497744,0.0017431049731889507,0.00010971450795008061
-0.013158121369062414,0.0017367820234860606,0.00011058447969924937
-0.014177792889210852,0.0017299480449214923,0.00011145116221635126
-0.015191234941792362,0.0017226057879637414,0.00011231430067457257
-0.016197030918489556,0.001714758721498671,0.00011317364180193817
-0.01719380695309276,0.0017064110120307754,0.00011402893423532053
-0.018180233848676095,0.0016975675018303332,0.00011487992886378581
-0.019155028683894394,0.0016882336861971906,0.00011572637916079268
-0.02011695614272569,0.0016784156899905356,0.00011656804150483962
-0.021064829602649215,0.001668120243554192,0.0001174046754882258
-0.02199751200035765,0.0016573546581534402,0.0001182360442136527
-0.022913916484313956,0.0016461268010322723,0.00011906191457844912
-0.023813006867872598,0.0016344450701942256,0.00011988205754625575
-0.024693797908622604,0.001622318369000102,0.00012069624840605434
