acceleration,velocity,displacement
-0.009014017642413922,0.0,0.0
-0.008834490716585092,-4.462127089749753e-06,-1.1155317724374384e-09
-0.008646907596223736,-8.83247666795196e-06,-4.439182711862866e-09
-0.008451330726706046,-1.3107036248684406e-05,-9.924060941021959e-09
-0.008247834639003526,-1.72818275901118e-05,-1.752127690072101e-08
-0.00803650884783761,-2.1352913461822084e-05,-2.717996216370448e-08
-0.007817460275387815,-2.531640574262844e-05,-3.884729196481711e-08
-0.00759081507428713,-2.9168474580047176e-05,-5.246851204548601e-08
-0.007356719793303276,-3.290535829694478e-05,-6.7986970264734e-08
-0.0071153418899255055,-3.652337371775197e-05,-8.53441532684082e-08
-0.00686686963788812,-4.001892659970538e-05,-1.0447972834777254e-07
-0.006611511503719832,-4.338852188510737e-05,-1.2533159046897572e-07
-0.006349495083076124,-4.662877353180636e-05,-1.4783591432320414e-07
-0.006081065704633421,-4.973641372873375e-05,-1.7192721113833917e-07
-0.0058064848241703776,-5.27083013609347e-05,-1.9753838991075628e-07
-0.005526028329797393,-5.554142964942664e-05,-2.246008226633466e-07
-0.0052399848519945735,-5.8232932944874635e-05,-2.530444133119219e-07
-0.0049486541272436855,-6.07800926896842e-05,-2.827976697205616e-07
-0.0046523454235175895,-6.318034257737452e-05,-3.1378777853732625e-07
-0.004351376019208289,-6.543127293805599e-05,-3.459406824161839e-07
-0.004046069738083878,-6.753063437737904e-05,-3.7918115924504267e-07
-0.0037367555646150093,-6.947634070305375e-05,-4.134329030151509e-07
-0.00342376637008752,-7.126647118672938e-05,-4.4861860598759666e-07
-0.0031074377596925435,-7.28992722191744e-05,-4.846600418390726e-07
-0.002788107023114483,-7.437315841487616e-05,-5.214781494975853e-07
-0.002466112163137452,-7.568671321143915e-05,-5.589931174041642e-07
-0.0021417909926553648,-7.683868900038735e-05,-5.971244679571209e-07
-0.001815480312096542,-7.782800682657533e-05,-6.357911419138616e-07
-0.0014875151903441207,-7.86537557021855e-05,-6.749115825460518e-07
-0.0011582283716999914,-7.931519159269652e-05,-7.144038193697723e-07
-0.0008279498246729918,-7.981173614178976e-05,-7.541855513033939e-07
-0.0004970064369806954,-8.014297520720319e-05,-7.941742291406422e-07
-0.00016572184304889623,-8.03086572772106e-05,-8.342871372617456e-07
0.00016558365264528993,-8.03086918248115e-05,-8.744414745372511e-07
0.0004965931119126735,-8.0143147633672e-05,-9.14554434401872e-07
0.0008269930193040653,-7.981225110086781e-05,-9.54543284085507e-07
0.001156473408129265,-7.931638449400948e-05,-9.943254429842264e-07
0.0014847280838079877,-7.865608412102517e-05,-1.033818560137985e-06
0.0018114549459286122,-7.783203836359101e-05,-1.072940590759139e-06
0.002136356382637874,-7.68450855314494e-05,-1.1116098717328993e-06
0.0024591396843215364,-7.569621151470954e-05,-1.149745195994439e-06
0.0027795173999007414,-7.438654724365397e-05,-1.18726588568403e-06
0.0030972075436662095,-7.291736600776223e-05,-1.224091863996884e-06
0.003411933562960334,-7.12900807311056e-05,-1.260143725681601e-06
0.0037234240051134166,-6.950624133908716e-05,-1.2953428061991493e-06
0.004031411874344281,-6.756753236922275e-05,-1.3296112496262267e-06
0.004335633733384586,-6.547577096729053e-05,-1.362872075460355e-06
0.0046358286582005685,-6.323290536939424e-05,-1.395049244544526e-06
0.004931737175468225,-6.0841013910977034e-05,-1.426067724364619e-06
0.005223100293391797,-5.8302304543762026e-05,-1.4558535539783037e-06
0.005509658693437136,-5.5619114797054794e-05,-1.484333908813508e-06
0.0057911521166758104,-5.2793912094526555e-05,-1.5114371655364032e-06
0.006067318978235399,-4.982929432079875e-05,-1.5370929671402344e-06
0.006337896271333214,-4.67279905084066e-05,-1.5612322883475357e-06
0.0066026198515177,-4.349286147769387e-05,-1.5837875013440608e-06
0.006861225199549337,-4.012690021492711e-05,-1.604692441767216e-06
0.007113448742115045,-3.6633231729511014e-05,-1.6238824747533257e-06
0.007359029770491357,-3.301511210135941e-05,-1.6412945607110433e-06
0.007597712952877417,-2.9275926420517218e-05,-1.6568673203415125e-06
0.007829251398671569,-2.541918533262997e-05,-1.6705410982797993e-06
0.008053410202587503,-2.1448519932315204e-05,-1.6822580245960357e-06
0.00826997036510395,-1.736767479039234e-05,-1.6919620732767126e-06
0.008478732954996095,-1.318049896036733e-05,-1.6995991167144024e-06
0.008679523365504715,-8.890934880242127e-06,-1.7051169751745547e-06
0.00887219552710878,-4.503005157088754e-06,-1.7084654601838874e-06
0.00905663596589459,-2.0797283837910685e-08,-1.709596410794119e-06
0.009232767620327705,4.5515536127176635e-06,-1.708463721711899e-06
0.009400553347872712,9.209883854767769e-06,-1.7050233623450277e-06
0.009559999075251228,1.3950021960548753e-05,-1.6992333858911986e-06
0.0097111565776532,1.8767810873774862e-05,-1.6910539276826178e-06
0.00985412590362877,2.3659131494095355e-05,-1.6804471920906502e-06
0.009989057475872937,2.8619927338970782e-05,-1.6673774273823838e-06
0.01011615388121404,3.3646230178242524e-05,-1.6518108880030806e-06
0.010235671320203197,3.873418647859683e-05,-1.6337157838388708e-06
0.010347920636399192,4.388008446774743e-05,-1.6130622161022847e-06
0.010453267807946998,4.908038157883398e-05,-1.5898220995906395e-06
0.01055213376935294,5.4331731973158964e-05,-1.5639690712026413e-06
0.010644993439287685,5.963101377531912e-05,-1.5354783847655218e-06
0.010732373860094483,6.497535560016466e-05,-1.5043267924216508e-06
0.01081485140894262,7.036216191742394e-05,-1.4704924130422537e-06
0.010893048115536251,7.578913679854366e-05,-1.4339545883632617e-06
0.010967627196396112,8.125430562652675e-05,-1.3946937277569942e-06
0.011039287966111725,8.67560344171537e-05,-1.352691142746074e-06
0.011108760305545117,9.229304648506792e-05,-1.3079288725205186e-06
0.011176798869111573,9.786443627873209e-05,-1.2603895018295686e-06
0.011244177210406974,0.00010346968029861172,-1.2100559726852325e-06
0.011311681997619154,0.00010910864510061826,-1.156911391335425e-06
0.011380107474230683,0.00011478159246858072,-1.1009388319431253e-06
0.011450250296795283,0.00012048918191133721,-1.0421211383481458e-06
0.01152290485234526,0.00012623247069862235,-9.80440725195656e-07
0.011598859121376275,0.00013201291169205273,-9.158793795979872e-07
0.011678891109637896,0.00013783234924980627,-8.484180643625225e-07
0.011763765831131786,0.0001436930134849987,-7.780367236788212e-07
0.011854232791258511,0.00014959751314059627,-7.047140920224225e-07
0.011951023890320026,0.0001555488273109909,-6.284275069095258e-07
0.012054851644147739,0.00016155029619460785,-5.491527260331261e-07
0.012166407611632261,0.00016760561100855284,-4.668637492323359e-07
0.01228636093910708,0.00017371880314623767,-3.8153264569363826e-07
0.012415356972837405,0.0001798942326242238,-2.931293867510229e-07
0.01255401593259166,0.00018613657585058108,-2.0162168463232168e-07
0.012702931663206905,0.00019245081274953072,-1.0697483748229373e-07
0.012862670482457868,0.00019884221328594692,-9.151580973424318e-09
0.013033770127376216,0.00020531632343840544,9.188805320766377e-08
0.013216738775086206,0.00021187895066402104,1.961868717332704e-07
0.013412054085985687,0.00021853614887928902,3.037906466190979e-07
0.013620162195332498,0.00022529420294961858,4.147482345763248e-07
0.013841476570808064,0.00023215961264115372,5.291116884740178e-07
0.014076376658924902,0.00023913907594858697,6.46936360621453e-07
0.014325206258445146,0.0002462394716779295,7.682809975280822e-07
0.014588271584053729,0.0002534678411385542,8.932078257322031e-07
0.014865839017399577,0.00026083136878891753,1.021782628214071e-06
0.015158132572456129,0.0002683373616863815,1.1540748108328957e-06
0.015465331111626329,0.0002759932276074021,1.2901574581563415e-06
0.015787565340716892,0.0002838064517204879,1.430107377988314e-06
0.016124914604307393,0.00029178457170674397,1.574005133845122e-06
0.016477403507709064,0.00029993515123474807,1.721935064580495e-06
0.016844998398276925,0.0003082657517112446,1.8739852903169932e-06
0.017227603736383476,0.0003167839022449097,2.030247703806032e-06
0.017625058382355195,0.00032549706777459437,2.190817946310908e-06
0.01803713183801516,0.00033441261532968697,2.355795367086978e-06
0.01846352051249063,0.0003435377784173134,2.5252829655237282e-06
0.018903844109752557,0.0003528796195728742,2.699387315021275e-06
0.019357642240591572,0.0003624449911604602,2.8782184677046086e-06
0.019824371349695613,0.000372240494558032,3.061889839134232e-06
0.020303402036941438,0.00038227243790469126,3.250518072249913e-06
0.020794016848502024,0.0003925467926260521,3.4442228798825987e-06
0.021295408611852785,0.0004030691489911408,3.643126865286897e-06
0.021806679381207648,0.00041384467098940593,3.8473553202820335e-06
0.02232684004576461,0.00042487805084614897,4.057036000740922e-06
0.02285481063787481,0.0004361734635170588,4.272298879331724e-06
0.023389421364962647,0.0004477345215177682,4.493275875590431e-06
0.023929414373648518,0.00045956423045242096,4.7201005635829784e-06
0.02447344623224173,0.00047166494560389353,4.952907857597057e-06
0.02502009109303592,0.00048403832993521294,5.191833676481834e-06
0.025567844482781828,0.0004966853138291674,5.437014587422929e-06
0.026115127678235164,0.0005096060568694216,5.688587430097576e-06
0.026660292647529588,0.0005227999119508628,5.946688922302647e-06
0.0272016275594437,0.0005362653920026061,6.211455248291014e-06
0.027737362869956046,0.000550000139609956,6.483021631194155e-06
0.028265677992111,0.0005640008998254728,6.761521891053012e-06
0.028784708550037737,0.00057826349646101,7.047087990124633e-06
0.029292554214309294,0.0005927828121520967,7.339849567277909e-06
0.029787287112003482,0.0006075527724836749,7.639933463436852e-06
0.03026696079876173,0.0006225663344613662,7.947463240173113e-06
0.0307296197704863,0.0006378154796036782,8.262558693689373e-06
0.031173309477696642,0.000653291211915724,8.585335366569223e-06
0.03159608678541005,0.0006689835609815007,8.91590405979353e-06
0.03199603079591187,0.0006848815903768311,9.254370347633113e-06
0.03237125392499883,0.0007009734115570587,9.600834098116586e-06
0.03271991310477905,0.0007172462033145032,9.955389001834476e-06
0.03304022098527814,0.0007336862368370174,1.0318122111872356e-05
0.03333045701944892,0.0007502789063381992,1.0689113397666161e-05
0.03358897833589252,0.0007670087651770346,1.106843531554497e-05
0.033814230333685885,0.0007838595673444292,1.1456152398675336e-05
0.03400475697487091,0.0008008143141715684,1.1852320869054335e-05
0.03415921078618047,0.0008178553061118312,1.2256988274125185e-05
0.03427636258807807,0.0008349641994553959,1.2670193150516991e-05
0.03435511093666524,0.0008521220678365817,1.3091964717339985e-05
0.034394491202550226,0.0008693094683713856,1.3522322601391976e-05
0.03439368414256588,0.0008865065122076646,1.3961276596536738e-05
0.03435202376900038,0.0009036929391855563,1.4408826459385044e-05
0.03426900430313405,0.0009208481962035899,1.486496174323233e-05
0.03414428601735347,0.0009379515187837118,1.5329661671979155e-05
0.03397769981370844,0.0009549820152414772,1.5802895055485453e-05
0.033769250445239575,0.0009719187528062142,1.6284620247497377e-05
0.03351911835019334,0.0009887408450050723,1.6774785146950197e-05
0.03322766012717175,0.0010054275396244137,1.727332724310757e-05
0.03289540772171387,0.001021958306586635,1.778017370466033e-05
0.03252306642079462,0.0010383129251222622,1.8295241512587558e-05
0.03211151176765436,0.0010544715696693744,1.8818437636285465e-05
0.031661785520723414,0.0010704148939914687,1.9349659252200675e-05
0.031175090787757008,0.001086124113068589,1.9888794003965688e-05
0.030652786467690707,0.0011015810823824508,2.0435720302828447e-05
0.03009638112857213,0.0011167683742815166,2.0990307666994438e-05
0.029507526443781115,0.0011316693511746049,2.155241709835847e-05
0.028888010301004564,0.0011462682353608014,2.212190149499232e-05
0.02823974968272885,0.0011605501753567348,2.2698606097671704e-05
0.027564783387806584,0.0011745013086243686,2.328236896866698e-05
0.026865264624391618,0.001188108820627418,2.3873021500979924e-05
0.026143453468027354,0.0012013610001505228,2.447038895617441e-05
0.02540170915938644,0.0012142472908073763,2.5074291028913883e-05
0.024642482215479256,0.0012267583386510927,2.56845424362785e-05
0.023868306329880074,0.0012388860357874325,2.6300953529888134e-05
0.023081790023998197,0.0012506235598759021,2.692333092880397e-05
0.022285607982603504,0.0012619654093775526,2.7551478171117334e-05
0.02148249197822474,0.0012729074343677596,2.818519638205366e-05
0.020675221277099715,0.0012834468626815908,2.8824284956315997e-05
0.019866612430361558,0.0012935823211084562,2.9468542252263507e-05
0.019059508382993643,0.0013033138513117949,3.011776629536857e-05
0.018256766868539987,0.0013126429201246782,3.077175548822769e-05
0.017461248091020513,0.0013215724238645683,3.1430309324225e-05
0.016675801725471662,0.0013301066863186913,3.209322910177082e-05
0.01590325329546364,0.0013382514500739251,3.276031863586897e-05
0.015146390008012886,0.0013460138608997942,3.34313849636124e-05
0.01440794614212394,0.0013534024449373284,3.410623904007168e-05
0.013690588097621127,0.0013604270784972647,3.478469642093033e-05
0.012996899218427537,0.0013670989503262768,3.546657792813621e-05
0.012329364513605489,0.001373430516259285,3.61517102947826e-05
0.011690355414437753,0.001379435446241296,3.683992678540775e-05
0.011082114723921776,0.0013851285637758858,3.753106778791204e-05
0.010506741928726157,0.0013905257779390477,3.822498137334077e-05
0.009966179049763265,0.00139564400818367,3.892152381987145e-05
0.009462197207885516,0.0014005011022480821,3.962056009747939e-05
0.00899638407767605,0.0014051157475694724,4.032196430993378e-05
0.008570132394840406,0.0014095073766876016,4.102562009099805e-05
0.008184629668619912,0.0014136960672034666,4.1731420951970815e-05
0.007840849226568468,0.0014177024369272638,4.2439270578003496e-05
0.007539542686019407,0.0014215475349054108,4.3149083070961666e-05
0.007281233915115989,0.0014252527290556946,4.3860783136951945e-05
0.007066214528564297,0.0014288395911666147,4.4574306217007524e-05
0.0068945409611227745,0.0014323297800390364,4.5289598559808936e-05
0.006766033166178802,0.0014357449235708618,4.600661723571141e-05
0.00668027498785031,0.0014391065006093692,4.6725330091756464e-05
0.006636616249080825,0.0014424357234186019,4.744571564776346e-05
0.006634176580140123,0.001445753421625907,4.8167762934024585e-05
0.006671850975832439,0.0014490799285149002,4.8891471271559784e-05
0.006748317019691733,0.0014524349705137812,4.961684999631696e-05
0.006862043665551345,0.0014558375606850919,5.0343918129116675e-05
0.00701130143571051,0.0014593058969604074,5.107270399352805e-05
0.007194173883557438,0.0014628572657902244,5.180324478421571e-05
0.007408570169896759,0.001466507951803588,5.253558608861416e-05
0.007652238608299041,0.001470273153998137,5.326978136506459e-05
0.007922781041994483,0.0014741669089107104,5.4005891380791806e-05
0.008217667922137586,0.0014782020211517434,5.474398361330742e-05
0.008534253962376516,0.0014823900016228719,5.548413161900108e-05
0.00886979424842661,0.0014867410136755726,5.622641437282569e-05
0.009221460688635868,0.0014912638274098382,5.697091558309704e-05
0.009586358702929752,0.0014959657822577297,5.7717722985513935e-05
0.009961544056072377,0.0015008527579474802,5.846692762056524e-05
0.010344039741352885,0.0015059291538968365,5.9218623098526315e-05
0.010730852813310994,0.0015111978770355025,5.99729048562594e-05
0.011118991056254149,0.0015166603380028939,6.0729869410019e-05
0.011505479363737083,0.0015223164556078916,6.14896136084217e-05
0.011887375697732778,0.0015281646693732591,6.225223388966699e-05
0.012261786495639034,0.001534201959921602,6.301782554699071e-05
0.012625881395932844,0.0015404238768944951,6.378648200619474e-05
0.0129769071620062,0.0015468245740339799,6.455829411892686e-05
0.013312200703978979,0.001553396851000476,6.533334947518548e-05
0.013629201122563923,0.0015601322014571117,6.611173173829988e-05
0.013925460711325124,0.001567020866915584,6.689352000539306e-05
0.014198654852827059,0.001574051895806622,6.76787881960736e-05
0.014446590748587191,0.0015812132072069755,6.846760447182701e-05
0.014667214943332207,0.0015884916586299553,6.926003068828625e-05
0.014858619628621516,0.0015958731172729438,7.005612188226197e-05
0.015019047725108155,0.0016033425341113762,7.085592579510805e-05
0.015146896749443523,0.0016108840202300142,7.16594824336934e-05
0.015240721483595948,0.001618480924788274,7.246682366994797e-05
0.015299235484891021,0.0016261159140303957,7.327797287965264e-05
0.015321311496756519,0.0016337710507758076,7.409294462085419e-05
0.015305980835003112,0.0016414278738587475,7.491174435201282e-05
0.015252431830497001,0.0016490674770251225,7.573436818973379e-05
0.015160007410838746,0.0016566705868354564,7.656080270569893e-05
0.01502820190825839,0.0016642176391652307,7.73910247621991e-05
0.014856657190619293,0.0016716888539399502,7.82250013854754e-05
0.014645158221526764,0.0016790643077929867,7.906268967590864e-05
0.014393628157827344,0.0016863240043878253,7.990403675395384e-05
0.014102123088636506,0.0016934479421994413,8.074897974060065e-05
0.013770826513400475,0.0017004161795999505,8.15974457710505e-05
0.013400043650152037,0.0017072088971408386,8.244935204023569e-05
0.01299019565948181,0.001713806456968247,8.330460587876296e-05
0.01254181386333307,0.0017201894593489508,8.416310485784226e-05
0.012055534024529631,0.0017263387963209165,8.502473692175973e-05
0.011532090727260405,0.001732235702508864,8.588938054646717e-05
0.010972311865710764,0.0017378618031571068,8.675690492288366e-05
0.010377113222886805,0.0017431991594292562,8.762717016353026e-05
0.009747493114819586,0.0017482303110136828,8.850002753114099e-05
0.009084527084221408,0.001752938316063443,8.937531968791028e-05
0.008389362644248343,0.0017573067884955604,9.025288096405003e-05
0.007663214091725418,0.001761319932679554,9.113253764434381e-05
0.00690735742363658,0.0017649625755583945,9.20141082714033e-05
0.006123125390894232,0.0017682201962620273,9.28974039643584e-05
0.005311902705978634,0.0017710789532862454,9.378222875174547e-05
0.004475121396549666,0.0017735257093118774,9.4668379917395e-05
0.0036142562798561653,0.001775548053730979,9.555564835815571e-05
0.0027308205267084877,0.0017771343229326202,9.644381895232162e-05
0.0018263612842296616,0.0017782736183853548,9.733267093765111e-05
0.000902455329675328,0.0017789558225388311,9.822197829788215e-05
-3.929526753396166e-05,0.0017791716125543666,9.911151015665545e-05
-0.000997267491870143,0.0017789124718645155,0.00010000103117776017
-0.0019698217445232235,0.0017781706995554172,0.00010089030197061516
-0.0029553062267281332,0.0017769394175626045,0.00010177907949989467
-0.003952061349082053,0.0017752125756686518,0.00010266711749820248
-0.004958424178327464,0.0017729849542867993,0.00010355416688069135
-0.005972732933348036,0.0017702521650088804,0.00010443997616051526
-0.006993331528159191,0.0017670106488935037,0.00010532429186399086
-0.008018574134126266,0.0017632576724779323,0.00010620685894433372
-0.00904682970912265,0.0017589913215171201,0.00010708742119283248
-0.010076486427969884,0.001754210492482847,0.00010796572164633248
-0.01110595594719531,0.0017489148818890558,0.00010884150298992545
-0.012133677442969474,0.0017431049735415146,0.0001097145079537831
-0.013158121369140314,0.0017367820238384873,0.00011058447970312809
-0.014177792888935833,0.0017299480452739682,0.0001114511622204062
-0.015191234941215567,0.0017226057883164302,0.0001123143006788038
-0.016197030917672356,0.0017147587218517082,0.00011317364180634584
-0.017193806952112894,0.001706411012384262,0.00011402893423990484
-0.018180233847619482,0.001697567502184329,0.00011487992886854699
-0.019155028682853088,0.0016882336865517108,0.000115726379165731
-0.02011695614179585,0.0016784156903455485,0.0001165680415099553
-0.021064829601929045,0.0016681202439096173,0.0001174046754935191
-0.021997511999939233,0.0016573546585091502,0.00011823604421912379
-0.022913916484279144,0.0016461268013880956,0.0001190619145840981
-0.023813006868295086,0.001634445070549952,0.00011988205755208261
-0.024693797909561777,0.0016223183693554878,0.00012069624841205897
