frame_number,force
0,545.0215081704454
1,545.0314914553974
2,545.0419227360206
3,545.0527985397999
4,545.064114722154
5,545.0758663052727
6,545.088047343337
7,545.1006508211449
8,545.1136685892885
9,545.1270913356504
10,545.1409085905458
11,545.1551087613917
12,545.1696791918567
13,545.1846062394966
14,545.1998753650574
15,545.2154712267202
16,545.2313777740773
17,545.2475783391292
18,545.2640557238412
19,545.2807922847286
20,545.2977700143256
21,545.3149706181858
22,545.3323755857217
23,545.3499662543162
24,545.3677238676796
25,545.3856296298676
26,545.4036647554954
27,545.4218105154802
28,545.4400482770285
29,545.4583595366141
30,545.4767259450695
31,545.4951293245462
32,545.5135516781077
33,545.531975193992
34,545.5503822476327
35,545.5687554047977
36,545.5870774285975
37,545.6053312919051
38,545.6235001952658
39,545.6415675888281
40,545.6595171953486
41,545.6773330300048
42,545.6949994118971
43,545.7125009622519
44,545.7298225858996
45,545.7469494355133
46,545.763866861651
47,545.7805603546284
48,545.7970154854338
49,545.8132178518326
50,545.8291530334208
51,545.8448065574999
52,545.8601638776373
53,545.8752103683298
54,545.8899313408095
55,545.9043120854672
56,545.9183379452952
57,545.9319944225828
58,545.9452673186233
59,545.9581429041158
60,545.9706081162485
61,545.9826507767111
62,545.994259823168
63,546.005425545939
64,546.0161398222668
65,546.0263963419982
66,546.0361908198302
67,546.0455211903093
68,546.0543877830137
69,546.0627934771019
70,546.0707438361582
71,546.0782472250148
72,546.0853149092914
73,546.0919611360044
74,546.0982031908053
75,546.1040614253158
76,546.1095592472175
77,546.1147230661891
78,546.1195821904464
79,546.124168671658
80,546.1285171001772
81,546.1326643567085
82,546.1366493293283
83,546.1405126058683
84,546.1442961517886
85,546.1480429835111
86,546.151796846745
87,546.1556019084528
88,546.1595024697851
89,546.1635427056872
90,546.167766434844
91,546.1722169212566
92,546.1769367064697
93,546.181967469613
94,546.1873499108167
95,546.193123652263
96,546.199327150743
97,546.2059976167112
98,546.213170937128
99,546.2208816016981
100,546.229162633447
101,546.2380455246519
102,546.2475601782478
103,546.2577348533777
104,546.2685961121844
105,546.2801687637342
106,546.2924758004873
107,546.3055383230259
108,546.3193754496019
109,546.3340042084603
110,546.3494394127769
111,546.3656935197098
112,546.3827764755907
113,546.4006955488186
114,546.4194551516538
115,546.4390566523692
116,546.4594981795802
117,546.4807744204385
118,546.5028764141529
119,546.525791342986
120,546.5495023246003
121,546.5739882111728
122,546.5992234009915
123,546.6251776675733
124,546.6518160107046
125,546.6790985336067
126,546.7069803503482
127,546.7354115272011
128,546.7643370608564
129,546.7936968955607
130,546.8234259805004
131,546.8534543679019
132,546.8837073510811
133,546.914105640294
134,546.9445655735213
135,546.9749993597873
136,547.0053153539435
137,547.0354183630334
138,547.0652099847581
139,547.0945889783802
140,547.1234516681113
141,547.1516923788273
142,547.1792039037421
143,547.2058780033334
144,547.2316059342775
145,547.2562790063356
146,547.2797891640162
147,547.3020295884163
148,547.322895313159
149,547.3422838473681
150,547.3600957985761
151,547.3762354891495
152,547.3906115609076
153,547.403137564289
154,547.4137325307048
155,547.4223215287234
156,547.4288362050906
157,547.4332153097838
158,547.4354052008767
159,547.4353603212033
160,547.4330436359563
161,547.4284270193654
162,547.4214915795703
163,547.4122279132296
164,547.4006362846542
165,547.3867267278066
166,547.3705190727231
167,547.3520429002807
168,547.3313374306732
169,547.3084513518488
170,547.2834425947904
171,547.2563780629303
172,547.2273333230685
173,547.1963922649314
174,547.1636467361677
175,547.1291961591462
176,547.0931471350484
177,547.0556130391233
178,547.0167136087888
179,546.976574524235
180,546.9353269801104
181,546.8931072468349
182,546.8500562201813
183,546.8063189570116
184,546.7620441934562
185,546.7173838402294
186,546.6724924491162
187,546.6275266452714
188,546.5826445215811
189,546.5380049933065
190,546.4937671130889
191,546.4500893480651
192,546.4071288223369
193,546.3650405292664
194,546.3239765189504
195,546.284085066803
196,546.2455098295952
197,546.2083889958104
198,546.1728544380027
199,546.1390308758557
200,546.1070350593978
201,546.0769749821685
202,546.0489491341523
203,546.0230458040986
204,545.9993424404312
205,545.977905079167
206,545.9587878459271
207,545.9420325372829
208,545.9276682849368
209,545.9157113052456
210,545.9061647364812
211,545.8990185664593
212,545.8942496532321
213,545.8918218412047
214,545.8916861740332
215,545.8937812036554
216,545.8980333920192
217,545.904357599416
218,545.9126576515888
219,545.9228269771554
220,545.9347493069636
221,545.9482994273321
222,545.9633439795335
223,545.9797422982787
224,545.9973472822494
225,546.0160062899333
226,546.0355620544208
227,546.0558536114577
228,546.0767172355238
229,546.0979873787151
230,546.1194976067919
231,546.1410815260964
232,546.162573694396
233,546.1838105083547
234,546.2046310602989
235,546.224877957094
236,546.2443980944329
237,546.2630433809637
238,546.2806714080356
239,546.2971460615212
240,546.3123380721304
241,546.3261255008728
242,546.3383941574727
243,546.3490379509069
244,546.3579591720226
245,546.3650687085719
246,546.3702861936498
247,546.3735400896652
248,546.3747677111824
249,546.3739151907926
250,546.3709373925129
251,546.3657977773064
252,546.3584682255724
253,546.3489288219967
254,546.3371676086535
255,546.3231803123841
256,546.3069700522393
257,546.2885470324113
258,546.2679282257224
259,546.2451370524263
260,546.2202030587227
261,546.1931615986477
262,546.1640535215795
263,546.1329248657572
264,546.099826556816
265,546.064814109957
266,546.0279473348679
267,545.9892900434298
268,545.9489097612864
269,545.9068774451557
270,545.8632672077765
271,545.8181560514101
272,545.7716236094604
273,545.7237518948109
274,545.6746250531422
275,545.6243291195186
276,545.5729517767018
277,545.5205821139214
278,545.467310385196
279,545.4132277667214
280,545.3584261131188
281,545.3029977122375
282,545.247035037875
283,545.1906304997594
284,545.1338761909193
285,545.0768636339836
286,545.0196835293209
287,544.9624255086673
288,544.9051778979683
289,544.8480274928341
290,544.7910593495593
291,544.7343565942898
292,544.6780002525124
293,544.6220691001787
294,544.5666395364004
295,544.5117854762827
296,544.4575782615992
297,544.4040865868466
298,544.3513764387322
299,544.2995110480335
300,544.2485508533094
301,544.1985534757027
302,544.1495737034065
303,544.1016634840583
304,544.0548719236892
305,544.0092452914643
306,543.9648270297175
307,543.9216577686501
308,543.8797753450958
309,543.8392148253732
310,543.8000085330644
311,543.7621860827461
312,543.7257744198871
313,543.6907978658985
314,543.657278166634
315,543.6252345427173
316,543.5946837402148
317,543.5656400795963
318,543.5381154996196
319,543.5121195916772
320,543.4876596203821
321,543.4647405279511
322,543.4433649222179
323,543.4235330496946
324,543.4052427559301
325,543.3884894363225
326,543.3732659818686
327,543.3595627254028
328,543.3473673937581
329,543.3366650699802
330,543.3274381683036
331,543.3196664241291
332,543.3133269017048
333,543.3083940226805
334,543.3048396185903
335,543.3026330096757
336,543.3017411114308
337,543.3021285689464
338,543.303757917855
339,543.306589769769
340,543.3105830194179
341,543.3156950699358
342,543.3218820719055
343,543.3290991709952
344,543.3373007583222
345,543.3464407172419
346,543.3564726604046
347,543.3673501516683
348,543.3790269085359
349,543.3914569819552
350,543.4045949115766
351,543.4183958561947
352,543.4328157010483
353,543.4478111450759
354,543.463339771461
355,543.4793601042805
356,543.4958316535603
357,543.5127149507854
358,543.5299715768543
359,543.5475641846853
360,543.5654565192347
361,543.5836134383899
362,543.6020009384039
363,543.6205861866259
364,543.6393375623534
365,543.6582247047471
366,543.6772185659781
367,543.696291468071
368,543.7154171623987
369,543.734570890837
370,543.7537294473742
371,543.7728712389982
372,543.791976345145
373,543.8110265756816
374,543.8300055278077
375,543.8488986421659
376,543.8676932581353
377,543.8863786681015
378,543.9049461702776
379,543.9233891191705
380,543.9417029720361
381,543.9598853287445
382,543.9779359615103
383,543.9958568302519
384,544.0136520791337
385,544.0313280100579
386,544.048893029462
387,544.0663575659725
388,544.0837339583645
389,544.1010363154808
390,544.1182803514462
391,544.1354832001626
392,544.1526632129288
393,544.1698397427771
394,544.1870329192521
395,544.2042634180268
396,544.2215522308314
397,544.2389204422192
398,544.2563890200785
399,544.2739786261332
400,544.291709451006
401,544.3096010762017
402,544.3276723631163
403,544.3459413673627
404,544.3644252756704
405,544.3831403625143
406,544.4021019641393
407,544.4213244681641
408,544.4408213169918
409,544.4606050229036
410,544.4806871923731
411,544.5010785572487
412,544.521789011106
413,544.5428276498842
414,544.564202816513
415,544.5859221496295
416,544.6079926366758
417,544.6304206713472
418,544.6532121142409
419,544.6763723538279
420,544.6999063632372
421,544.7238187476074
422,544.7481137772122
423,544.77279540278
424,544.79786725083
425,544.8233325981706
426,544.8491943258207
427,544.8754548532752
428,544.9021160541871
429,544.9291791544554
430,544.9566446138425
431,544.9845119927302
432,545.0127798061661
433,545.0414453675737
434,545.0705046244091
435,545.0999519880863
436,545.1297801609318
437,545.1599799635508
438,545.190540166291
439,545.2214473283226
440,545.2526856476861
441,545.2842368258516
442,545.3160799508089
443,545.3481914033296
444,545.3805447918068
445,545.4131109216881
446,545.4458578052153
447,545.4787507153544
448,545.5117522848009
449,545.5448226481172
450,545.5779196238549
451,545.610998934114
452,545.6440144602526
453,545.6769185338853
454,545.7096622613182
455,545.7421958774954
456,545.7744691230893
457,545.8064316361713
458,545.8380333486737
459,545.869224878081
460,545.899957906325
461,545.9301855398297
462,545.959862646184
463,545.9889461637148
464,546.0173953808788
465,546.0451721836783
466,546.0722412711727
467,546.0985703403958
468,546.1241302416406
469,546.1488951037339
470,546.1728424280645
471,546.1959531504494
472,546.2182116710657
473,546.2396058539763
474,546.2601269987165
475,546.2797697867001
476,546.2985322048821
477,546.3164154484264
478,546.3334238033214
479,546.3495645092851
480,546.3648476031893
481,546.3792857436292
482,546.3928940180759
483,546.4056897354448
484,546.4176922088784
485,546.4289225354096
486,546.4394033798957
487,546.4491587696411
488,546.4582139038299
489,546.4665949794057
490,546.4743290332366
491,546.4814437992515
492,546.4879675783058
493,546.4939291177876
494,546.4993574976186
495,546.5042820192855
496,546.508732094693
497,546.5127371319993
498,546.5163264162711
499,546.5195289835276
500,546.5223734872932
501,546.5248880573023
502,546.5271001507956
503,546.5290363979274
504,546.5307224440614
505,546.5321827931523
506,546.5334406578655
507,546.5345178230358
508,546.5354345288714
509,546.5362093790294
510,546.5368592769718
511,546.5373993923477
512,546.5378431575443
513,546.5382022931019
514,546.5384868597658
515,546.5387053348445
516,546.538864711165
517,546.5389706177896
518,546.5390274622021
519,546.5390385937247
520,546.5390064875653
521,546.5389329481754
522,546.5388193294265
523,546.5386667675702
524,546.5384764216066
525,546.5382497152806
526,546.537988575684
527,546.5376956647482
528,546.5373746010196
529,546.5370301695933
530,546.5366685180295
531,546.53629733589
532,546.5359260153818
533,546.5355657903194
534,546.5352298502052
535,546.5349334260743
536,546.5346938452695
537,546.5345305532483
538,546.5344651012177
539,546.5345210984202
540,546.5347241273463
541,546.5351016192986
542,546.535682686784
543,546.5364979085307
544,546.5375790630591
545,546.5389588082268
546,546.5406703072632
547,546.5427468060775
548,546.5452211710955
549,546.548125400517
550,546.551490124167
551,546.5553441079935
552,546.5597137788452
553,546.5646227834922
554,546.570091593129
555,546.5761371615328
556,546.5827726425472
557,546.5900071708274
558,546.597845708018
559,546.6062889541317
560,546.6153333213305
561,546.6249709653845
562,546.6351898688795
563,546.6459739692185
564,546.6573033234225
565,546.6691543010672
566,546.6814997969385
567,546.694309456223
568,546.7075499068065
569,546.7211849950048
570,546.7351760224934
571,546.7494819832898
572,546.7640598003526
573,546.7788645616349
574,546.7938497552072
575,546.8089675026346
576,546.824168789505
577,546.8394036919932
578,546.8546215984051
579,546.8697714246726
580,546.8848018229174
581,546.8996613828384
582,546.9142988267229
583,546.9286631997531
584,546.9427040575841
585,546.9563716529793
586,546.9696171228597
587,546.9823926764009
588,546.9946517836742
589,547.006349362881
590,547.0174419629444
591,547.0278879376527
592,547.0376476077491
593,547.0466834078372
594,547.0549600154014
595,547.0624444598091
596,547.0691062102326
597,547.0749172430654
598,547.0798520913421
599,547.0838878803889
600,547.0870043546842
601,547.0891839004315
602,547.0904115672616
603,547.0906750913829
604,547.0899649212772
605,547.0882742454909
606,547.085599020769
607,547.081937998369
608,547.077292746673
609,547.0716676685574
610,547.0650700120215
611,547.0575098724329
612,547.0490001845093
613,547.0395567018137
614,547.0291979611941
615,547.0179452296017
616,547.0058224314234
617,546.9928560557018
618,546.9790750436755
619,546.9645106573616
620,546.9491963296219
621,546.9331674959706
622,546.9164614085531
623,546.8991169331739
624,546.8811743309612
625,546.8626750271403
626,546.8436613701303
627,546.8241763845082
628,546.8042635211282
629,546.7839664071038
630,546.7633285980776
631,546.7423933356297
632,546.7212033135536
633,546.6998004573934
634,546.6782257215101
635,546.6565189069253
636,546.6347185016531
637,546.6128615438178
638,546.5909835071753
639,546.5691182088647
640,546.5472977396183
641,546.5255524165658
642,546.5039107584407
643,546.4823994831362
644,546.4610435278619
645,546.439866091847
646,546.4188887006327
647,546.3981312903097
648,546.377612309914
649,546.35734884011
650,546.3373567258107
651,546.3176507197019
652,546.2982446332782
653,546.2791514920086
654,546.2603836911888
655,546.2419531485433
656,546.2238714490302
657,546.2061499771598
658,546.1888000326962
659,546.1718329263675
660,546.155260052561
661,546.1390929360355
662,546.1233432502388
663,546.1080228063573
664,546.0931435142711
665,546.0787173181367
666,546.0647561098533
667,546.0512716235517
668,546.0382753143468
669,546.0257782253751
670,546.0137908480668
671,546.0023229807098
672,545.9913835893506
673,545.9809806736973
674,545.9711211398236
675,545.9618106813714
676,545.9530536711279
677,545.9448530646218
678,545.9372103165788
679,545.9301253101488
680,545.9235962980281
681,545.9176198535738
682,545.9121908285284
683,545.9073023125587
684,545.9029455891438
685,545.8991100826039
686,545.8957832921133
687,545.8929507101684
688,545.8905957247794
689,545.8886995062312
690,545.8872408806083
691,545.8861961934322
692,545.8855391674912
693,545.8852407588522
694,545.8852690143526
695,545.8855889334687
696,545.8861623381271
697,545.8869477556283
698,545.8879003217373
699,545.8889717125779
700,545.8901101150735
701,545.8912602462532
702,545.8923634314207
703,545.893357749258
704,545.8941782483474
705,545.8947572353418
706,545.8950246312767
707,545.894908389754
708,545.8943349687489
709,545.893229846418
710,545.8915180706654
711,545.8891248324713
712,545.8859760539717
713,545.8819989837539
714,545.8771227936409
715,545.8712791730815
716,545.8644029187752
717,545.8564325180976
718,545.8473107252074
719,545.8369851284777
720,545.825408707192
721,545.8125403743186
722,545.7983455005406
723,545.7827964127673
724,545.7658728586912
725,545.7475624281687
726,545.727860922433
727,545.7067726628583
728,545.6843107314476
729,545.6604971350732
730,545.6353628852147
731,545.6089479852078
732,545.581301318205
733,545.5524804309653
734,545.5225512109938
735,545.4915874575479
736,545.459670350749
737,545.4268878270535
738,545.3933338727941
739,545.3591077497765
740,545.3243131679098
741,545.2890574196824
742,545.2534504900997
743,545.2176041537605
744,545.1816310688126
745,545.1456438762588
746,545.1097543126659
747,545.0740723447137
748,545.0387053350479
749,545.0037572500156
750,544.9693279203079
751,544.9355123649626
752,544.9024001877357
753,544.8700750528811
754,544.8386142453307
755,544.8080883185488
756,544.7785608320793
757,544.7500881798195
758,544.7227195090582
759,544.6964967292313
760,544.671454608318
761,544.6476209539342
762,544.6250168754391
763,544.6036571226499
764,544.5835504959105
765,544.564700321107
766,544.547104981855
767,544.5307584998989
768,544.5156511540572
769,544.5017701277707
770,544.4891001752757
771,544.4776242965293
772,544.4673244111308
773,544.4581820214338
774,544.4501788547914
775,544.443297474726
776,544.437521851069
777,544.4328378798049
778,544.4292338445099
779,544.426700812999
780,544.4252329647771
781,544.4248278464203
782,544.4254865527632
783,544.4272138321875
784,544.4300181150104
785,544.4339114654089
786,544.4389094593984
787,544.4450309934766
788,544.4522980299663
789,544.4607352858906
790,544.4703698727794
791,544.4812308951869
792,544.4933490156862
793,544.5067559936233
794,544.5214842042521
795,544.5375661445423
796,544.5550339319891
797,544.573918802748
798,544.5942506150648
799,544.6160573635229
800,544.6393647093875
801,544.6641955320919
802,544.6905695062576
803,544.7185027075437
804,544.7480072496227
805,544.7790909541037
806,544.8117570552307
807,544.8460039412007
808,544.8818249336277
809,544.9192081059647
810,544.9581361407505
811,544.9985862246691
812,545.040529979804
813,545.0839334290257
814,545.1287569928068
815,545.1749555139835
816,545.2224783065718
817,545.2712692249295
818,545.3212667501235
819,545.3724040912118
820,545.4246093005065
821,545.4778054037384
822,545.5319105478966
823,545.5868381709269
824,545.6424971981038
825,545.6987922693951
826,545.7556240005096
827,545.8128892781101
828,545.8704815875774
829,545.9282913701998
830,545.9862064060345
831,546.044112219126
832,546.1018925031975
833,546.1594295678487
834,546.2166048068277
835,546.2732991903343
836,546.3293937823661
837,546.3847702822401
838,546.439311587259
839,546.4929023716495
840,546.5454296758336
841,546.5967834998182
842,546.6468573945826
843,546.6955490452076
844,546.7427608387352
845,546.788400408382
846,546.8323811442807
847,546.8746226602821
848,546.9150512072757
849,546.9536000258717
850,546.9902096341616
851,547.0248280487227
852,547.0574109388266
853,547.0879217151994
854,547.1163315558375
855,547.1426193724219
856,547.1667717218819
857,547.188782668523
858,547.2086536025515
859,547.2263930206626
860,547.2420162738366
861,547.2555452871236
862,547.2670082563008
863,547.2764393265398
864,547.2838782579714
865,547.2893700821523
866,547.2929647524617
867,547.2947167908185
868,547.294684932691
869,547.2929317717227
870,547.2895234042766
871,547.2845290731424
872,547.2780208091261
873,547.2700730694113
874,547.2607623721711
875,547.250166927503
876,547.2383662650502
877,547.2254408586255
878,547.2114717480486
879,547.1965401586759
880,547.1807271197821
881,547.1641130838899
882,547.1467775501321
883,547.1287986953134
884,547.1102530161561
885,547.0912149855919
886,547.0717567256775
887,547.0519476998634
888,547.031854427331
889,547.0115402214706
890,546.9910649534548
891,546.9704848409369
892,546.9498522618655
893,546.9292155943781
894,546.9086190851359
895,546.8881027496019
896,546.8677023080586
897,546.8474491603059
898,546.8273704002371
899,546.8074888698292
900,546.7878232513173
901,546.7683881964382
902,546.749194491952
903,546.7302492605967
904,546.7115561959968
905,546.6931158289708
906,546.6749258215012
907,546.6569812836162
908,546.6392751075955
909,546.6217983132645
910,546.60454039797
911,546.5874896854533
912,546.57063366919
913,546.5539593472577
914,546.5374535467233
915,546.5211032357728
916,546.5048958217272
