frame_number,force
0,545.0215081661437
1,545.0314914510654
2,545.0419227316644
3,545.0527985354255
4,545.0641147177678
5,545.0758663008812
6,545.088047338947
7,545.1006508167628
8,545.1136685849209
9,545.1270913313036
10,545.1409085862261
11,545.1551087571057
12,545.1696791876108
13,545.1846062352968
14,545.1998753609099
15,545.2154712226311
16,545.2313777700531
17,545.2475783351769
18,545.2640557199678
19,545.2807922809411
20,545.2977700106309
21,545.3149706145903
22,545.3323755822312
23,545.3499662509361
24,545.3677238644144
25,545.3856296267211
26,545.4036647524704
27,545.4218105125789
28,545.4400482742523
29,545.4583595339634
30,545.4767259425432
31,545.4951293221421
32,545.5135516758223
33,545.5319751918208
34,545.55038224557
35,545.568755402837
36,545.5870774267314
37,545.6053312901253
38,545.6235001935628
39,545.641567587192
40,545.6595171937689
41,545.6773330284708
42,545.6949994103976
43,545.712500960776
44,545.7298225844374
45,545.7469494340563
46,545.7638668601913
47,545.7805603531589
48,545.7970154839473
49,545.813217850323
50,545.8291530318829
51,545.8448065559296
52,545.8601638760313
53,545.8752103666853
54,545.8899313391239
55,545.904312083738
56,545.9183379435206
57,545.9319944207609
58,545.9452673167528
59,545.9581429021955
60,545.9706081142778
61,545.9826507746895
62,545.9942598210957
63,546.0054255438162
64,546.0161398200936
65,546.0263963397749
66,546.0361908175576
67,546.045521187988
68,546.0543877806442
69,546.0627934746839
70,546.0707438336905
71,546.0782472224959
72,546.0853149067195
73,546.0919611333784
74,546.0982031881239
75,546.1040614225785
76,546.1095592444242
77,546.1147230633399
78,546.1195821875415
79,546.1241686686977
80,546.1285170971621
81,546.1326643536396
82,546.1366493262075
83,546.1405126026976
84,546.1442961485707
85,546.1480429802483
86,546.1517968434399
87,546.1556019051078
88,546.1595024664026
89,546.1635427022696
90,546.1677664313937
91,546.1722169177757
92,546.1769367029606
93,546.1819674660776
94,546.1873499072572
95,546.1931236486813
96,546.1993271471407
97,546.2059976130902
98,546.2131709334905
99,546.2208815980467
100,546.2291626297847
101,546.238045520982
102,546.2475601745742
103,546.2577348497044
104,546.2685961085157
105,546.2801687600744
106,546.2924757968409
107,546.3055383193973
108,546.3193754459953
109,546.3340042048793
110,546.3494394092246
111,546.3656935161893
112,546.3827764721045
113,546.400695545369
114,546.4194551482428
115,546.4390566489991
116,546.459498176253
117,546.4807744171561
118,546.5028764109173
119,546.5257913397988
120,546.5495023214622
121,546.5739882080837
122,546.5992233979503
123,546.6251776645781
124,546.651816007753
125,546.6790985306963
126,546.7069803474758
127,546.7354115243638
128,546.7643370580515
129,546.7936968927861
130,546.8234259777541
131,546.8534543651828
132,546.8837073483879
133,546.9141056376264
134,546.9445655708795
135,546.9749993571718
136,547.0053153513553
137,547.0354183604734
138,547.0652099822272
139,547.0945889758793
140,547.1234516656415
141,547.1516923763897
142,547.1792039013382
143,547.2058780009648
144,547.2316059319461
145,547.256279004043
146,547.279789161764
147,547.302029586206
148,547.3228953109916
149,547.3422838452444
150,547.3600957964968
151,547.3762354871147
152,547.3906115589174
153,547.4031375623426
154,547.4137325288016
155,547.4223215268622
156,547.4288362032705
157,547.4332153080038
158,547.435405199136
159,547.4353603195004
160,547.4330436342891
161,547.428427017731
162,547.4214915779655
163,547.4122279116505
164,547.4006362830966
165,547.3867267262656
166,547.3705190711931
167,547.3520428987556
168,547.3313374291466
169,547.3084513503145
170,547.2834425932422
171,547.2563780613622
172,547.227333321475
173,547.1963922633076
174,547.1636467345089
175,547.1291961574484
176,547.0931471333082
177,547.055613037338
178,547.0167136069564
179,546.9765745223539
180,546.9353269781794
181,546.8931072448538
182,546.8500562181497
183,546.8063189549292
184,546.7620441913226
185,546.7173838380446
186,546.6724924468797
187,546.627526642982
188,546.5826445192375
189,546.538004990907
190,546.4937671106314
191,546.4500893455476
192,546.4071288197571
193,546.3650405266226
194,546.3239765162408
195,546.2840850640257
196,546.2455098267486
197,546.2083889928928
198,546.1728544350124
199,546.1390308727913
200,546.1070350562578
201,546.0769749789514
202,546.0489491308567
203,546.0230458007235
204,545.9993424369753
205,545.9779050756299
206,545.9587878423088
207,545.942032533584
208,545.9276682811583
209,545.9157113013888
210,545.9061647325478
211,545.899018562452
212,545.8942496491543
213,545.8918218370602
214,545.8916861698267
215,545.8937811993915
216,545.8980333877028
217,545.9043575950521
218,545.9126576471826
219,545.9228269727118
220,545.934749302487
221,545.9482994228265
222,545.9633439750022
223,545.9797422937245
224,545.9973472776745
225,546.0160062853397
226,546.0355620498103
227,546.0558536068324
228,546.0767172308858
229,546.0979873740669
230,546.1194976021366
231,546.1410815214374
232,546.1625736897371
233,546.1838105036998
234,546.2046310556519
235,546.2248779524591
236,546.2443980898145
237,546.2630433763658
238,546.2806714034613
239,546.2971460569731
240,546.3123380676105
241,546.3261254963828
242,546.3383941530141
243,546.3490379464805
244,546.3579591676296
245,546.3650687042137
246,546.3702861893283
247,546.373540085383
248,546.3747677069423
249,546.3739151865981
250,546.3709373883677
251,546.3657977732139
252,546.3584682215362
253,546.3489288180202
254,546.33716760474
255,546.323180308536
256,546.3069700484588
257,546.2885470287
258,546.2679282220817
259,546.245137048857
260,546.2202030552248
261,546.1931615952205
262,546.1640535182217
263,546.1329248624672
264,546.0998265535918
265,546.0648141067968
266,546.0279473317698
267,545.9892900403916
268,545.9489097583055
269,545.9068774422291
270,545.8632672049
271,545.8181560485792
272,545.77162360667
273,545.723751892055
274,545.6746250504145
275,545.6243291168125
276,545.5729517740109
277,545.52058211124
278,545.4673103825187
279,545.4132277640433
280,545.3584261104355
281,545.3029977095455
282,545.247035035171
283,545.1906304970407
284,545.1338761881838
285,545.0768636312293
286,545.0196835265459
287,544.96242550587
288,544.905177895148
289,544.848027489991
290,544.7910593466945
291,544.7343565914057
292,544.6780002496118
293,544.622069097265
294,544.566639533478
295,544.5117854733563
296,544.457578258674
297,544.4040865839278
298,544.3513764358254
299,544.2995110451437
300,544.2485508504412
301,544.1985534728602
302,544.149573700593
303,544.1016634812765
304,544.0548719209411
305,544.009245288751
306,543.9648270270402
307,543.92165776601
308,543.879775342494
309,543.839214822811
310,543.8000085305429
311,543.7621860802661
312,543.7257744174493
313,543.6907978635033
314,543.6572781642817
315,543.6252345404077
316,543.594683737948
317,543.5656400773721
318,543.5381154974378
319,543.5121195895379
320,543.4876596182858
321,543.4647405258987
322,543.4433649202106
323,543.4235330477333
324,543.4052427540161
325,543.3884894344567
326,543.3732659800519
327,543.3595627236364
328,543.3473673920429
329,543.3366650683168
330,543.3274381666923
331,543.3196664225699
332,543.3133269001972
333,543.3083940212232
334,543.304839617181
335,543.302633008311
336,543.3017411101066
337,543.3021285676576
338,543.303757916596
339,543.3065897685337
340,543.3105830182003
341,543.3156950687294
342,543.3218820707036
343,543.3290991697914
344,543.3373007571106
345,543.346440716017
346,543.3564726591618
347,543.3673501504038
348,543.3790269072468
349,543.3914569806396
350,543.4045949102335
351,543.418395854824
352,543.4328156996512
353,543.4478111436548
354,543.4633397700193
355,543.4793601028229
356,543.4958316520926
357,543.5127149493139
358,543.5299715753858
359,543.5475641832265
360,543.5654565177924
361,543.5836134369707
362,543.6020009370136
363,543.6205861852692
364,543.6393375610332
365,543.6582247034654
366,543.6772185647354
367,543.6962914668663
368,543.7154171612301
369,543.7345708897014
370,543.7537294462676
371,543.7728712379155
372,543.7919763440809
373,543.8110265746303
374,543.8300055267634
375,543.8488986411228
376,543.8676932570877
377,543.8863786670437
378,543.9049461692041
379,543.9233891180758
380,543.9417029709145
381,543.9598853275905
382,543.9779359603184
383,543.9958568290165
384,544.0136520778494
385,544.0313280087198
386,544.0488930280661
387,544.0663575645158
388,544.0837339568445
389,544.1010363138956
390,544.1182803497953
391,544.1354831984467
392,544.152663211149
393,544.1698397409358
394,544.1870329173523
395,544.2042634160719
396,544.221552228825
397,544.2389204401647
398,544.2563890179796
399,544.2739786239935
400,544.2917094488286
401,544.3096010739888
402,544.3276723608699
403,544.3459413650838
404,544.3644252733595
405,544.3831403601708
406,544.402101961762
407,544.4213244657509
408,544.4408213145397
409,544.4606050204092
410,544.4806871898326
411,544.501078554658
412,544.5217890084613
413,544.5428276471818
414,544.5642028137493
415,544.5859221468014
416,544.6079926337809
417,544.6304206683833
418,544.6532121112065
419,544.676372350722
420,544.6999063600591
421,544.7238187443568
422,544.7481137738888
423,544.7727953993838
424,544.7978672473608
425,544.8233325946286
426,544.8491943222059
427,544.8754548495883
428,544.902116050429
429,544.929179150627
430,544.956644609945
431,544.9845119887646
432,545.0127798021335
433,545.0414453634753
434,545.0705046202456
435,545.0999519838584
436,545.1297801566398
437,545.1599799591949
438,545.1905401618712
439,545.2214473238392
440,545.2526856431397
441,545.284236821243
442,545.3160799461393
443,545.3481913986011
444,545.3805447870224
445,545.4131109168518
446,545.4458578003313
447,545.4787507104276
448,545.5117522798362
449,545.5448226431201
450,545.5779196188311
451,545.6109989290692
452,545.6440144551922
453,545.6769185288147
454,545.7096622562426
455,545.7421958724203
456,545.7744691180197
457,545.8064316311122
458,545.8380333436297
459,545.8692248730571
460,545.8999579013259
461,545.9301855348606
462,545.95986264125
463,545.9889461588209
464,546.0173953760299
465,546.0451721788788
466,546.0722412664272
467,546.0985703357095
468,546.1241302370191
469,546.1488950991828
470,546.1728424235889
471,546.1959531460541
472,546.2182116667549
473,546.2396058497541
474,546.2601269945868
475,546.2797697826667
476,546.2985322009486
477,546.3164154445961
478,546.3334237995977
479,546.3495645056706
480,546.3648475996864
481,546.3792857402392
482,546.3928940147993
483,546.405689732281
484,546.4176922058264
485,546.4289225324674
486,546.4394033770602
487,546.4491587669086
488,546.458213901196
489,546.4665949768657
490,546.4743290307855
491,546.4814437968837
492,546.4879675760154
493,546.4939291155688
494,546.4993574954651
495,546.504282017191
496,546.5087320926508
497,546.5127371300028
498,546.516326414314
499,546.5195289816035
500,546.5223734853955
501,546.5248880554251
502,546.5271001489334
503,546.5290363960754
504,546.5307224422153
505,546.5321827913082
506,546.5334406560203
507,546.5345178211866
508,546.5354345270158
509,546.5362093771654
510,546.5368592750973
511,546.537399390461
512,546.5378431556436
513,546.5382022911847
514,546.5384868578295
515,546.5387053328866
516,546.5388647091836
517,546.5389706157831
518,546.5390274601696
519,546.5390385916653
520,546.539006485478
521,546.5389329460593
522,546.5388193272806
523,546.5386667653942
524,546.5384764193998
525,546.5382497130425
526,546.5379885734137
527,546.5376956624441
528,546.5373745986803
529,546.5370301672175
530,546.5366685156155
531,546.5362973334362
532,546.5359260128863
533,546.5355657877801
534,546.5352298476197
535,546.5349334234398
536,546.5346938425829
537,546.5345305505062
538,546.534465098417
539,546.5345210955574
540,546.5347241244184
541,546.5351016163027
542,546.5356826837168
543,546.5364979053894
544,546.5375790598408
545,546.5389588049289
546,546.5406703038834
547,546.5427468026138
548,546.5452211675464
549,546.5481253968816
550,546.5514901204448
551,546.5553441041845
552,546.5597137749503
553,546.5646227795127
554,546.5700915890669
555,546.5761371573909
556,546.5827726383288
557,546.5900071665365
558,546.5978457036588
559,546.6062889497093
560,546.6153333168502
561,546.6249709608518
562,546.6351898642997
563,546.645973964597
564,546.657303318765
565,546.6691542963795
566,546.6814997922266
567,546.6943094514933
568,546.7075499020652
569,546.7211849902578
570,546.7351760177463
571,546.7494819785477
572,546.7640597956207
573,546.7788645569183
574,546.7938497505107
575,546.8089674979626
576,546.8241687848619
577,546.8394036873823
578,546.8546215938295
579,546.8697714201352
580,546.8848018184202
581,546.899661378383
582,546.9142988223101
583,546.9286631953829
584,546.9427040532553
585,546.95637164869
586,546.9696171186076
587,546.9823926721828
588,546.9946517794856
589,547.0063493587166
590,547.0174419587978
591,547.0278879335167
592,547.0376476036159
593,547.0466834036991
594,547.0549600112514
595,547.0624444556405
596,547.0691062060394
597,547.0749172388417
598,547.0798520870827
599,547.0838878760893
600,547.0870043503405
601,547.089183896041
602,547.0904115628222
603,547.0906750868928
604,547.0899649167358
605,547.0882742408979
606,547.0855990161251
607,547.0819379936752
608,547.0772927419309
609,547.0716676637688
610,547.0650700071882
611,547.0575098675566
612,547.0490001795915
613,547.039556696856
614,547.0291979561983
615,547.01794522457
616,547.0058224263585
617,546.9928560506066
618,546.9790750385537
619,546.9645106522179
620,546.9491963244622
621,546.9331674908018
622,546.9164614033833
623,546.8991169280118
624,546.8811743258163
625,546.8626750220224
626,546.843661365049
627,546.8241763794728
628,546.8042635161473
629,546.7839664021855
630,546.7633285932288
631,546.7423933308567
632,546.721203308862
633,546.6998004527882
634,546.6782257169955
635,546.6565189025044
636,546.6347184973282
637,546.6128615395896
638,546.5909835030436
639,546.569118204828
640,546.5472977356743
641,546.5255524127109
642,546.5039107546706
643,546.482399479446
644,546.4610435242465
645,546.4398660883008
646,546.4188886971499
647,546.3981312868844
648,546.3776123065404
649,546.3573488367825
650,546.3373567225239
651,546.3176507164508
652,546.2982446300583
653,546.2791514888168
654,546.2603836880223
655,546.2419531454001
656,546.2238714459085
657,546.206149974058
658,546.1888000296128
659,546.1718329233009
660,546.1552600495096
661,546.1390929329982
662,546.1233432472151
663,546.1080228033472
664,546.0931435112752
665,546.0787173151565
666,546.0647561068911
667,546.0512716206104
668,546.0382753114299
669,546.025778222486
670,546.013790845209
671,546.0023229778863
672,545.991383586564
673,545.9809806709497
674,545.9711211371167
675,545.9618106787063
676,545.9530536685048
677,545.9448530620401
678,545.9372103140377
679,545.9301253076474
680,545.9235962955653
681,545.9176198511487
682,545.9121908261403
683,545.9073023102069
684,545.9029455868276
685,545.8991100803229
686,545.8957832898669
687,545.8929507079562
688,545.8905957226002
689,545.8886995040842
690,545.8872408784924
691,545.886196191346
692,545.8855391654328
693,545.8852407568193
694,545.8852690123424
695,545.8855889314782
696,545.8861623361527
697,545.8869477536662
698,545.887900319783
699,545.8889717106263
700,545.8901101131186
701,545.8912602442879
702,545.8923634294374
703,545.893357747249
704,545.8941782463047
705,545.8947572332576
706,545.8950246291433
707,545.8949083875641
708,545.894334966495
709,545.8932298440931
710,545.8915180682632
711,545.8891248299865
712,545.8859760513997
713,545.8819989810906
714,545.8771227908833
715,545.8712791702276
716,545.8644029158246
717,545.8564325150514
718,545.8473107220691
719,545.836985125252
720,545.8254087038848
721,545.8125403709371
722,545.7983454970927
723,545.7827964092616
724,545.7658728551363
725,545.7475624245737
726,545.7278609188069
727,545.7067726592102
728,545.6843107277865
729,545.6604971314081
730,545.635362881554
731,545.6089479815594
732,545.5813013145759
733,545.5524804273616
734,545.5225512074207
735,545.4915874540095
736,545.4596703472487
737,545.4268878235941
738,545.3933338693779
739,545.3591077464056
740,545.324313164586
741,545.2890574164076
742,545.253450486876
743,545.2176041505903
744,545.1816310656984
745,545.1456438732031
746,545.1097543096714
747,545.0740723417831
748,545.0387053321831
749,545.0037572472178
750,544.9693279175773
751,544.9355123622988
752,544.9024001851382
753,544.870075050349
754,544.8386142428626
755,544.8080883161427
756,544.7785608297329
757,544.7500881775298
758,544.722719506822
759,544.6964967270452
760,544.6714546061784
761,544.6476209518379
762,544.6250168733831
763,544.6036571206308
764,544.5835504939249
765,544.564700319151
766,544.5471049799245
767,544.53075849799
768,544.5156511521664
769,544.5017701258948
770,544.4891001734121
771,544.4776242946755
772,544.4673244092845
773,544.4581820195926
774,544.4501788529526
775,544.4432974728866
776,544.4375218492256
777,544.4328378779538
778,544.4292338426475
779,544.4267008111211
780,544.4252329628792
781,544.4248278444974
782,544.4254865508101
783,544.4272138301984
784,544.4300181129794
785,544.4339114633297
786,544.4389094572643
787,544.4450309912811
788,544.4522980277023
789,544.460735283551
790,544.4703698703573
791,544.4812308926761
792,544.4933490130818
793,544.506755990921
794,544.5214842014483
795,544.5375661416338
796,544.5550339289728
797,544.5739187996211
798,544.5942506118246
799,544.6160573601669
800,544.6393647059132
801,544.6641955284972
802,544.6905695025406
803,544.7185027037033
804,544.7480072456581
805,544.7790909500146
806,544.8117570510173
807,544.8460039368633
808,544.8818249291677
809,544.9192081013839
810,544.958136136052
811,544.9985862198572
812,545.0405299748844
813,545.0839334240052
814,545.1287569876927
815,545.1749555087836
816,545.222478301294
817,545.2712692195819
818,545.3212667447144
819,545.3724040857496
820,545.424609295
821,545.4778053981964
822,545.531910542328
823,545.5868381653407
824,545.6424971925095
825,545.6987922638021
826,545.7556239949279
827,545.8128892725499
828,545.870481582049
829,545.9282913647136
830,545.9862064006005
831,546.0441122137536
832,546.1018924978954
833,546.1594295626245
834,546.2166048016878
835,546.2732991852845
836,546.3293937774106
837,546.3847702773821
838,546.4393115825011
839,546.4929023669933
840,546.5454296712804
841,546.5967834953689
842,546.6468573902365
843,546.6955490409629
844,546.7427608345891
845,546.7884004043312
846,546.8323811403213
847,546.8746226564099
848,546.9150512034862
849,546.9536000221601
850,546.9902096305236
851,547.0248280451541
852,547.0574109353233
853,547.0879217117582
854,547.1163315524557
855,547.1426193690969
856,547.1667717186117
857,547.1887826653054
858,547.2086535993843
859,547.2263930175436
860,547.2420162707637
861,547.2555452840942
862,547.2670082533123
863,547.2764393235894
864,547.2838782550562
865,547.2893700792694
866,547.2929647496082
867,547.294716787992
868,547.2946849298888
869,547.2929317689421
870,547.2895234015143
871,547.2845290703948
872,547.2780208063893
873,547.2700730666814
874,547.2607623694447
875,547.2501669247761
876,547.2383662623186
877,547.2254408558844
878,547.2114717452936
879,547.196540155903
880,547.1807271169869
881,547.1641130810681
882,547.1467775472795
883,547.1287986924262
884,547.1102530132313
885,547.0912149826271
886,547.071756722671
887,547.0519476968141
888,547.0318544242382
889,547.011540218334
890,546.9910649502746
891,546.9704848377135
892,546.9498522585998
893,546.929215591071
894,546.9086190817892
895,546.8881027462178
896,546.8677023046401
897,546.8474491568569
898,546.827370396762
899,546.8074888663327
900,546.7878232478042
901,546.7683881929134
902,546.7491944884204
903,546.7302492570625
904,546.7115561924641
905,546.6931158254431
906,546.6749258179818
907,546.6569812801082
908,546.6392751041012
909,546.6217983097856
910,546.6045403945076
911,546.587489682008
912,546.570633665762
913,546.5539593438465
914,546.537453543328
915,546.5211032323919
916,546.504895818359
917,546.4888194294696
918,546.4728631776222
