frame_number,force
0,545.0183816893613
1,545.0285938541554
2,545.0392825854445
3,545.050441331259
4,545.0620628602397
5,545.0741391878397
6,545.0866615151456
7,545.0996201836123
8,545.1130046472165
9,545.1268034619706
10,545.1410042916164
11,545.155593927649
12,545.1705583213924
13,545.1858826254133
14,545.201551241175
15,545.217547869877
16,545.2338555641284
17,545.250456779252
18,545.2673334240571
19,545.2844669113462
20,545.3018382081337
21,545.3194278849943
22,545.3372161637957
23,545.3551829635908
24,545.3733079451459
25,545.3915705547862
26,545.4099500678232
27,545.428425631271
28,545.4469763052656
29,545.4655811026056
30,545.4842190260056
31,545.5028691029338
32,545.5215104183654
33,545.5401221463641
34,545.5586835818808
35,545.5771741742776
36,545.5955735637907
37,545.6138616215828
38,545.6320184933465
39,545.6500246456974
40,545.6678609138992
41,545.6855085488512
42,545.7029492608567
43,545.7201652577477
44,545.7371392756511
45,545.7538546020197
46,545.7702950921853
47,545.7864451820648
48,545.802289900185
49,545.817814881698
50,545.8330063859418
51,545.8478513182278
52,545.8623372565244
53,545.8764524844182
54,545.8901860324819
55,545.9035277303736
56,545.9164682714966
57,545.9289992910408
58,545.9411134570897
59,545.9528045735109
60,545.9640676925704
61,545.9748992344097
62,545.9852971097367
63,545.9952608417242
64,546.0047916834076
65,546.0138927275549
66,546.0225690066007
67,546.0308275807297
68,546.0386776127785
69,546.0461304294537
70,546.0531995691808
71,546.0599008172675
72,546.0662522286426
73,546.0722741373519
74,546.0779891507154
75,546.08342212511
76,546.0886001199826
77,546.0935523269276
78,546.0983099714468
79,546.1029061864356
80,546.1073758583807
81,546.1117554492174
82,546.1160827981056
83,546.1203969079157
84,546.1247377212928
85,546.1291458911164
86,546.1336625499968
87,546.1383290830596
88,546.1431869076845
89,546.1482772631305
90,546.1536410120638
91,546.1593184549213
92,546.1653491570153
93,546.1717717874398
94,546.1786239681156
95,546.1859421307242
96,546.1937613791133
97,546.2021153552876
98,546.2110361081686
99,546.2205539653874
100,546.2306974089964
101,546.2414929560284
102,546.2529650444122
103,546.2651359240921
104,546.2780255524627
105,546.2916514926744
106,546.3060288131338
107,546.3211699866578
108,546.3370847881171
109,546.3537801900402
110,546.3712602565024
111,546.3895260363754
112,546.4085754572345
113,546.4284032209874
114,546.4490007020923
115,546.4703558493283
116,546.4924530922196
117,546.5152732531233
118,546.5387934658494
119,546.5629871019705
120,546.5878237067349
121,546.6132689471741
122,546.6392845750911
123,546.6658284072619
124,546.6928543248466
125,546.7203122938716
126,546.7481484085581
127,546.7763049590362
128,546.8047205245725
129,546.8333300930005
130,546.862065206656
131,546.8908541346806
132,546.919622070937
133,546.948291356099
134,546.9767817221034
135,547.0050105573233
136,547.0328931914044
137,547.0603431992039
138,547.087272723436
139,547.1135928154977
140,547.1392137937926
141,547.1640456187437
142,547.187998283566
143,547.2109822196919
144,547.232908715477
145,547.2536903464248
146,547.2732414146383
147,547.2914783945498
148,547.3083203812874
149,547.3236895375912
150,547.3375115351773
151,547.349715986777
152,547.3602368656027
153,547.3690129097845
154,547.3759880104066
155,547.3811115827259
156,547.3843389203581
157,547.3856315314176
158,547.3849574540599
159,547.3822915471688
160,547.3776157506643
161,547.3709193094971
162,547.3621989559075
163,547.3514590456987
164,547.3387116458455
165,547.3239765724593
166,547.3072813796867
167,547.2886613012776
168,547.2681591472947
169,547.2458251589194
170,547.221716824666
171,547.1958986615799
172,547.168441965099
173,547.1394245312224
174,547.1089303545413
175,547.0770493055517
176,547.0438767903371
177,547.0095133950164
178,546.974064516405
179,546.9376399794611
180,546.9003536416419
181,546.8623229843324
182,546.8236686916005
183,546.7845142162275
184,546.7449853322634
185,546.7052096726501
186,546.6653162501864
187,546.6254349604084
188,546.5856960657246
189,546.5462296610651
190,546.5071651221765
191,546.4686305384649
192,546.4307521329787
193,546.3936536726786
194,546.3574558725383
195,546.3222757972615
196,546.2882262645735
197,546.2554152542402
198,546.223945327324
199,546.1939130606029
200,546.1654085013838
201,546.1385146480472
202,546.1133069616113
203,546.0898529134507
204,546.0682115740505
205,546.0484332472433
206,546.030559153689
207,546.0146211664293
208,546.0006416004708
209,545.9886330578096
210,545.9785983291802
211,545.9705303538391
212,545.9644122386416
213,545.9602173374363
214,545.9579093912547
215,545.9574427287668
216,545.9587625251118
217,545.9618051159022
218,545.9664983623263
219,545.9727620629116
220,545.9805084074787
221,545.9896424689102
222,546.0000627284776
223,546.0116616306091
224,546.0243261630576
225,546.0379384584779
226,546.0523764135713
227,546.0675143222106
228,546.0832235191507
229,546.0993730309066
230,546.1158302301728
231,546.1324614898376
232,546.1491328323423
233,546.1657105699669
234,546.1820619316142
235,546.1980556717405
236,546.2135626573222
237,546.2284564292853
238,546.242613735479
239,546.2559150326159
240,546.2682449546121
241,546.2794927449191
242,546.2895526510029
243,546.2983242798091
244,546.3057129134648
245,546.311629784692
246,546.3159923117648
247,546.3187242934291
248,546.3197560648132
249,546.3190246158072
250,546.3164736735969
251,546.3120537511473
252,546.30572216361
253,546.2974430149391
254,546.2871871572946
255,546.274932125931
256,546.2606620522198
257,546.2443675573446
258,546.2260456290969
259,546.2056994841121
260,546.1833384177692
261,546.1589776436911
262,546.1326381241671
263,546.1043463920133
264,546.0741343637835
265,546.0420391441038
266,546.0081028211678
267,545.9723722538887
268,545.9348988517119
269,545.8957383484894
270,545.8549505718469
271,545.8125992090418
272,545.7687515697007
273,545.7234783453902
274,545.6768533658293
275,545.6289533515722
276,545.5798576630688
277,545.5296480461358
278,545.478408374042
279,545.4262243865958
280,545.3731834267463
281,545.3193741751561
282,545.2648863830299
283,545.2098106034717
284,545.1542379219795
285,545.0982596873246
286,545.0419672446773
287,544.9854516731609
288,544.9288035300247
289,544.8721126034566
290,544.8154676758228
291,544.7589562989239
292,544.7026645826445
293,544.6466769979486
294,544.5910761945056
295,544.5359428325752
296,544.4813554283514
297,544.4273902118634
298,544.3741209967393
299,544.3216190615217
300,544.269953042452
301,544.2191888374964
302,544.1693895210572
303,544.1206152686447
304,544.0729232909291
305,544.02636777685
306,543.9809998455613
307,543.9368675069093
308,543.8940156301331
309,543.8524859207465
310,543.8123169059178
311,543.773543928736
312,543.7361991513583
313,543.7003115664514
314,543.66590701601
315,543.6330082166561
316,543.6016347905793
317,543.571803300998
318,543.5435272904125
319,543.5168173194006
320,543.4916810038118
321,543.4681230490285
322,543.4461452810148
323,543.4257466745938
324,543.4069233797787
325,543.389668747394
326,543.373973355839
327,543.3598250413334
328,543.347208933927
329,543.3361075009578
330,543.3265005989757
331,543.3183655349412
332,543.3116771377163
333,543.3064078410832
334,543.3025277794767
335,543.3000048973156
336,543.2988050723496
337,543.2988922528318
338,543.3002286077448
339,543.3027746888871
340,543.3064896033168
341,543.3113311942986
342,543.3172562285205
343,543.3242205869882
344,543.3321794566913
345,543.3410875199328
346,543.3508991382902
347,543.361568528524
348,543.373049928256
349,543.3852977497838
350,543.3982667209895
351,543.4119120130559
352,543.4261893556157
353,543.4410551406177
354,543.4564665163167
355,543.472381472559
356,543.4887589183028
357,543.5055587522064
358,543.5227419270988
359,543.5402705092501
360,543.5581077336305
361,543.5762180566703
362,543.5945672081439
363,543.6131222433826
364,543.6318515961397
365,543.6507251315671
366,543.6697141984156
367,543.6887916797136
368,543.7079320414184
369,543.7271113785607
370,543.7463074583209
371,543.7654997594893
372,543.784669507989
373,543.8037997084637
374,543.822875172136
375,543.8418825410989
376,543.8608103090722
377,543.8796488385774
378,543.8983903743906
379,543.9170290529202
380,543.9355609068164
381,543.9539838637012
382,543.9722977374673
383,543.9905042102813
384,544.0086068033395
385,544.026610834527
386,544.0445233614096
387,544.0623531085462
388,544.0801103789948
389,544.0978069509067
390,544.1154559608863
391,544.1330717761
392,544.1506698570552
393,544.1682666128582
394,544.1858792508244
395,544.2035256226247
396,544.2212240696576
397,544.2389932708192
398,544.2568520960249
399,544.2748194685275
400,544.2929142383067
401,544.3111550677799
402,544.3295603300439
403,544.3481480190161
404,544.3669356703638
405,544.3859402920651
406,544.4051783036766
407,544.4246654836169
408,544.4444169237973
409,544.4644469907638
410,544.4847692923527
411,544.5053966489122
412,544.52634106844
413,544.5476137253546
414,544.569224942893
415,544.5911841793006
416,544.6135000180618
417,544.6361801622684
418,544.6592314326997
419,544.6826597683822
420,544.7064702276346
421,544.7306669872627
422,544.7552533377667
423,544.7802316729773
424,544.8056034731796
425,544.8313692813881
426,544.8575286729397
427,544.8840802188747
428,544.9110214436311
429,544.9383487775336
430,544.9660575046111
431,544.9941417064871
432,545.0225942033376
433,545.0514064929921
434,545.0805686892089
435,545.1100694601608
436,545.1398959683568
437,545.1700338135067
438,545.2004669799593
439,545.2311777902595
440,545.2621468662811
441,545.2933530994679
442,545.3247736319252
443,545.3563838503817
444,545.3881573953836
445,545.4200661883526
446,545.452080478995
447,545.4841689146897
448,545.5162986320896
449,545.5484353698581
450,545.5805436008964
451,545.6125866826892
452,545.6445270249742
453,545.676326274134
454,545.7079455132476
455,545.7393454757787
456,545.7704867697479
457,545.801330108224
458,545.8318365414017
459,545.8619676856455
460,545.8916859455884
461,545.9209547262974
462,545.9497386332266
463,545.9780036580598
464,546.0057173488477
465,546.0328489634524
466,546.0593696061845
467,546.085252348105
468,546.1104723313114
469,546.1350068569291
470,546.1588354561388
471,546.1819399437412
472,546.2043044542964
473,546.2259154614987
474,546.2467617818928
475,546.2668345641889
476,546.2861272653016
477,546.3046356139342
478,546.3223575621715
479,546.3392932252821
480,546.3554448098917
481,546.3708165308877
482,546.3854145178008
483,546.3992467120647
484,546.4123227574786
485,546.4246538870617
486,546.4362528098421
487,546.4471336006724
488,546.4573115951109
489,546.4668032902666
490,546.4756262516727
491,546.4837990257296
492,546.4913410568261
493,546.498272607902
494,546.5046146830512
495,546.5103889507513
496,546.5156176663759
497,546.5203235928085
498,546.5245299182885
499,546.5282601709457
500,546.5315381297316
501,546.5343877316874
502,546.5368329758462
503,546.5388978245587
504,546.540606103601
505,546.5419814030697
506,546.5430469817335
507,546.5438256779322
508,546.544339830021
509,546.5446112087482
510,546.5446609631531
511,546.5445095807946
512,546.5441768623633
513,546.5436819100585
514,546.5430431286729
515,546.5422782382726
516,546.5414042976394
517,546.540437738042
518,546.5393944071499
519,546.5382896229183
520,546.5371382371115
521,546.5359547077898
522,546.5347531795481
523,546.5335475695802
524,546.5323516570219
525,546.5311791728521
526,546.5300438879738
527,546.5289596977136
528,546.5279407014991
529,546.5270012766952
530,546.5261561455774
531,546.5254204343362
532,546.5248097229475
533,546.5243400846313
534,546.5240281134398
535,546.5238909384581
536,546.5239462233508
537,546.5242121504391
538,546.524707388817
539,546.525451046048
540,546.5264626027399
541,546.5277618289099
542,546.5293686806314
543,546.5313031751455
544,546.5335852426889
545,546.5362345539918
546,546.5392703238338
547,546.5427110930256
548,546.5465744932554
549,546.5508770009234
550,546.555633687141
551,546.5608579714833
552,546.5665613868805
553,546.5727533622671
554,546.5794410283382
555,546.5866290503404
556,546.5943194906607
557,546.6025117031674
558,546.6112022604274
559,546.6203849138058
560,546.6300505852511
561,546.6401873886695
562,546.6507806782142
563,546.661813120332
564,546.6732647859059
565,546.685113258515
566,546.6973337549214
567,546.7098992544492
568,546.7227806347172
569,546.735946811975
570,546.7493648849446
571,546.7630002815513
572,546.7768169082431
573,546.790777301703
574,546.8048427826451
575,546.8189736111667
576,546.8331291429847
577,546.8472679858643
578,546.8613481555649
579,546.8753272306262
580,546.8891625053768
581,546.9028111408353
582,546.9162303136465
583,546.9293773635944
584,546.942209940367
585,546.9546861501595
586,546.9667647025001
587,546.9784050573459
588,546.9895675719762
589,547.000213646539
590,547.0103058665165
591,547.0198081401188
592,547.028685828709
593,547.036905868595
594,547.0444368827242
595,547.0512492810908
596,547.057315349172
597,547.0626093244751
598,547.0671074621844
599,547.0707880917006
600,547.0736316662312
601,547.0756208073785
602,547.0767403461878
603,547.0769773616238
604,547.0763212168937
605,547.0747635933354
606,547.0722985210024
607,547.0689224049029
608,547.0646340459967
609,547.0594346562233
610,547.053327866871
611,547.0463197295459
612,547.0384187089003
613,547.0296356661389
614,547.0199838321724
615,547.0094787693023
616,546.9981383206562
617,546.9859825471779
618,546.9730336524744
619,546.9593158959667
620,546.9448554946681
621,546.9296805138408
622,546.9138207468621
623,546.8973075848479
624,546.8801738769151
625,546.8624537823739
626,546.8441826164891
627,546.8253966916042
628,546.8061331553047
629,546.7864298270275
630,546.7663250343945
631,546.7458574507417
632,546.7250659357206
633,546.7039893811526
634,546.6826665642561
635,546.6611360098907
636,546.6394358627473
637,546.6176037697564
638,546.5956767726673
639,546.5736912108408
640,546.5516826344822
641,546.5296857284859
642,546.507734246919
643,546.4858609582161
644,546.4640976013037
645,546.4424748527206
646,546.4210223043849
647,546.3997684513316
648,546.378740688676
649,546.3579653170206
650,546.3374675552946
651,546.3172715597009
652,546.2974004472753
653,546.27787632257
654,546.258720305941
655,546.239952561696
656,546.2215923240739
657,546.2036579189652
658,546.1861667795428
659,546.1691354543212
660,546.1525796063324
661,546.1365140021292
662,546.1209524895886
663,546.1059079642068
664,546.0913923245174
665,546.0774164179908
666,546.0639899790177
667,546.0511215605305
668,546.0388184608627
669,546.0270866478108
670,546.0159306822924
671,546.0053536440413
672,545.9953570613189
673,545.9859408459726
674,545.9771032347754
675,545.9688407379318
676,545.9611480957046
677,545.9540182440144
678,545.9474422894779
679,545.9414094939209
680,545.9359072680218
681,545.9309211732599
682,545.9264349306479
683,545.9224304340605
684,545.9188877656497
685,545.9157852109395
686,545.9130992716624
687,545.9108046751402
688,545.9088743798168
689,545.9072795772702
690,545.9059896916264
691,545.9049723778185
692,545.9041935204469
693,545.9036172349379
694,545.9032058723536
695,545.9029200290045
696,545.9027185622991
697,545.9025586149921
698,545.9023956508378
699,545.9021835053712
700,545.9018744560321
701,545.9014193160951
702,545.9007675567036
703,545.8998674604038
704,545.8986663078983
705,545.8971105977678
706,545.8951462971679
707,545.8927191202258
708,545.8897748299413
709,545.8862595587611
710,545.882120142706
711,545.8773044640475
712,545.8717617979931
713,545.8654431595271
714,545.8583016473997
715,545.8502927831257
716,545.8413748435668
717,545.8315091861208
718,545.820660565714
719,545.8087974426983
720,545.7958922804635
721,545.781921831076
722,545.7668674065307
723,545.750715132333
724,545.7334561793923
725,545.7150869698771
726,545.6956093528255
727,545.6750307456696
728,545.6533642380749
729,545.6306286544675
730,545.6068485715265
731,545.5820542870784
732,545.5562817374125
733,545.5295723609561
734,545.5019729073914
735,545.473535192709
736,545.4443158024426
737,545.4143757472083
738,545.3837800762976
739,545.3525974561398
740,545.3208997209275
741,545.2887614026354
742,545.2562592471209
743,545.2234717221047
744,545.1904785219413
745,545.1573600734991
746,545.1241970472774
747,545.091069878052
748,545.0580582998163
749,545.0252409002769
750,544.9926947003586
751,544.9604947638895
752,544.9287138419477
753,544.8974220554144
754,544.866686618313
755,544.8365716036844
756,544.8071377531438
757,544.7784423307764
758,544.7505390215404
759,544.7234778738095
760,544.6973052851831
761,544.6720640302561
762,544.6477933286723
763,544.624528951417
764,544.6023033628886
765,544.5811458957231
766,544.561082954692
767,544.5421382454224
768,544.5243330233401
769,544.5076863580905
770,544.4922154086614
771,544.4779357044671
772,544.4648614276967
773,544.453005692202
774,544.4423808140776
775,544.4329985690188
776,544.4248704316598
777,544.4180077924225
778,544.4124221479448
779,544.4081252619687
780,544.4051292944985
781,544.4034468977596
782,544.4030912778599
783,544.4040762212599
784,544.4064160855191
785,544.4101257544617
786,544.4152205588975
787,544.4217161650287
788,544.4296284333501
789,544.4389732512561
790,544.4497663428449
791,544.4620230596198
792,544.4757581558039
793,544.4909855517825
794,544.5077180889108
795,544.5259672787864
796,544.5457430501292
797,544.5670534964202
798,544.589904627308
799,544.6143001265939
800,544.6402411195047
801,544.667725951866
802,544.6967499834846
803,544.7273053975515
804,544.7593810274075
805,544.7929622017929
806,544.8280306096992
807,544.8645641859385
808,544.9025370183847
809,544.9419192774973
810,544.9826771682827
811,545.0247729044204
812,545.0681647039781
813,545.1128068059134
814,545.158649506228
815,545.2056392122599
816,545.2537185133718
817,545.3028262663521
818,545.3528976940711
819,545.4038644962933
820,545.4556549721427
821,545.5081941545353
822,545.5614039577188
823,545.6152033396727
824,545.6695084813808
825,545.724232984726
826,545.7792880899694
827,545.8345829127267
828,545.8900246993513
829,545.9455190989142
830,546.0009704496438
831,546.0562820778765
832,546.1113566082045
833,546.1660962843731
834,546.220403301178
835,546.2741801477725
836,546.3273299623538
837,546.379756897316
838,546.4313664929574
839,546.4820660569732
840,546.5317650464791
841,546.5803754491856
842,546.6278121603951
843,546.6739933524499
844,546.7188408329138
845,546.762280387168
846,546.8042421004471
847,546.8446606540698
848,546.8834755910747
849,546.9206315476024
850,546.9560784477238
851,546.9897716605792
852,547.0216721195608
853,547.0517464039451
854,547.0799667839568
855,547.1063112307636
856,547.1307633934092
857,547.1533125451277
858,547.1739535017194
859,547.1926865146307
860,547.2095171411794
861,547.2244560942372
862,547.2375190737696
863,547.2487265827863
864,547.2581037301761
865,547.2656800225278
866,547.2714891466178
867,547.2755687439852
868,547.2779601788476
869,547.2787083003367
870,547.2778611995876
871,547.2754699617466
872,547.2715884127368
873,547.2662728607186
874,547.259581832463
875,547.251575805145
876,547.2423169342035
877,547.2318687778969
878,547.2202960191365
879,547.2076641853015
880,547.1940393670499
881,547.1794879375674
882,547.1640762741391
883,547.1478704841905
884,547.1309361378425
885,547.1133380087194
886,547.0951398246026
887,547.0764040295653
888,547.0571915591995
889,547.0375616302224
890,547.0175715452066
891,546.9972765127242
892,546.9767294831498
893,546.9559810007851
894,546.9350790735875
895,546.9140690622831
896,546.8929935907458
897,546.871892479104
898,546.8508027001992
899,546.8297583592242
900,546.8087906959852
901,546.7879281092604
902,546.76719620285
903,546.7466178528598
904,546.7262132954526
905,546.7060002337718
906,546.6859939621838
907,546.6662075054943
908,546.646651770391
909,546.6273357060552
910,546.6082664707876
911,546.5894496017738
912,546.5708891857317
913,546.5525880288683
914,546.5345478249966
915,546.51676932077
916,546.499252476952
