acceleration,velocity,displacement
-0.009057207140344317,0.0,0.0
-0.008875310458225134,-4.4831293996423635e-06,-1.120782349910591e-09
-0.008685011575237633,-8.873209908008055e-06,-4.4598671768231956e-09
-0.008486411606988813,-1.3166065703564668e-05,-9.969686079716377e-09
-0.008279623441253044,-1.735757446562513e-05,-1.760059612201383e-08
-0.00806477347391496,-2.144367369441713e-05,-2.7300908162024394e-08
-0.007842003057700402,-2.542036782732097e-05,-3.901691854245892e-08
-0.007611469587314507,-2.92837359885747e-05,-5.2692944496432844e-08
-0.007373347186324083,-3.302994018198435e-05,-6.827136353907261e-08
-0.007127826997597671,-3.6655233727964785e-05,-8.569265701655989e-08
-0.006875117105299325,-4.015596975368904e-05,-1.0489545788697335e-07
-0.006615442132065722,-4.35286095630303e-05,-1.2581660271615318e-07
-0.00634904256496262,-4.6769730737287384e-05,-1.483911877912326e-07
-0.00607617387399174,-4.9876034847025976e-05,-1.7255262918731093e-07
-0.0057971054958163275,-5.2844354689477995e-05,-1.9823272657143692e-07
-0.005512119754378064,-5.5671661002026595e-05,-2.2536173049431305e-07
-0.005221510773681868,-5.835506863404158e-05,-2.538684129033301e-07
-0.004925583411147391,-6.0891842180248896e-05,-2.836801406069027e-07
-0.0046246522156098615,-6.327940108693821e-05,-3.147229514236995e-07
-0.0043190404040681085,-6.55153242418577e-05,-3.469216327558985e-07
-0.004009078857930045,-6.759735405735724e-05,-3.801998023307022e-07
-0.0036951051525471535,-6.952340005997654e-05,-4.1447999086003565e-07
-0.003377462637540106,-7.129154200749835e-05,-4.4968372637690436e-07
-0.0030564995733290898,-7.290003256021566e-05,-4.857316200188328e-07
-0.0027325683127309387,-7.434729953173066e-05,-5.225434530418194e-07
-0.0024060245117298856,-7.563194773784587e-05,-5.600382648592135e-07
-0.002077226363159931,-7.675276045656832e-05,-5.98134441907817e-07
-0.0017465338600146925,-7.770870051236198e-05,-6.367498071500496e-07
-0.0014143081018736937,-7.849891100283408e-05,-6.758017100288486e-07
-0.0010809106576682988,-7.912271569271957e-05,-7.15207116702737e-07
-0.0007467029940668237,-7.957961910565336e-05,-7.548827004023303e-07
-0.000412045971968911,-7.98693063471623e-05,-7.947449317655342e-07
-7.729940293973848e-05,-7.999164269088945e-05,-8.347101690250472e-07
0.0002571783563135365,-7.9946672952546e-05,-8.74694747935906e-07
0.0005910308044933448,-7.973462066234429e-05,-9.146150713396286e-07
0.0009239037271746364,-7.93558870294273e-05,-9.543876982625715e-07
0.0012554456883405298,-7.881104967554851e-05,-9.939294324388155e-07
0.001585308598080124,-7.810086110394335e-05,-1.0331574101336885e-06
0.0019131483564893638,-7.722624686530097e-05,-1.0719891871259995e-06
0.0022386255570844556,-7.618830338690751e-05,-1.1103428246890517e-06
0.002561406216892689,-7.498829544341323e-05,-1.1481369743966318e-06
0.002881162486064481,-7.362765326767394e-05,-1.1852909615744036e-06
0.0031975732804727834,-7.210796932603962e-05,-1.221724867222832e-06
0.0035103247820662416,-7.043099481040486e-05,-1.257359608256943e-06
0.0038191107683880014,-6.85986359227913e-05,-1.292117015940242e-06
0.004123632763978013,-6.661295003969979e-05,-1.3259199124308648e-06
0.004423600044572231,-6.447614183756223e-05,-1.3586921854001802e-06
0.004718729557088802,-6.219055943714697e-05,-1.3903588607188575e-06
0.005008745830980729,-5.975869059012959e-05,-1.4208461732256766e-06
0.005293380944973449,-5.718315889614105e-05,-1.4500816355972443e-06
0.0055723745872745265,-5.4466720013079056e-05,-1.4779941053245493e-06
0.005845474226923188,-5.1612257809529625e-05,-1.5045138497802015e-06
0.006112435413722542,-4.862278039936819e-05,-1.529572609332426e-06
0.006373022240871466,-4.550141598571969e-05,-1.553103658428698e-06
0.006627008021802839,-4.2251408420051115e-05,-1.5750418645301405e-06
0.00687417623733469,-3.887611235526673e-05,-1.59532374472397e-06
0.0071143217976511255,-3.5378987846520274e-05,-1.6138875197744169e-06
0.00734725264015198,-3.17635942370695e-05,-1.6306731652953143e-06
0.007572791657532732,-2.803358316264832e-05,-1.6456224596452437e-06
0.007790778928000496,-2.419269051626501e-05,-1.658679028064972e-06
0.008001074201297913,-2.024472723394041e-05,-1.6697883825025233e-06
0.008203559575394117,-1.6193568789767404e-05,-1.6788979565084503e-06
0.00839814228033102,-1.204314332583612e-05,-1.6859571345373511e-06
0.00858475747720839,-7.797418386451267e-06,-1.690917274965423e-06
0.008763370987270803,-3.4603862703314697e-06,-1.6937317261296186e-06
0.00893398188170949,9.639519469136033e-07,-1.694355834710473e-06
0.009096624877247987,5.471603636652973e-06,-1.6927469458145813e-06
0.009251372493843177,1.0058602979425763e-05,-1.6888643941605615e-06
0.00939833694443676,1.4721030338995747e-05,-1.6826694858309562e-06
0.009537671745754138,1.945503251154347e-05,-1.6741254701183215e-06
0.009669573058203658,2.425684371253292e-05,-1.6631975010623024e-06
0.00979428077122117,2.9122807169889125e-05,-1.649852588341697e-06
0.009912079340510027,3.404939719782193e-05,-1.634059537249769e-06
0.010023298358124712,3.903324162248061e-05,-1.6157888775446935e-06
0.010128312806485778,4.407114441363324e-05,-1.595012781035665e-06
0.010227542925174778,4.916010834654838e-05,-1.5717049678456197e-06
0.010321453610842891,5.4297357480552794e-05,-1.5458406013888443e-06
0.010410553275659604,5.948035920217842e-05,-1.5173961722181615e-06
0.010495392107925,6.470684554807456e-05,-1.4863493710305983e-06
0.010576559711343202,6.997483350289162e-05,-1.4526789512678569e-06
0.010654682144731916,7.52826439669104e-05,-1.4163645819004065e-06
0.010730418429371637,8.062891911043628e-05,-1.3773866911310697e-06
0.01080445662172925,8.60126378732115e-05,-1.3357263018851577e-06
0.010877509561373124,9.14331294189871e-05,-1.291364860062108e-06
0.010950310405573203,9.689008441072368e-05,-1.2442840566046804e-06
0.011023608060658814,0.00010238356402728168,-1.1944656444951791e-06
0.011098162615886966,0.00010791400669641813,-1.1418912518142542e-06
0.011174740876316992,0.00011348223256946912,-1.0865421919977823e-06
0.01125411207735281,0.00011908944580788656,-1.0283992724034434e-06
0.011337043846336894,0.00012473723478880898,-9.674426022542696e-07
0.011424298454972753,0.0001304275703641364,-9.036514009660333e-07
0.011516629381038883,0.0001361628023231393,-8.370038077942143e-07
0.011614778173629015,0.00014194565421180627,-7.67476693660478e-07
0.011719471596375874,0.0001477792166543075,-6.950454759439495e-07
0.01183141900613079,0.00015366693930493416,-6.196839369541391e-07
0.011951309910741142,0.00015961262153415214,-5.413640467443675e-07
0.012079811645625969,0.0001656204019232439,-4.600557908800185e-07
0.012217567121112424,0.0001716947466149285,-3.757270037454754e-07
0.012365192617427275,0.00017784043654956342,-2.8834320795435243e-07
0.012523275629457303,0.00018406255361128456,-1.9786746041414046e-07
0.01269237277784648,0.0001903664657131105,-1.042602055830417e-07
0.012873007803923881,0.00019675781085855309,-7.479136440125798e-09
0.013065669656365938,0.00020324248022362553,9.252093633041886e-08
0.013270810661875477,0.00020982660030318588,1.9578820646212173e-07
0.013488844755279259,0.00021651651415747456,3.0237398507728686e-07
0.013720145731314583,0.000223318761779123,4.1233280406143625e-07
0.013965045475295161,0.00023024005958077544,5.257225094014108e-07
0.014223832132909018,0.00023728727898282648,6.426043440423113e-07
0.014496748188494621,0.00024446742406317737,7.630430198038123e-07
0.014783988436016565,0.00025178760821930517,8.871067778744329e-07
0.015085697847093314,0.00025925502979008263,1.01486743737678e-06
0.015401969358134109,0.00026687694659138946,1.146400431472148e-06
0.01573284160404334,0.00027466064933193385,1.2817848304529788e-06
0.0160782966207335,0.00028261343388812804,1.4211033512579942e-06
0.016438257534372003,0.0002907425724269044,1.5644423528367522e-06
0.016812586257754777,0.0002990552833749361,1.7118918167872123e-06
0.017201081217742525,0.0003075587002438104,1.863545312691899e-06
0.017603475135820782,0.00031625983933220123,2.019499947585902e-06
0.01801943288096022,0.0003251655663363965,2.179856299003051e-06
0.018448549420902717,0.00033428256191186224,2.344718331065116e-06
0.018890347916066932,0.0003436172862461047,2.514193293104608e-06
0.019344278016403763,0.00035317594272922233,2.6883916003484397e-06
0.019809714424112,0.00036296444083935126,2.867426696240583e-06
0.02028595577729858,0.0003729883583897039,3.0514148960478467e-06
0.020772223902130096,0.0003832529033095611,3.240475211472663e-06
0.021267663478268382,0.00039376287515466074,3.4347291560887185e-06
0.021771342160841613,0.00040452262656443823,3.634300531518493e-06
0.022282251196999246,0.00041553602490389843,3.8393151943855775e-06
0.02279930656592185,0.0004268064143446287,4.049900804197709e-06
0.023321350661331515,0.00043833657865144203,4.266186552446727e-06
0.023847154526888355,0.000450128704948497,4.488302873346712e-06
0.024375420644955622,0.000462184348741458,4.716381136769201e-06
0.024904786265176986,0.00047450440046899113,4.950553324071813e-06
0.02543382724379661,0.00048708905384623456,5.19095168765062e-06
0.025961062356137758,0.0004999377762462181,5.437708395173733e-06
0.026484958049163523,0.0005130492813475435,5.690955159572173e-06
0.027003933614699913,0.0005264215042635093,5.950822855974936e-06
0.027516366776116817,0.0005400515793612135,6.217441126881117e-06
0.028020599685064963,0.0005539358209765089,6.490937976965548e-06
0.02851494532231558,0.000568069707228354,6.771439359016764e-06
0.02899769429317173,0.0005824478671322259,7.0590687526069085e-06
0.02946712200525241,0.0005970640712068319,7.353946737191673e-06
0.029921496213751828,0.000611911225761583,7.656190561433777e-06
0.030359084915306044,0.0006269813710438474,7.965913710635135e-06
0.03077816456545789,0.0006422656834140384,8.283225474249608e-06
0.031177028585735952,0.0006577544817018368,8.608230515528576e-06
0.03155399611408289,0.0006734372378767915,8.941028445423232e-06
0.031907420936883896,0.0006893025921395332,9.281713402927314e-06
0.032235700524824246,0.0007053383725049603,9.630373644088437e-06
0.03253728508420863,0.0007215316189072185,9.987091141941482e-06
0.03281068653497438,0.0007378686118120143,1.035194119962129e-05
0.0330544873341908,0.0007543349052793056,1.072499207889412e-05
0.033267349075833404,0.0007709153643818117,1.11063046463094e-05
0.03344802081591727,0.0007875942068547493,1.149593203911854e-05
0.03359534709714002,0.0008043550488330137,1.1893919353040481e-05
0.033708275669129685,0.0008211809545245811,1.230030335387988e-05
0.033785864904818684,0.0008380544896680682,1.2715112214928043e-05
0.03382729089445448,0.0008549577786178865,1.3138365281999532e-05
0.03383185416249153,0.000871872564882123,1.3570072867874534e-05
0.03379898591237766,0.0008887802749008402,1.4010236077820275e-05
0.03372825367423588,0.0009056620847974936,1.4458846667744858e-05
0.03361936622047234,0.0009224989897711706,1.4915886936387024e-05
0.03347217762567516,0.0009392718757327075,1.5381329652762994e-05
0.03328669037411617,0.0009559615927326553,1.5855138019879335e-05
0.03306305745419405,0.000972549029689733,1.633726567548493e-05
0.03280158341831181,0.0009890151899078594,1.6827656730384328e-05
0.032502724422438,0.0010053412668680468,1.7326245844578303e-05
0.03216708728601895,0.0010215087197951612,1.7832958341244104e-05
0.03179542762955896,0.0010374993485240556,1.834771035832391e-05
0.03138864715773023,0.001053295367220878,1.8870409037260142e-05
0.030947790163774042,0.001068879476551254,1.9400952748203174e-05
0.030474039336394823,0.0010842349339262962,1.9939231350822563e-05
0.029968710952252,0.001099345621498458,2.048512648967875e-05
0.029433249535696978,0.0011141961116204453,2.103851192295848e-05
0.028869222064771403,0.0011287717295205624,2.159925388324373e-05
0.028278311798815126,0.001143058612986459,2.2167211468870487e-05
0.027662311794640185,0.001157043768884823,2.2742237064338307e-05
0.027023118161663213,0.0011707151263738989,2.3324176788152987e-05
0.026362723083765416,0.001184061586685256,2.3912870966417776e-05
0.02568320761463072,0.0011970730693598552,2.4508154630429053e-05
0.024986734242567355,0.0012097405548241547,2.5109858036475055e-05
0.02427553922123512,0.0012220561231901053,2.571780720597862e-05
0.023551924664417984,0.0012340129891615186,2.633182448406653e-05
0.022818250395593112,0.0012456055329265214,2.695172911458854e-05
0.022076925526309903,0.0012568293269069972,2.757733782954692e-05
0.021330399720806463,0.0012676811582187763,2.8208465450828364e-05
0.020581154097601514,0.0012781590466733783,2.88449255020514e-05
0.019831691725736567,0.0012882622581292128,2.948653082825205e-05
0.01908452769101075,0.0012979913129833997,3.0133094221030203e-05
0.018342178728972033,0.0013073479895883953,3.078442904667315e-05
0.01760715244167226,0.0013163353223810564,3.144034987466551e-05
0.016881936133200368,0.0013249575945247746,3.210067310389197e-05
0.016168985315142863,0.0013332203248868604,3.2765217583744874e-05
0.015470711946212603,0.0013411302492021993,3.343380522726714e-05
0.014789472479583225,0.0013486952953086482,3.410626161339485e-05
0.014127555797405229,0.0013559245523778953,3.4782416575316485e-05
0.013487171116089165,0.0013628282341062688,3.5462104771937525e-05
0.012870435950988942,0.0013694176358730384,3.614516623943235e-05
0.01227936423752482,0.0013757050859201669,3.683144691988065e-05
0.011715854716007756,0.0013817038906585501,3.752079916402533e-05
0.011181679694917344,0.0013874282742612814,3.8213082205255286e-05
0.010678474310280569,0.0013928933127625809,3.890816260201125e-05
0.010207726398146372,0.0013981148629396876,3.9605914645936814e-05
0.009770767094135546,0.0014031094863127581,4.0306220733249926e-05
0.009368762268560328,0.001407894368653432,4.1008971696991476e-05
0.009002704896181378,0.0014124872354446174,4.171406709801599e-05
0.008673408444099586,0.0014169062637796877,4.2421415472822066e-05
0.008381501340376185,0.0014211699912258066,4.313093453657344e-05
0.008127422566011063,0.0014252972222024035,4.3842551339930495e-05
0.007911418401031135,0.001429306932444164,4.4556202378592134e-05
0.007733540353005842,0.0014332181721326731,4.527183365473634e-05
0.0075936442976581,0.001437049968295339,4.598940068984335e-05
0.007491390860683005,0.0014408212270849243,4.670886848868842e-05
0.007426247065100649,0.0014445506365663703,4.743021145460124e-05
0.0073974892564155756,0.0014482565706467495,4.8153413256404525e-05
0.007404207294986735,0.0014519569947846,4.8878466647762365e-05
0.00744530997389194,0.0014556693741018198,4.960537323998397e-05
0.007519531590655014,0.0014594105844929566,5.033414322963266e-05
0.007625439581442697,0.001463196827285981,5.106479508257739e-05
0.007761443118457177,0.001467043547960956,5.1797355176389126e-05
0.007925802571088585,0.0014709653593833424,5.25318574032252e-05
0.008116639734067961,0.0014749759699596316,5.3268342735560946e-05
0.008331948729297805,0.001479088117075473,5.400685875731972e-05
0.008569607491602772,0.0014833135061306981,5.4747459163121265e-05
0.008827389750971637,0.0014876627554413417,5.549020322851428e-05
0.009102977425437926,0.001492145347235444,5.623515525418347e-05
0.009393973342518477,0.001496769584927433,5.698238398722419e-05
0.009697914213475059,0.0015015425568164315,5.7731962022660156e-05
0.010012283789364248,0.0015064701063171413,5.848396518844355e-05
0.010334526127603596,0.0015115568087963832,5.923847191722193e-05
0.01066205889303097,0.001516805955051542,5.9995562608183915e-05
0.010992286610180351,0.0015222195414273448,6.0755318982303635e-05
0.011322613776460582,0.001527798266524005,6.151782343429147e-05
0.011650457742100545,0.0015335415344036453,6.228315838452338e-05
0.011973261262437964,0.00153944746415478,6.305140563416298e-05
0.012288504629913837,0.0015455129056278678,6.382264572660864e-05
0.012593717298674858,0.001551733461110015,6.459695731829311e-05
0.012886488927122214,0.0015581035126664643,6.537441656173723e-05
0.013164479778771573,0.0015646162548429378,6.615509650361458e-05
0.013425430429610908,0.0015712637323950333,6.693906650042407e-05
0.013667170730169424,0.0015780368826849784,6.772639165419407e-05
0.013887627973818652,0.0015849255823609755,6.851713227045556e-05
0.014084834235814907,0.0015919186979133839,6.931134334052414e-05
0.014256932863054088,0.0015990041396881012,7.010907404992452e-05
0.01440218410382411,0.0016061689189298207,7.0910367314579e-05
0.014518969871642562,0.0016133992074236873,7.171525934616739e-05
0.014605797645193314,0.0016206803993028963,7.252377924784904e-05
0.014661303519556095,0.0016279971745940837,7.333594864132328e-05
0.014684254437810629,0.0016353335640834255,7.415178132599266e-05
0.01467354964193261,0.0016426730151033614,7.497128297078936e-05
0.01462822138640051,0.0016499984578604446,7.579445083903032e-05
0.014547434959929615,0.001657292371947027,7.662127354648219e-05
0.014430488064431663,0.0016645368527031174,7.745173085264472e-05
0.014276809607002061,0.0016717136771209758,7.828579348510075e-05
0.014085957967109007,0.0016788043690145035,7.912342299663462e-05
0.013857618803438417,0.0016857902632071403,7.996457165469004e-05
0.013591602463186424,0.0016926525685237964,8.080918236262277e-05
0.013287841053508257,0.00169937242940297,8.165718861210446e-05
0.012946385231771855,0.00170593098597429,8.250851446594877e-05
0.012567400768725392,0.0017123094324744143,8.336307457056094e-05
0.012151164935549784,0.001718489073900483,8.422077419715467e-05
0.011698062758542259,0.0017244513808240061,8.50815093108358e-05
0.011208583170455397,0.0017301780423062555,8.594516666661836e-05
0.010683315068315003,0.001735651016865948,8.681162393141141e-05
0.010122943273010544,0.0017408525814512795,8.768074983099072e-05
0.009528244382376358,0.0017457653783651262,8.855240432094482e-05
0.008900082515283694,0.0017503724600895412,8.942643878055848e-05
0.008239404954606422,0.0017546573319570137,9.030269622857012e-05
0.007547237708545554,0.0017586039926228017,9.118101155971508e-05
0.00682468101874617,0.0017621969723046246,9.206121180094694e-05
0.006072904844067547,0.001765421368770328,9.294311638621568e-05
0.005293144338616698,0.001768262881065999,9.382653744867476e-05
0.004486695328152522,0.0017707078409826913,9.471128012918693e-05
0.0036549097787232725,0.0017727432422594103,9.559714289999746e-05
0.0027991912478489097,0.0017743567675160533,9.648391790244133e-05
0.001920990308848197,0.0017755368129052276,9.737139129754665e-05
0.0010217999407646293,0.0017762725104676308,9.825934362838987e-05
0.00010315087915841733,0.0017765537481726115,9.914755019304994e-05
-0.0008333930730839058,0.00177637118762413,0.00010003578142699912
-0.0017862397713690826,0.001775716279413017,0.0001009238032937584
-0.002753773485077621,0.0017745812760989051,0.00010181137768263638
-0.0037343596781900805,0.0017729592428080883,0.00010269826281236312
-0.004726349813589583,0.0017708440654351433,0.00010358421363942393
-0.005728086180175763,0.001768230456436702,0.00010446898226989189
-0.006737906733847944,0.001765113958208196,0.00010535231837355312
-0.007754149928405323,0.0017614909440426326,0.00010623396959911584
-0.008775159498025487,0.0017573586166860248,0.000107113681989298
-0.0097992891453406,0.0017527150045251834,0.0001079912003946008
-0.010824907088689044,0.001747558955466676,0.00010886626888459877
-0.011850400426014816,0.0017418901285880001,0.00010973863115561245
-0.012874179278104376,0.0017357089836619703,0.00011060803093367494
-0.013894680678223562,0.0017290167686728882,0.00011147421237175866
-0.014910372180025638,0.001721815505458326,0.00011233692044029147
-0.01591975516529816,0.0017141079736219952,0.00011319590131006154
-0.016921367848379814,0.0017058976928685757,0.00011405090272668418
-0.01791378798927242,0.0016971889039091627,0.00011490167437587862
-0.01889563533713104,0.001687986548077562,0.0001157479682388753
-0.019865573828072077,0.001678296245786261,0.00011658953893734125
-0.020822313556026203,0.0016681242739402364,0.00011742614406727288
-0.021764612526209943,0.0016574775424196774,0.00011825754452136286
-0.022691278195317067,0.0016463635697392958,0.00011908350479940261
-0.02360116880552787,0.0016347904579890845,0.0001199037933063347
-0.024493194526921204,0.0016227668671559721,0.00012071818263762097
