frame_number,force
0,877.4134600070656
1,877.3869774254642
2,877.360564974638
3,877.3342923573028
4,877.3082284176929
5,877.2824407073267
6,877.2569950474368
7,877.2319550909103
8,877.2073818889329
9,877.1833334692612
10,877.15986443374
11,877.1370255824005
12,877.1148635706801
13,877.0934206055334
14,877.0727341856475
15,877.0528368904977
16,877.0337562224562
17,877.0155145056527
18,876.9981288447038
19,876.9816111454668
20,876.9659681984734
21,876.9512018238983
22,876.9373090753056
23,876.9242824983585
24,876.9121104399854
25,876.9007774028574
26,876.8902644393542
27,876.8805495789096
28,876.8716082831891
29,876.8634139248692
30,876.855938287115
31,876.8491520813286
32,876.8430254799816
33,876.8375286594289
34,876.8326323451598
35,876.828308349869
36,876.8245300936287
37,876.8212730954214
38,876.8185154260158
39,876.8162381130641
40,876.8144254898615
41,876.8130654795781
42,876.8121498075207
43,876.8116741355732
44,876.8116381154518
45,876.8120453606169
46,876.8129033400639
47,876.8142231999801
48,876.8160195209479
49,876.8183100192485
50,876.8211152013452
51,876.8244579809583
52,876.8283632681927
53,876.8328575398782
54,876.8379683997438
55,876.8437241361744
56,876.8501532838301
57,876.8572841932505
58,876.8651446101297
59,876.8737612639267
60,876.8831594645593
61,876.8933627064212
62,876.9043922804445
63,876.9162668965013
64,876.9290023193772
65,876.9426110217937
66,876.9571018578331
67,876.9724797601407
68,876.9887454648821
69,877.0058952696767
70,877.023920830914
71,877.0428090070308
72,877.0625417533406
73,877.0830960725298
74,877.1044440236152
75,877.1265527910647
76,877.1493848147232
77,877.1728979801769
78,877.1970458682215
79,877.2217780610177
80,877.2470405011143
81,877.2727758979477
82,877.2989241747897
83,877.325422947173
84,877.3522080215228
85,877.3792139006727
86,877.4063742823424
87,877.4336225383411
88,877.4608921658591
89,877.4881172062288
90,877.5152326296416
91,877.5421746861767
92,877.5688812243974
93,877.5952919788808
94,877.6213488275137
95,877.6469960184559
96,877.6721803655681
97,877.6968514099642
98,877.7209615447506
99,877.744466100816
100,877.7673233938526
101,877.7894947357017
102,877.8109444156938
103,877.8316396593887
104,877.8515505725927
105,877.8706500776541
106,877.8889138475233
107,877.9063202418163
108,877.9228502483519
109,877.9384874331777
110,877.9532179019593
111,877.9670302759015
112,877.9799156857486
113,877.9918677874472
114,878.0028828024308
115,878.0129595839439
116,878.022099708367
117,878.0303075877142
118,878.0375905970444
119,878.0439592087871
120,878.0494271251082
121,878.0540113995047
122,878.0577325393622
123,878.0606145816017
124,878.0626851338307
125,878.0639753742253
126,878.0645200050756
127,878.0643571571146
128,878.0635282438191
129,878.0620777665124
130,878.0600530724055
131,878.0575040689059
132,878.0544828986781
133,878.0510435806272
134,878.047241621851
135,878.0431336050204
136,878.0387767555795
137,878.0342284940152
138,878.0295459796769
139,878.0247856534478
140,878.0200027868216
141,878.0152510447891
142,878.0105820693121
143,878.0060450889853
144,878.0016865590331
145,877.9975498342088
146,877.993674875368
147,877.9900979885803
148,877.9868515942871
149,877.9839640238753
150,877.9814593420527
151,877.9793571950063
152,877.9776726860381
153,877.9764162822769
154,877.9755937580752
155,877.9752061821481
156,877.9752499553548
157,877.9757169039478
158,877.9765944298624
159,877.9778657163902
160,877.9795099852888
161,877.9815028002793
162,877.9838164114809
163,877.9864201348862
164,877.9892807603037
165,877.9923629807707
166,877.9956298365271
167,877.9990431668373
168,878.0025640625627
169,878.0061533114977
170,878.0097718279887
171,878.0133810591228
172,878.0169433616402
173,878.020422345624
174,878.0237831820933
175,878.0269928719629
176,878.0300204741011
177,878.032837291038
178,878.0354170123117
179,878.0377358169026
180,878.0397724371585
181,878.0415081872509
182,878.0429269601193
183,878.0440151980489
184,878.0447618428527
185,878.0451582717074
186,878.0451982242557
187,878.0448777258881
188,878.0441950111525
189,878.0431504501018
190,878.041746479284
191,878.0399875379293
192,878.0378800084145
193,878.0354321584398
194,878.0326540811067
195,878.0295576285156
196,878.026156334325
197,878.0224653207583
198,878.0185011859287
199,878.0142818682356
200,878.0098264858572
201,878.0051551508651
202,878.0002887589287
203,877.9952487565442
204,877.990056888004
205,877.9847349242756
206,877.9793043761391
207,877.9737861943964
208,877.9682004605794
209,877.9625660723796
210,877.9569004288916
211,877.9512191213867
212,877.9455356356824
213,877.9398610725608
214,877.9342038929775
215,877.9285696945278
216,877.9229610246713
217,877.9173772350831
218,877.9118143807729
219,877.9062651673645
220,877.9007189497961
221,877.8951617852244
222,877.8895765418412
223,877.8839430636872
224,877.8782383898233
225,877.8724370248352
226,877.8665112567193
227,877.8604315173147
228,877.8541667792347
229,877.8476849819867
230,877.8409534794642
231,877.8339395015412
232,877.8266106235852
233,877.8189352385616
234,877.8108830268521
235,877.8024254190476
236,877.7935360466385
237,877.7841911746625
238,877.774370109326
239,877.7640555729904
240,877.7532340390018
241,877.7418960196828
242,877.7300363022435
243,877.7176541290156
244,877.7047533198726
245,877.6913423359747
246,877.6774342853387
247,877.6630468722819
248,877.6482022945028
249,877.6329270933297
250,877.6172519639879
251,877.601211532983
252,877.584844108966
253,877.5681914123052
254,877.5512982873869
255,877.5342124003936
256,877.5169839240779
257,877.4996652100488
258,877.4823104485704
259,877.4649753162302
260,877.4477166131737
261,877.4305918933314
262,877.4136590922885
263,877.3969761579401
264,877.3806006891165
265,877.3645895870569
266,877.3489987237655
267,877.3338826297733
268,877.3192942019102
269,877.3052844299528
270,877.2919021400601
271,877.2791937529652
272,877.2672030554936
273,877.255970984317
274,877.245535420714
275,877.2359309951939
276,877.227188901755
277,877.2193367230608
278,877.2123982693345
279,877.2063934350168
280,877.2013380780274
281,877.1972439266058
282,877.1941185183734
283,877.1919651759513
284,877.1907830233779
285,877.1905670474326
286,877.1913082073424
287,877.1929935949177
288,877.1956066448025
289,877.1991273915736
290,877.2035327675824
291,877.2087969333328
292,877.2148916311081
293,877.2217865523462
294,877.2294497095045
295,877.2378478036275
296,877.2469465796678
297,877.2567111627827
298,877.2671063700652
299,877.2780969932965
300,877.2896480493686
301,877.3017249959256
302,877.3142939104027
303,877.3273216310569
304,877.3407758589099
305,877.3546252199086
306,877.3688392872049
307,877.3833885644184
308,877.3982444318585
309,877.4133790585296
310,877.4287652831886
311,877.4443764679681
312,877.4601863283675
313,877.4761687438419
314,877.492297553616
315,877.5085463423081
316,877.5248882192749
317,877.5412955946957
318,877.5577399549759
319,877.5741916403301
320,877.5906196281813
321,877.6069913268578
322,877.6232723845941
323,877.6394265188945
324,877.6554153712344
325,877.6711983923389
326,877.6867327638739
327,877.701973362685
328,877.7168727730443
329,877.731381350499
330,877.7454473383589
331,877.7590170356937
332,877.7720350148371
333,877.7844443867915
334,877.79618711369
335,877.8072043678445
336,877.8174369367146
337,877.826825672428
338,877.8353119831596
339,877.8428383617915
340,877.8493489452551
341,877.8547900963742
342,877.8591109992345
343,877.8622642590983
344,877.8642064982745
345,877.8648989397403
346,877.864307970496
347,877.8624056765913
348,877.8591703414714
349,877.854586898839
350,877.8486473309503
351,877.8413510035509
352,877.8327049295902
353,877.8227239552625
354,877.8114308636177
355,877.7988563927763
356,877.7850391674622
357,877.7700255441889
358,877.7538693723417
359,877.7366316755524
360,877.7183802596523
361,877.6991892545834
362,877.6791385979931
363,877.6583134682556
364,877.636803674829
365,877.6147030143733
366,877.5921086017494
367,877.5691201853373
368,877.5458394558306
369,877.5223693573798
370,877.4988134102583
371,877.4752750547797
372,877.4518570262135
373,877.4286607694512
374,877.4057859000934
375,877.3833297157189
376,877.3613867580298
377,877.3400484240861
378,877.3194026232436
379,877.2995334756323
380,877.2805210479077
381,877.2624411224151
382,877.2453649967273
383,877.2293593115548
384,877.2144859058437
385,877.2008016977342
386,877.1883585888293
387,877.1772033879693
388,877.1673777508038
389,877.15891813303
390,877.1518557571104
391,877.1462165934147
392,877.1420213567096
393,877.1392855185136
394,877.1380193362841
395,877.1382279019532
396,877.1399112137763
397,877.1430642754128
398,877.147677224652
399,877.1537354922707
400,877.1612199899777
401,877.1701073253829
402,877.1803700413535
403,877.1919768767743
404,877.2048930451396
405,877.2190805263228
406,877.234498365537
407,877.2511029723256
408,877.2688484117606
409,877.2876866802445
410,877.3075679596988
411,877.3284408462085
412,877.3502525518427
413,877.3729490809211
414,877.3964753841178
415,877.4207754950996
416,877.4457926548729
417,877.4714694289884
418,877.4977478225758
419,877.5245693978445
420,877.5518753980328
421,877.5796068806129
422,877.6077048609993
423,877.6361104667376
424,877.6647651019679
425,877.6936106229253
426,877.7225895265746
427,877.7516451551492
428,877.7807219187771
429,877.8097655367303
430,877.8387232960118
431,877.8675443247499
432,877.8961798771064
433,877.9245836255528
434,877.9527119551485
435,877.9805242529503
436,878.0079831840023
437,878.0350549439919
438,878.0617094784695
439,878.0879206600094
440,878.1136664174101
441,878.1389288139668
442,878.1636940742377
443,878.1879525604393
444,878.2116987008078
445,878.2349308730301
446,878.2576512465643
447,878.2798655887921
448,878.3015830413236
449,878.3228158736334
450,878.3435792210493
451,878.3638908131421
452,878.383770697234
453,878.4032409604506
454,878.4223254527494
455,878.4410495124615
456,878.4594396947158
457,878.4775235018807
458,878.4953291147158
459,878.5128851237116
460,878.5302202614946
461,878.5473631381407
462,878.5643419813937
463,878.5811843836296
464,878.5979170577667
465,878.6145656055339
466,878.6311543028072
467,878.6477059069283
468,878.6642414898881
469,878.6807803000171
470,878.6973396541225
471,878.7139348614238
472,878.7305791793204
473,878.7472837988944
474,878.7640578560093
475,878.7809084630867
476,878.7978407574315
477,878.8148579633604
478,878.8319614660343
479,878.8491508945804
480,878.8664242115908
481,878.8837778061948
482,878.9012065887395
483,878.9187040863922
484,878.9362625401142
485,878.9538730037829
486,878.9715254454686
487,878.9892088495288
488,879.0069113170914
489,879.024620162053
490,879.042321999822
491,879.0600028266273
492,879.0776480881818
493,879.0952427374302
494,879.1127712816478
495,879.1302178194586
496,879.1475660687793
497,879.1647993871374
498,879.1819007856752
499,879.1988529371143
500,879.2156381762619
501,879.2322384900547
502,879.2486354936142
503,879.2648103899364
504,879.2807439132015
505,879.2964162579822
506,879.3118069980515
507,879.3268949993472
508,879.3416583324234
509,879.3560741903711
510,879.3701188183828
511,879.383767460684
512,879.3969943295161
513,879.4097725995215
514,879.4220744297986
515,879.4338710155463
516,879.4451326716757
517,879.4558289515409
518,879.4659288040164
519,879.4754007706998
520,879.4842132221529
521,879.492334628855
522,879.4997338600443
523,879.506380502376
524,879.5122451903244
525,879.5172999411403
526,879.52151848821
527,879.5248766070075
528,879.5273524271222
529,879.5289267223935
530,879.5295831697052
531,879.5293085663253
532,879.5280929965263
533,879.5259299404472
534,879.5228163208061
535,879.5187524855071
536,879.5137421267102
537,879.5077921399665
538,879.500912430278
539,879.4931156746653
540,879.4844170522975
541,879.4748339532196
542,879.4643856754869
543,879.4530931187209
544,879.4409784801696
545,879.4280649573153
546,879.4143764588995
547,879.3999373245682
548,879.384772052768
549,879.3689050369741
550,879.3523603113913
551,879.335161308675
552,879.3173306337732
553,879.2988898593268
554,879.2798593488543
555,879.2602581139565
556,879.2401037107813
557,879.2194121791172
558,879.1981980251395
559,879.1764742463922
560,879.1542523952025
561,879.1315426746614
562,879.108354059985
563,879.0846944378422
564,879.0605707570181
565,879.0359891851701
566,879.0109552679718
567,878.9854740881993
568,878.9595504230684
569,878.9331888983463
570,878.9063941376776
571,878.87917090556
572,878.851524242804
573,878.8234595939476
574,878.79498292661
575,878.766100843095
576,878.7368206849778
577,878.7071506318255
578,878.6770997951791
579,878.6466783082893
580,878.6158974111341
581,878.5847695294037
582,878.5533083458695
583,878.5215288630333
584,878.4894474567608
585,878.4570819210207
586,878.4244515036578
587,878.3915769325922
588,878.358480431192
589,878.3251857207737
590,878.2917180071954
591,878.2581039474525
592,878.2243715914914
593,878.1905502946499
594,878.1566705976031
595,878.1227640732853
596,878.0888631429049
597,878.055000864536
598,878.0212106976337
599,877.9875262460085
600,877.9539809811341
601,877.9206079473929
602,877.8874394511913
603,877.8545067369425
604,877.8218396543012
605,877.7894663220601
606,877.7574127948022
607,877.7257027394011
608,877.6943571295299
609,877.6633939660902
610,877.6328280292904
611,877.602670665386
612,877.5729296095739
613,877.5436088464529
614,877.5147085099802
615,877.4862248253291
616,877.4581500954807
617,877.4304727358019
618,877.403177359999
619,877.376244920196
620,877.3496529023877
621,877.3233755766006
622,877.297384299412
623,877.2716478654617
624,877.2461329042344
625,877.2208043180236
626,877.1956257559469
627,877.1705601173189
628,877.1455700764362
629,877.1206186204987
630,877.095669592994
631,877.070688236182
632,877.0456417279273
633,877.0204997091894
634,876.9952347979176
635,876.9698230827129
636,876.9442445868569
637,876.9184836922007
638,876.8925295136605
639,876.8663762177155
640,876.8400232808541
641,876.8134756856514
642,876.7867440529621
643,876.7598447087003
644,876.732799683207
645,876.7056366408317
646,876.6783887373998
647,876.6510944038246
648,876.6237970553963
649,876.5965447284034
650,876.5693896484421
651,876.5423877376098
652,876.5155980705283
653,876.4890822916507
654,876.4629040082497
655,876.4371281740928
656,876.4118204776215
657,876.387046745819
658,876.3628723718556
659,876.3393617718908
660,876.3165778744216
661,876.2945816440317
662,876.2734316399063
663,876.2531836080796
664,876.2338901056141
665,876.215600154973
666,876.1983589272057
667,876.1822074527659
668,876.1671823591747
669,876.1533156358415
670,876.1406344276386
671,876.1291608594305
672,876.1189118937441
673,876.109899223975
674,876.1021292060639
675,876.0956028314885
676,876.0903157430487
677,876.086258292815
678,876.083415639958
679,876.0817678856137
680,876.0812902424216
681,876.0819532371877
682,876.0837229453173
683,876.0865612549386
684,876.0904261579121
685,876.0952720650503
686,876.1010501434822
687,876.1077086742473
688,876.1151934277343
689,876.123448054081
690,876.1324144853695
691,876.1420333461731
692,876.1522443685609
693,876.1629868073994
694,876.1741998521446
695,876.1858230322114
696,876.1977966138795
697,876.2100619869867
698,876.2225620392373
699,876.2352415150433
700,876.2480473548001
701,876.260929009973
702,876.2738387298297
703,876.2867318169781
704,876.2995668503129
705,876.3123058747917
706,876.324914557529
707,876.337362309428
708,876.3496223714827
709,876.3616718651235
710,876.3734918064515
711,876.3850670848118
712,876.3963864068359
713,876.4074422078279
714,876.4182305331811
715,876.4287508931235
716,876.4390060940464
717,876.4490020491021
718,876.4587475704632
719,876.4682541460473
720,876.4775357043742
721,876.4866083721171
722,876.4954902296756
723,876.5042010706634
724,876.5127621713382
725,876.5211960753156
726,876.5295263971643
727,876.5377776461635
728,876.5459750697044
729,876.5541445151782
730,876.562312309216
731,876.5705051529328
732,876.5787500314253
733,876.5870741359395
734,876.5955047979278
735,876.604069434499
736,876.6127955035581
737,876.6217104647149
738,876.6308417402158
739,876.64021666963
740,876.649862452463
741,876.6598060735704
742,876.6700742070649
743,876.6806930956582
744,876.6916884040837
745,876.7030850472423
746,876.7149069958415
747,876.7271770643948
748,876.7399166882301
749,876.7531456974825
750,876.7668820966234
751,876.7811418575153
752,876.7959387322271
753,876.8112840895477
754,876.8271867773286
755,876.8436530121537
756,876.860686298182
757,876.8782873774663
758,876.8964542140992
759,876.9151820144469
760,876.9344632857277
761,876.9542879348049
762,876.9746434079221
763,876.9955148707338
764,877.0168854270837
765,877.0387363744285
766,877.0610474930817
767,877.0837973652982
768,877.1069637187409
769,877.1305237871279
770,877.15445467883
771,877.1787337421378
772,877.2033389146878
773,877.2282490447911
774,877.2534441740078
775,877.2789057726385
776,877.304616922367
777,877.330562442645
778,877.356728959076
779,877.3831049130299
780,877.4096805126146
781,877.4364476266096
782,877.4633996252846
783,877.4905311749482
784,877.517837995817
785,877.5453165945311
786,877.5729639828961
787,877.600777393233
788,877.628753998471
789,877.6568906423504
790,877.685183582022
791,877.713628242054
792,877.7422189762005
793,877.7709488326644
794,877.7998093202822
795,877.8287901754468
796,877.8578791308499
797,877.8870616871459
798,877.9163208888665
799,877.9456371074818
800,877.9749878371294
801,878.0043475109715
802,878.0336873472592
803,878.0629752336192
804,878.0921756562368
805,878.1212496782895
806,878.1501549698655
807,878.1788458900173
808,878.2072736208728
809,878.2353863540291
810,878.2631295304107
811,878.2904461353139
812,878.3172770497032
813,878.3435614571629
814,878.3692373040587
815,878.3942418088669
816,878.4185120153262
817,878.4419853832864
818,878.4646004111079
819,878.4862972837575
820,878.5070185403789
821,878.5267097537055
822,878.5453202117304
823,878.56280359035
824,878.5791186047661
825,878.5942296274178
826,878.6081072609697
827,878.620728856225
828,878.6320789666264
829,878.6421497328816
830,878.6509411928286
831,878.6584615129143
832,878.6647271388991
833,878.6697628648062
834,878.6736018204114
835,878.6762853780383
836,878.6778629785359
837,878.6783918744412
838,878.6779367868778
839,878.6765694731606
840,878.6743682045279
841,878.6714171567992
842,878.6678057199019
843,878.6636277346201
844,878.658980666416
845,878.6539647269143
846,878.6486819540797
847,878.6432352626196
848,878.6377274764274
849,878.6322603547957
850,878.6269336240082
851,878.621844026212
852,878.6170843981009
853,878.6127427924299
854,878.6089016550245
855,878.6056370682261
856,878.6030180687978
857,878.6011060450928
858,878.5999542156434
859,878.5996071896392
860,878.6001006087706
861,878.601460869267
862,878.6037049227418
863,878.6068401548368
864,878.6108643412472
865,878.6157656808408
866,878.6215229053323
867,878.6281054649963
868,878.6354737905169
869,878.6435796316612
870,878.6523664733022
871,878.6617700284427
872,878.6717188067582
873,878.6821347558251
874,878.6929339701067
875,878.7040274598181
876,878.7153219687817
877,878.726720828335
878,878.7381248336602
879,878.7494331294079
880,878.7605440930148
881,878.7713562064288
882,878.7817689094788
883,878.7916834299889
884,878.8010035864064
885,878.8096365585469
886,878.8174936217968
887,878.8244908402831
888,878.8305497150907
889,878.8355977842443
890,878.8395691716414
891,878.8424050825505
892,878.844054243955
893,878.8444732885682
894,878.8436270810734
895,878.8414889840691
896,878.8380410602509
897,878.8332742075272
898,878.8271882250183
899,878.8197918092583
900,878.8111024803826
901,878.8011464377305
902,878.789958343931
903,878.7775810364361
904,878.7640651653896
905,878.7494687569392
906,878.7338567023362
907,878.7173001754533
908,878.6998759838218
909,878.6816658600382
910,878.6627557011686
911,878.6432347640418
912,878.6231948248021
913,878.6027293122165
914,878.5819324257865
915,878.5608982511059
916,878.5397198854275
