acceleration,velocity,displacement
-0.003081071983964351,0.0,0.0
-0.003377069871627556,-1.6145354638979769e-06,-4.036338659744942e-10
-0.0036722839021268677,-3.376873907336583e-06,-1.6514862087831341e-09
-0.003965935002750162,-5.286428633555841e-06,-3.817311844006241e-09
-0.004257253696102618,-7.342225808269036e-06,-6.974475454462459e-09
-0.004545484953574563,-9.542910470688332e-06,-1.1195759524201802e-08
-0.004829893086096349,-1.188675498060606e-05,-1.6553175887025398e-08
-0.005109766640366077,-1.4371669912221667e-05,-2.311778211023233e-08
-0.005384423242502658,-1.699521738293885e-05,-3.095950393402246e-08
-0.005653214311726689,-1.975462677149619e-05,-4.014696497263122e-08
-0.005915529558945835,-2.264681273916432e-05,-5.074732485029635e-08
-0.006170801188234615,-2.566839542595943e-05,-6.282612689157729e-08
-0.006418507728116123,-2.8815722655047115e-05,-7.644715641182892e-08
-0.006658177428154565,-3.208489394411479e-05,-9.16723105616194e-08
-0.0068893911625899544,-3.547178609180092e-05,-1.0856148057059833e-07
-0.0071117847880756615,-3.897208007946732e-05,-1.2717244711341538e-07
-0.007325050908444929,-4.2581289003597466e-05,-1.4756078938418157e-07
-0.007528940005151868,-4.629478673199666e-05,-1.697798083180801e-07
-0.007723260898558677,-5.01078369579243e-05,-1.9388046424056035e-07
-0.00790788051596671,-5.4015622311555644e-05,-2.1991132905793035e-07
-0.008082722959069677,-5.801327318031474e-05,-2.4791855293089794e-07
-0.008247767883634982,-6.20958958909909e-05,-2.7794584519872435e-07
-0.008403048222204465,-6.625859991745076e-05,-3.1003446915083475e-07
-0.008548647292486727,-7.049652379612356e-05,-3.442232500792283e-07
-0.008684695341772995,-7.48048594546885e-05,-3.8054859589193135e-07
-0.00881136558492332,-7.917887468636257e-05,-4.190445294271941e-07
-0.008928869800973422,-8.361393353283675e-05,-4.5974273148199395e-07
-0.009037453556659015,-8.810551437224487e-05,-5.026725934582644e-07
-0.009137391118868413,-9.264922554112672e-05,-5.478612784366073e-07
-0.009228980103278984,-9.724081834666357e-05,-5.953337894085548e-07
-0.009312535891663812,-0.00010187619734539927,-6.451130433315705e-07
-0.009388385844974876,-0.00010655142777955894,-6.9721994961281e-07
-0.009456863347831511,-0.00011126274007776054,-7.516734915771399e-07
-0.009518301741450205,-0.00011600653135008097,-8.084908094341002e-07
-0.009573028229328338,-0.00012077936384277561,-8.676872832323144e-07
-0.009621357863184483,-0.0001255779603659038,-9.292766142844842e-07
-0.009663587728950537,-0.00013039919676393756,-9.932709035669444e-07
-0.009699991452877796,-0.00013524009155939465,-1.0596807256477776e-06
-0.009730814139699354,-0.00014009779295753893,-1.128515196777011e-06
-0.009756267844832906,-0.00014496956345367199,-1.1997820358798136e-06
-0.00977652767626344,-0.00014985276233394607,-1.2734876173267182e-06
-0.00979172861766514,-0.0001547448264074282,-1.3496370145120619e-06
-0.009801963155931518,-0.00015964324935082737,-1.4282340334516257e-06
-0.00980727977852485,-0.00016454556008444146,-1.509281235810443e-06
-0.009807682378240817,-0.00016944930062363288,-1.5927799509874616e-06
-0.009803130567150686,-0.00017435200385998076,-1.678730277108365e-06
-0.009793540863707323,-0.00017925117171769527,-1.7671310710027841e-06
-0.009778788686103154,-0.00018414425410514788,-1.8579799274584949e-06
-0.00975871106602744,-0.00018902862904318052,-1.951273148245577e-06
-0.009733109987216366,-0.00019390158430649147,-2.0470057015829953e-06
-0.00970175624732783,-0.00019876030086512752,-2.1451711728759e-06
-0.009664393737912813,-0.00020360183836143768,-2.2457617076825415e-06
-0.00962074403678124,-0.0002084231228051112,-2.3487679479741787e-06
-0.009570511210332328,-0.0002132209366168896,-2.454178962829679e-06
-0.009513386729527503,-0.00021799191110185456,-2.5619821747593647e-06
-0.009449054412873033,-0.0002227325213874547,-2.672163282881692e-06
-0.009377195326239995,-0.00022743908382223297,-2.784706184184114e-06
-0.00929749259342738,-0.00023210775580214982,-2.8995928940902094e-06
-0.009209636098640587,-0.0002367345379751668,-3.0168034675345384e-06
-0.009113327084624959,-0.0002413152787709832,-3.1363159217210757e-06
-0.009008282660445847,-0.0002458456812072509,-3.2581061617156344e-06
-0.008894240227427568,-0.00025032131192921923,-3.382147909999752e-06
-0.008770961815153163,-0.0002547376124398644,-3.5084126410920227e-06
-0.008638238301920611,-0.00025908991246913286,-3.636869522319272e-06
-0.008495893483484132,-0.000263373445415484,-3.7674853617904262e-06
-0.008343787951261106,-0.00026758336577417034,-3.90022456458784e-06
-0.008181822742479965,-0.0002717147684476056,-4.0350490981432844e-06
-0.008009942724577933,-0.0002757627098143701,-4.1719184677087785e-06
-0.007828139669374594,-0.0002797222304128582,-4.310789702765585e-06
-0.007636454958667538,-0.00028358837906986874,-4.451617355136267e-06
-0.007434981849644351,-0.0002873562382719467,-4.5943535094717205e-06
-0.007223867226586472,-0.00029102095054100443,-4.738947806674959e-06
-0.007003312776366199,-0.0002945777455417426,-4.885347480695645e-06
-0.006773575541759579,-0.00029802196762127405,-5.0334974089864e-06
-0.0065349678213213825,-0.0003013491034620443,-5.183340176757229e-06
-0.006287856396824116,-0.0003045548095165807,-5.334816155001885e-06
-0.0060326610810601,-0.00030763493888605174,-5.487863592102543e-06
-0.005769852590131254,-0.00031058556730384956,-5.642418718650018e-06
-0.005499949755116497,-0.0003134030178901615,-5.798415864948521e-06
-0.005223516100151897,-0.0003160838843539786,-5.955787590509556e-06
-0.0049411558296033956,-0.00031862505233641743,-6.114464824682155e-06
-0.004653509284582971,-0.000321023718614964,-6.274377017420001e-06
-0.004361247947384992,-0.000323277407922956,-6.435452299054481e-06
-0.004065069094084659,-0.0003253839871833234,-6.597617647831051e-06
-0.0037656902212935025,-0.00032734167701216793,-6.7607990638799235e-06
-0.003463843395965904,-0.0003291490604164828,-6.924921748237086e-06
-0.003160269683878907,-0.000330805088686444,-7.089910285512818e-06
-0.002855713793539174,-0.0003323090845557985,-7.255688828823378e-06
-0.002550919032053685,-0.0003336607427621967,-7.422181285652877e-06
-0.0022466226246163246,-0.0003348601281763642,-7.589311503387518e-06
-0.001943551414487627,-0.0003359076716861402,-7.757003453353143e-06
-0.0016424179395209066,-0.0003368041640246423,-7.925181412280839e-06
-0.0013439168711924386,-0.00033755074772732064,-8.09377014021883e-06
-0.0010487218008493108,-0.0003381489073953311,-8.262695053999493e-06
-0.0007574823639027549,-0.0003386004584365191,-8.431882395457456e-06
-0.00047082170303306125,-0.00033890753445325303,-8.601259393679899e-06
-0.00018933428388297929,-0.00033907257344998205,-8.770754420655708e-06
8.641591062618183e-05,-0.00033909830304329627,-8.940297139779027e-06
0.0003558967745186683,-0.00033898772487201003,-9.109818646757853e-06
0.0006186090376409732,-0.0003387440984189701,-9.279251602580598e-06
0.000874086791221661,-0.00033837092446175444,-9.44853035830078e-06
0.001121897614682087,-0.0003378719283602785,-9.617591071506287e-06
0.0013616423670735093,-0.0003372510433648396,-9.786371814437567e-06
0.0015929547259118516,-0.00033651239409159325,-9.954812673801675e-06
0.0018155005614560024,-0.0003356602802697513,-1.0122855842392011e-05
0.0020289772246709055,-0.0003346991608232196,-1.0290445702665253e-05
0.002233112810220388,-0.00033363363831449675,-1.0457528902449682e-05
0.0024276654418367827,-0.0003324684437514825,-1.0624054422966178e-05
0.0026124226188842755,-0.00033120842173630223,-1.0789973639338123e-05
0.002787200657789183,-0.00032985851591713387,-1.0955240373751483e-05
0.002951844260489341,-0.00032842375468756423,-1.1119810941402657e-05
0.0031062262452988512,-0.00032690923706111717,-1.1283644189339828e-05
0.0032502474798526758,-0.0003253201186298293,-1.1446701528262565e-05
0.003383837056170412,-0.00032366159749582353,-1.1608946957293978e-05
0.003506952740917765,-0.00032193890004655147,-1.1770347081679572e-05
0.003619581716718807,-0.0003201572664321423,-1.1930871123299246e-05
0.003721741602901132,-0.00031832193560223733,-1.209049092380784e-05
0.003813481712892429,-0.00031643812977328895,-1.2249180940151723e-05
0.0038948844783031934,-0.00031451103822549006,-1.2406918232151418e-05
0.003966066950297683,-0.00031254580036833987,-1.2563682441799875e-05
0.0040271822790569674,-0.0003105474880610012,-1.271945576390721e-05
0.004078421072852038,-0.00030852108722302397,-1.2874222907728216e-05
0.004120012544336619,-0.0003064714788187268,-1.3027971049238654e-05
0.0041522253560595445,-0.00030440341934362777,-1.3180689773779243e-05
0.004175368080408868,-0.00030232152098451067,-1.3332371008861278e-05
0.004189789198301783,-0.000300230231664833,-1.3483008947023614e-05
0.004195876579950273,-0.00029813381522027,-1.363259995874489e-05
0.004194056415542692,-0.0002960363319713967,-1.3781142495542806e-05
0.004184791586749497,-0.0002939416199708237,-1.3928636983528362e-05
0.004168579488346943,-0.0002918532772020496,-1.407508570782158e-05
0.004145949323817151,-0.00028977464499900854,-1.4220492688371845e-05
0.004117458912162033,-0.00028770879294001374,-1.4364863547856601e-05
0.0040836910560227875,-0.00028565850544796755,-1.4508205372453597e-05
0.004045249528931411,-0.000283626270301729,-1.465052656639102e-05
0.004002754738065665,-0.00028161426923497976,-1.4791836701275197e-05
0.003956839112367998,-0.0002796243707723713,-1.4932146361277034e-05
0.003908142265104869,-0.0002776581254280031,-1.5071466985327129e-05
0.003857305989554417,-0.0002757167633643383,-1.5209810707525213e-05
0.0038049691602388995,-0.00027380119457689,-1.534719019701052e-05
0.0037517626213295573,-0.00027191201163149787,-1.5483618498562615e-05
0.003698304146636879,-0.0002700494949395063,-1.5619108875205364e-05
0.0036451935539651577,-0.0002682136205143558,-1.575367465406883e-05
0.003593008049562987,-0.00026640407011347376,-1.5887329076725788e-05
0.0035422978652866087,-0.00026462024363476137,-1.6020085155162848e-05
0.003493582234818041,-0.0002628612736097352,-1.6151955534473972e-05
0.0034473457376262887,-0.00026112604161662413,-1.628295236328056e-05
0.003404035019323739,-0.0002594131964273866,-1.6413087172791565e-05
0.003364055875691816,-0.00025772117370363273,-1.654237076532432e-05
0.003327770672544042,-0.00025604821706657374,-1.6670813113016874e-05
0.0032954960720063013,-0.00025439240038043615,-1.6798423267378626e-05
0.003267501047204857,-0.0002527516511006334,-1.6925209280248894e-05
0.003244005185106718,-0.0002511237745425555,-1.705117813665969e-05
0.003225177296502768,-0.0002495064789221531,-1.7176335700025866e-05
0.003211134373310229,-0.00024789740100469984,-1.7300686670007578e-05
0.0032019409559193583,-0.0002462941321723924,-1.742423455330185e-05
0.003197608989441939,-0.0002446942446860521,-1.7546981647516462e-05
0.003198098245999854,-0.00024309531787719167,-1.7668929038157275e-05
0.003203317366977884,-0.00024149496397394724,-1.779007660862006e-05
0.0032131255428194095,-0.00023989085324649793,-1.791042306292517e-05
0.0032273348118587258,-0.0002382807381578284,-1.802996596077625e-05
0.0032457129340552264,-0.0002366624762213499,-1.8148701764371047e-05
0.0032679867832045963,-0.00023503405129203495,-1.8266625896249394e-05
0.003293846196719201,-0.000233393593047054,-1.8383732807334165e-05
0.0033229482170442784,-0.00023173939444361312,-1.8500016054206832e-05
0.0033549216512705933,-0.00023006992697653441,-1.861546838456187e-05
0.003389371870712461,-0.00022838385359603866,-1.873008182970501e-05
0.003425885773236591,-0.0002266800391850514,-1.8843847802900284e-05
0.0034640368333153314,-0.00022495755853341342,-1.89567572023299e-05
0.0035033901604600874,-0.00022321570178496957,-1.9068800517409496e-05
0.003543507476779345,-0.00022145397737565972,-1.9179967937199654e-05
0.003583951918864265,-0.00021967211252674882,-1.9290249459675258e-05
0.003624292577787015,-0.000217870051402586,-1.939963500065759e-05
0.003664108711887121,-0.00021604795108016745,-1.9508114501278278e-05
0.003702993588214878,-0.00021420617550514196,-1.9615678032924607e-05
0.003740557920525392,-0.0002123452876279569,-1.9722315898707883e-05
0.003776432875457696,-0.00021046603992896113,-1.982801873059711e-05
0.0038102726215627435,-0.000208569363554706,-1.9932777581468027e-05
0.003841756404972645,-0.00020665635629807215,-2.003658401143122e-05
0.00387059015159299,-0.00020472826965893073,-2.013943016792047e-05
0.003896507612025862,-0.00020278649521802603,-2.0241308859139712e-05
0.003919271076056626,-0.0002008325505460054,-2.034221362058072e-05
0.003938671690716974,-0.000198868064854312,-2.0442138774430798e-05
0.003954529426131409,-0.0001968947645750999,-2.054107948178815e-05
0.003966692746659715,-0.0001949144590319021,-2.0639031787689902e-05
0.003975038054080785,-0.000192929026331717,-2.0735992659030807e-05
0.003979468970422138,-0.00019094039957559127,-2.0831960015507635e-05
0.003979915523182908,-0.00018895055345219001,-2.092693275376458e-05
0.003976333287838891,-0.00018696149124943455,-2.1020910764939986e-05
0.003968702531794903,-0.0001849752322945261,-2.1113894945825976e-05
0.003957027391161519,-0.000182993799813787,-2.1205887203853055e-05
0.003941335099425376,-0.00018101920919114028,-2.1296890456104286e-05
0.003921675274210202,-0.0001790534565977314,-2.1386908622551505e-05
0.003898119251842341,-0.00017709850796621826,-2.1475946613692492e-05
0.003870759441052819,-0.00017515628829299447,-2.1564010312757296e-05
0.0038397086532276185,-0.00017322867126942437,-2.16511065526479e-05
0.003805099360221188,-0.00017131746926606217,-2.1737243087781772e-05
0.0037670828287938987,-0.00016942442371880838,-2.182242856102799e-05
0.0037258280812195606,-0.00016755119599130502,-2.190667246595552e-05
0.003681520635909122,-0.00016569935881202285,-2.1989985104656352e-05
0.003634360991757191,-0.00016387038840510627,-2.2072377541460634e-05
0.0035845628341382896,-0.0001620656574486324,-2.2153861552924068e-05
0.0035323509572515294,-0.00016028642900078495,-2.2234449574536423e-05
0.003477958913628523,-0.00015853385153306493,-2.2314154644669886e-05
0.0034216264124367077,-0.00015680895520154862,-2.239299034635354e-05
0.0033635964913335927,-0.00015511264947560603,-2.247097074752283e-05
0.003304112486128068,-0.00015344572223124063,-2.254811034044954e-05
0.003243414824493545,-0.00015180884040358523,-2.2624423981108247e-05
0.003181737675182415,-0.00015020255227866624,-2.269992682927881e-05
0.0031193054910479555,-0.00014862729148710865,-2.277463429022025e-05
0.003056329493068246,-0.0001470833827410796,-2.2848561958777298e-05
0.0029930041522861677,-0.000145571049329741,-2.2921725566795003e-05
0.002929503733560678,-0.00014409042235827928,-2.299414093471701e-05
0.0028659789689306713,-0.00014264155168265645,-2.3065823928227244e-05
0.0028025539327054347,-0.0001412244184572474,-2.313679042076222e-05
0.0027393231936486667,-0.00013983894917565887,-2.3207056262670446e-05
0.0026763493165212755,-0.00013848503104811638,-2.327663725772639e-05
0.0026136607744778532,-0.0001371625285253666,-2.3345549147619763e-05
0.002551250321141675,-0.0001358713007514617,-2.341380760493897e-05
0.0024890738630456216,-0.0001346112197054149,-2.348142823505319e-05
0.002427049870377915,-0.000133382188772059,-2.3548426587172557e-05
0.002365059362448002,-0.00013218416146385252,-2.3614818174731535e-05
0.0023029464990056868,-0.0001310171599984891,-2.368061850509712e-05
0.002240519796487787,-0.00012988129342461573,-2.37458431184529e-05
0.0021775539701618454,-0.00012877677498295331,-2.381050763555479e-05
0.0021137923838131017,-0.00012770393839445958,-2.3874627813899143e-05
0.0020489500731998723,-0.00012666325278020633,-2.393821961169281e-05
0.0019827172990879347,-0.00012565533593713438,-2.4001299258872145e-05
0.0019147635758305123,-0.00012468096571840477,-2.406388333428603e-05
0.0018447421078945923,-0.0001237410892974735,-2.412598884804e-05
0.0017722945526474864,-0.00012283683013233798,-2.4187633327897454e-05
0.0016970560219994521,-0.00012196949248867625,-2.4248834908552707e-05
0.0016186602416864322,-0.00012114056342275478,-2.4309612422530566e-05
0.0015367447990548512,-0.00012035171216256945,-2.4369985491426897e-05
0.0014509564198028195,-0.00011960478685785503,-2.4429974616182002e-05
0.0013609562191843495,-0.00011890180869810823,-2.448960126507099e-05
0.0012664248746762365,-0.00011824496342464308,-2.454888795810168e-05
0.0011670676633828859,-0.0001176365902901283,-2.460785834653037e-05
0.001062619297774268,-0.00011707916854983901,-2.4666537286240364e-05
0.0009528484816974463,-0.00011657530160497109,-2.4724950903779067e-05
0.0008375621016336828,-0.00011612769895913831,-2.4783126653920095e-05
0.0007166089691134253,-0.00011573915619145153,-2.4841093367707742e-05
0.0005898830396249005,-0.00011541253318926695,-2.4898881290052922e-05
0.00045732604940588805,-0.00011515073091700926,-2.495652210607949e-05
0.0003189295299382924,-0.00011495666702217321,-2.5014048955564284e-05
0.0001747361762477084,-0.00011483325059562672,-2.5071496434968733e-05
2.4840559385069264e-05,-0.00011478335641171853,-2.512890058672057e-05
-0.00013061081132114183,-0.00011480979897470255,-2.5186298875567174e-05
-0.0002914200533290951,-0.00011491530669086511,-2.5243730151983565e-05
-0.00045733906122737513,-0.00011510249646950423,-2.5301234602773657e-05
-0.0006280711805088958,-0.0001153738490299383,-2.5358853689148517e-05
-0.0008032733282402395,-0.00011573168515712558,-2.5416630072695283e-05
-0.0009825584812555186,-0.00011617814310949952,-2.5474607529761938e-05
-0.0011654984607658609,-0.00011671515734500487,-2.5532830854875564e-05
-0.0013516269549469092,-0.00011734443869893306,-2.5591345753886547e-05
-0.0015404427345830204,-0.00011806745612131554,-2.565019872759161e-05
-0.0017314130310213574,-0.00011888542006271664,-2.5709436946637618e-05
-0.001923977059478559,-0.00011979926758534162,-2.5769108118549632e-05
-0.0021175496819221783,-0.0001208096492706918,-2.582926034776364e-05
-0.002311525209528158,-0.00012191691799355439,-2.58899419895797e-05
-0.0025052813407205744,-0.00012312111963111658,-2.595120149898587e-05
-0.0026981832158248405,-0.00012442198577025294,-2.601308727533621e-05
-0.002889587550056202,-0.0001258189284617232,-2.60756475038942e-05
-0.003078846792843214,-0.00012731103704744805,-2.6138929995271493e-05
-0.0032653132560257476,-0.00012889707705966529,-2.6202982023798272e-05
-0.003448343152968967,-0.00013057549116191397,-2.6267850165853665e-05
-0.0036273004940668347,-0.00013234440207367292,-2.6333580139162563e-05
-0.0038015607935562726,-0.0001342016173955787,-2.6400216644029876e-05
-0.003970514559422562,-0.0001361446362338234,-2.6467803207437226e-05
-0.004133570559656263,-0.00013817065751359312,-2.653638203087408e-05
-0.004290158877534213,-0.00014027658987289074,-2.66059938427207e-05
-0.00443973377925568,-0.00014245906303708822,-2.6676677755948193e-05
-0.00458177641665101,-0.0001447144405860649,-2.674847113185398e-05
-0.0047157973809441875,-0.00014703883403546368,-2.6821409450509362e-05
-0.004841339119752668,-0.00014942811816063788,-2.689552618855839e-05
-0.004957978231058047,-0.00015187794749834055,-2.6970852704973133e-05
-0.0050653276469472056,-0.00015438377396784187,-2.704741813533968e-05
-0.005163038709661486,-0.00015694086555699405,-2.712524929522089e-05
-0.005250803125609117,-0.0001595443260158117,-2.720437059311409e-05
-0.005328354766062942,-0.00016218911548872972,-2.7284803953490225e-05
-0.005395471269300642,-0.00016487007199757062,-2.73665687503618e-05
-0.0054519753901133864,-0.00016758193366242413,-2.7449681751776798e-05
-0.005497736041050972,-0.0001703193615202152,-2.753415707557246e-05
-0.005532668973526414,-0.00017307696277385956,-2.7620006156645977e-05
-0.005556737050346465,-0.00017584931427982778,-2.77072377259094e-05
-0.005569950062200317,-0.00017863098605796446,-2.779585780099385e-05
-0.005572364042247392,-0.0001814165645840764,-2.788586968865436e-05
-0.005564080039916129,-0.00018420067560461729,-2.7977273998701532e-05
-0.005545242331052837,-0.00018697800619735952,-2.8070068669152027e-05
-0.005516036067935343,-0.00018974332579710655,-2.8164249002150645e-05
-0.005476684405664613,-0.00019249150591550655,-2.8259807710078798e-05
