frame_number,force
0,884.7005560440384
1,884.8812222930634
2,885.0570893890211
3,885.2281772283751
4,885.3945098941487
5,885.556114975125
6,885.713022872608
7,885.8652661023542
8,886.0128785985606
9,886.1558950256032
10,886.2943501023218
11,886.4282779438176
12,886.5577114272427
13,886.6826815904423
14,886.8032170743559
15,886.9193436205094
16,887.031083633213
17,887.1384558128549
18,887.2414748632825
19,887.3401512736469
20,887.4344911729953
21,887.5244962534639
22,887.6101637549938
23,887.6914865022763
24,887.7684529844183
25,887.8410474694597
26,887.9092501480675
27,887.9730373024196
28,888.0323814972904
29,888.0872517909846
30,888.1376139645108
31,888.1834307685152
32,888.2246621886758
33,888.2612657307941
34,888.2931967262301
35,888.3204086565863
36,888.3428534939366
37,888.3604820500938
38,888.3732443265056
39,888.3810898561617
40,888.3839680304757
41,888.3818284069349
42,888.3746209964169
43,888.3622965314248
44,888.3448067174845
45,888.3221044697594
46,888.294144136151
47,888.2608817072913
48,888.2222750134149
49,888.1782839083819
50,888.1288704419597
51,888.0739990224631
52,888.0136365725008
53,887.9477526804421
54,887.8763197492805
55,887.7993131434332
56,887.7167113334234
57,887.6284960385808
58,887.5346523685079
59,887.4351689644778
60,887.3300381420231
61,887.2192560358513
62,887.1028227479306
63,886.9807424990668
64,886.8530237836694
65,886.7196795269105
66,886.5807272430429
67,886.4361891929759
68,886.2860925381558
69,886.1304694867197
70,885.9693574272486
71,885.8027990454905
72,885.630842420145
73,885.4535410949306
74,885.2709541250751
75,885.0831460964264
76,884.8901871143631
77,884.6921527580986
78,884.4891239948163
79,884.2811870482112
80,884.0684332175224
81,883.8509586455599
82,883.6288640370253
83,883.4022543311563
84,883.171238334898
85,882.9359283241429
86,882.6964396211745
87,882.452890156522
88,882.205400023035
89,881.9540910289511
90,881.6990862550031
91,881.4405096185724
92,881.1784854460519
93,880.9131380531401
94,880.6445913317556
95,880.3729683418271
96,880.0983909067463
97,879.8209792128087
98,879.54085141506
99,879.258123253922
100,878.972907688003
101,878.6853145481488
102,878.3954502161737
103,878.1034173297991
104,877.809314514199
105,877.5132361405978
106,877.2152721128917
107,876.9155076833647
108,876.6140232980935
109,876.3108944721084
110,876.0061916941546
111,875.6999803609001
112,875.3923207404089
113,875.0832679643579
114,874.772872047763
115,874.4611779342465
116,874.1482255644445
117,873.8340499648056
118,873.5186813535541
119,873.2021452603698
120,872.8844626568814
121,872.5656500961571
122,872.2457198602466
123,871.9246801152054
124,871.6025350734138
125,871.2792851640531
126,870.9549272142187
127,870.6294546443811
128,870.3028576817982
129,869.9751235939817
130,869.6462369422358
131,869.3161798533946
132,868.9849323063843
133,868.6524724291663
134,868.3187768012818
135,867.9838207578227
136,867.6475786917664
137,867.3100243524873
138,866.9711311385786
139,866.6308723831197
140,866.2892216295966
141,865.9461528969234
142,865.6016409322824
143,865.2556614507312
144,864.9081913608851
145,864.5592089765652
146,864.2086942149327
147,863.856628781936
148,863.5029963458818
149,863.1477827000284
150,862.7909759155626
151,862.4325664867921
152,862.0725474701601
153,861.7109146176176
154,861.3476665035055
155,860.9828046429213
156,860.6163335986188
157,860.24826107282
158,859.8785979800924
159,859.5073584976953
160,859.1345600903392
161,858.7602235067372
162,858.3843727453605
163,858.007034986532
164,857.6282404879851
165,857.2480224417138
166,856.8664167912931
167,856.4834620104067
168,856.0991988446326
169,855.7136700192657
170,855.3269199160214
171,854.9389942211064
172,854.5499395468945
173,854.1598030298576
174,853.7686319087177
175,853.37647308855
176,852.9833726978956
177,852.589375646363
178,852.194525190131
179,851.7988625129454
180,851.4024263308332
181,851.0052525292596
182,850.6073738412466
183,850.208819574009
184,849.8096153902961
185,849.4097831489579
186,849.0093408071358
187,848.6083023842275
188,848.206677986041
189,847.8044738863642
190,847.4016926618893
191,846.9983333749753
192,846.5943917979399
193,846.1898606729052
194,845.7847300021715
195,845.3789873647281
196,844.9726182544305
197,844.5656064349042
198,844.157934306081
199,843.7495832779416
200,843.3405341484001
201,842.9307674837003
202,842.5202640006283
203,842.1090049499985
204,841.6969725001661
205,841.2841501179295
206,840.8705229424482
207,840.4560781462047
208,840.0408052759129
209,839.6246965657366
210,839.2077472150588
211,838.7899556233714
212,838.3713235760098
213,837.9518563766143
214,837.531562924959
215,837.1104557415641
216,836.6885509428923
217,836.2658681725136
218,835.8424304941303
219,835.4182642518629
220,834.9933989023154
221,834.5678668224311
222,834.1417030974719
223,833.7149452944419
224,833.287633227231
225,832.8598087199149
226,832.4315153736359
227,832.0027983404522
228,831.5737041050179
229,831.1442802727926
230,830.7145753626536
231,830.2846386027356
232,829.8545197303407
233,829.424268798457
234,828.9939359917561
235,828.5635714536386
236,828.1332251236131
237,827.7029465822771
238,827.2727849003965
239,826.8427884889852
240,826.4130049481449
241,825.9834809132612
242,825.5542618978961
243,825.1253921332548
244,824.6969144043157
245,824.268869882686
246,823.8412979562211
247,823.4142360555813
248,822.9877194780441
249,822.5617812088108
250,822.1364517396671
251,821.7117588846252
252,821.2877275925973
253,820.8643797583082
254,820.4417340343477
255,820.019805649404
256,819.5986062399795
257,819.1781437044116
258,818.758422087974
259,818.3394415063509
260,817.9211981128551
261,817.5036841131497
262,817.0868878297416
263,816.6707938166604
264,816.2553830224799
265,815.8406329977124
266,815.426518141268
267,815.013009980379
268,814.600077478846
269,814.1876873691876
270,813.7758045050186
271,813.3643922306858
272,812.9534127657095
273,812.5428276015765
274,812.1325979078756
275,811.7226849439995
276,811.3130504719805
277,810.9036571653021
278,810.4944690075273
279,810.0854516736107
280,809.6765728862894
281,809.2678027401433
282,808.8591139865954
283,808.4504822740811
284,808.0418863385933
285,807.633308140539
286,807.2247329444778
287,806.8161493394454
288,806.4075491996146
289,805.9989275876444
290,805.5902826054037
291,805.1816151979775
292,804.7729289167321
293,804.364229646297
294,803.9555252997193
295,803.5468254863315
296,803.1381411576114
297,802.7294842365985
298,802.3208672359592
299,801.9123028689304
300,801.5038036565428
301,801.0953815339525
302,800.6870474584794
303,800.2788110219639
304,799.8706800702666
305,799.4626603333338
306,799.0547550704938
307,798.6469647375036
308,798.2392866839201
309,797.8317148908151
310,797.4242397588287
311,797.0168479548771
312,796.6095223232618
313,796.2022418643893
314,795.7949817820638
315,795.3877135982179
316,794.9804053322442
317,794.5730217410562
318,794.1655246154781
319,793.7578731280104
320,793.3500242264482
321,792.9419330676956
322,792.5335534865214
323,792.1248384944598
324,791.7157408040274
325,791.3062133728944
326,790.8962099620204
327,790.4856857014037
328,790.0745976568332
329,789.6629053906597
330,789.2505715093505
331,788.8375621910135
332,788.4238476872202
333,788.009402794854
334,787.5942072947037
335,787.1782463538694
336,786.7615108890748
337,786.3439978882112
338,785.9257106878006
339,785.5066592041368
340,785.0868601157777
341,784.6663369952449
342,784.2451203882375
343,783.8232478391537
344,783.4007638624995
345,782.9777198610847
346,782.5541739932879
347,782.1301909923425
348,781.7058419402906
349,781.2812039982113
350,780.8563600930706
351,780.4313985606709
352,780.0064127439869
353,779.5815005465738
354,779.1567639414101
355,778.7323084363361
356,778.3082424984627
357,777.8846769420326
358,777.4617242869049
359,777.0394980969099
360,776.6181123081609
361,776.1976805576402
362,775.7783155227083
363,775.3601282824504
364,774.9432277115063
365,774.5277199162748
366,774.1137077223053
367,773.7012902203019
368,773.2905623766038
369,772.8816147125945
370,772.4745330561723
371,772.0693983668319
372,771.6662866340824
373,771.2652688475387
374,770.8664110365264
375,770.4697743771943
376,770.0754153652623
377,769.6833860521729
378,769.2937343416145
379,768.9065043425583
380,768.5217367740789
381,768.1394694159637
382,767.7597375975602
383,767.3825747160993
384,767.0080127751804
385,766.6360829338367
386,766.2668160560748
387,765.9002432499277
388,765.5363963844228
389,765.1753085732396
390,764.8170146154835
391,764.4615513863442
392,764.1089581724641
393,763.7592769482371
394,763.4125525906119
395,763.0688330318801
396,762.7281693521899
397,762.3906158154012
398,762.056229853104
399,761.7250720022238
400,761.3972058017772
401,761.0726976540457
402,760.7516166548172
403,760.4340343964677
404,760.1200247468776
405,759.8096636070494
406,759.5030286505724
407,759.2001990476388
408,758.9012551745973
409,758.6062783078896
410,758.3153502999629
411,758.0285532347775
412,757.7459690611655
413,757.4676792027346
414,757.1937641432162
415,756.9243029867085
416,756.659372993579
417,756.3990490947178
418,756.1434033889623
419,755.8925046302662
420,755.6464177121319
421,755.4052031569494
422,755.168916617608
423,754.9376083985743
424,754.7113230039025
425,754.4900987199906
426,754.2739672403834
427,754.0629533381567
428,753.8570745890188
429,753.6563411461563
430,753.4607555664413
431,753.2703126866875
432,753.0849995477225
433,752.904795363108
434,752.7296715287317
435,752.5595916693204
436,752.3945117176943
437,752.2343800220453
438,752.079137475933
439,751.9287176656883
440,751.7830470309583
441,751.6420450360423
442,751.5056243518083
443,751.3736910497023
444,751.2461448102381
445,751.122879148162
446,751.0037816555174
447,750.8887342626364
448,750.7776135160675
449,750.670290871901
450,750.5666330031474
451,750.4665021207371
452,750.3697563089657
453,750.2762498773916
454,750.1858337319151
455,750.0983557677515
456,750.0136612861313
457,749.9315934349206
458,749.8519936710525
459,749.7747022398509
460,749.6995586636401
461,749.6264022304383
462,749.5550724734801
463,749.4854096333561
464,749.4172550959743
465,749.350451800894
466,749.2848446156676
467,749.2202806727072
468,749.1566096660081
469,749.0936841057928
470,749.0313595296946
471,748.9694946694418
472,748.9079515723555
473,748.8465956776234
474,748.7852958484398
475,748.7239243625409
476,748.6623568652223
477,748.6004722905739
478,748.5381527584151
479,748.4752834558781
480,748.4117525131669
481,748.34745088249
482,748.2822722278245
483,748.2161128316138
484,748.1488715232707
485,748.0804496337981
486,748.0107509807734
487,747.9396818877997
488,747.867151241927
489,747.7930705917809
490,747.7173542885786
491,747.6399196717043
492,747.5606872996377
493,747.4795812257673
494,747.3965293172571
495,747.3114636138033
496,747.2243207217913
497,747.1350422381648
498,747.0435751975497
499,746.9498725357992
500,746.8538935627163
501,746.7556044358139
502,746.6549786256819
503,746.551997362504
504,746.4466500533008
505,746.3389346608697
506,746.2288580375889
507,746.1164362094214
508,746.0016946071446
509,745.8846682430451
510,745.765401832123
511,745.6439498574296
512,745.5203765797144
513,745.3947559920024
514,745.2671717198145
515,745.1377168674214
516,745.0064938100568
517,744.873613931762
518,744.7391973087379
519,744.6033723388459
520,744.466275319241
521,744.3280499758682
522,744.1888469501821
523,744.0488232492575
524,743.9081416653345
525,743.7669701703128
526,743.6254812900426
527,743.483851462339
528,743.342260381507
529,743.2008903311595
530,743.0599255066165
531,742.9195513283024
532,742.779953748036
533,742.6413185505013
534,742.5038306524782
535,742.3676734030062
536,742.233027888818
537,742.1000722509557
538,741.9689810200532
539,741.8399244789131
540,741.713068061492
541,741.5885717972441
542,741.4665898089958
543,741.3472698714401
544,741.230753036375
545,741.1171733302946
546,741.0066575298024
547,740.8993250200864
548,740.7952877407124
549,740.694650220738
550,740.5975097014789
551,740.5039563405749
552,740.4140734863056
553,740.3279380077629
554,740.2456206654474
555,740.1671865080491
556,740.0926952837515
557,740.022201857391
558,739.9557566273987
559,739.8934059379978
560,739.8351924824188
561,739.7811556924162
562,739.7313321090027
563,739.685755729544
564,739.6444583270284
565,739.607469738153
566,739.5748181179031
567,739.5465301597002
568,739.5226312817925
569,739.5031457819283
570,739.4880969631477
571,739.4775072335732
572,739.4713981824192
573,739.4697906332583
574,739.4727046741804
575,739.4801596633596
576,739.4921742081851
577,739.5087661164646
578,739.529952318837
579,739.5557487620038
580,739.5861702725798
581,739.6212303913472
582,739.6609411774191
583,739.7053129811951
584,739.7543541842109
585,739.80807090362
586,739.8664666596082
587,739.9295420056419
588,739.997294123957
589,740.0697163916165
590,740.1467979249171
591,740.2285231111632
592,740.3148711370109
593,740.4058155226522
594,740.5013236715171
595,740.6013564453854
596,740.7058677741105
597,740.8148043075342
598,740.9281051152528
599,741.0457014383333
600,741.167516496057
601,741.2934653499289
602,741.4234548263203
603,741.557383498583
604,741.6951417295293
605,741.8366117754629
606,741.9816679530134
607,742.1301768698503
608,742.2819977200821
609,742.4369826450056
610,742.5949771599812
611,742.755820648237
612,742.9193469216943
613,743.0853848470143
614,743.2537590321458
615,743.4242905655659
616,743.5967977981257
617,743.7710971564088
618,743.9470039765223
619,744.1243333477489
620,744.302900956127
621,744.4825239186976
622,744.6630215998237
623,744.8442164016349
624,745.0259345213605
625,745.2080066694814
626,745.3902687443323
627,745.5725624603153
628,745.7547359273399
629,745.9366441787198
630,746.1181496447215
631,746.2991225698296
632,746.4794413731357
633,746.6589929527715
634,746.8376729372334
635,747.0153858883602
636,747.1920454611994
637,747.3675745241866
638,747.5419052397565
639,747.7149791021839
640,747.8867469270607
641,748.057168785818
642,748.2262138793205
643,748.3938603466222
644,748.5600950079627
645,748.7249130445069
646,748.8883176206915
647,749.050319457946
648,749.2109363708112
649,749.3701927778977
650,749.5281192002833
651,749.6847517585734
652,749.8401316774755
653,749.9943048043801
654,750.1473211466569
655,750.2992344308963
656,750.4501016857788
657,750.5999828487688
658,750.7489403956472
659,750.8970389907312
660,751.0443451541769
661,751.1909269412798
662,751.3368536274887
663,751.4821953918421
664,751.6270229908363
665,751.7714074148287
666,751.915419520067
667,752.0591296308208
668,752.2026071076144
669,752.3459198794658
670,752.48913394044
671,752.632312813305
672,752.775516985066
673,752.9188033203527
674,753.0622244594242
675,753.2058282085346
676,753.3496569316846
677,753.4937469539648
678,753.6381279875158
679,753.7828225917027
680,753.9278456793555
681,754.073204080589
682,754.2188961749019
683,754.3649116014902
684,754.5112310569097
685,754.6578261876532
686,754.8046595824626
687,754.9516848659803
688,755.0988468929443
689,755.2460820411022
690,755.3933186006685
691,755.5404772573694
692,755.6874716645372
693,755.8342090977965
694,755.9805911841355
695,756.1265146956775
696,756.2718723973344
697,756.4165539370883
698,756.5604467682277
699,756.7034370940588
700,756.8454108264459
701,756.9862545493295
702,757.1258564774516
703,757.2641073998623
704,757.4009015980257
705,757.5361377293013
706,757.6697196674858
707,757.8015572924418
708,757.9315672206874
709,758.0596734688058
710,758.1858080422388
711,758.3099114435524
712,758.4319330963755
713,758.5518316836026
714,758.669575400828
715,758.7851421280516
716,758.898519524391
717,759.009705051894
718,759.1187059355389
719,759.2255390666271
720,759.3302308553326
721,759.432817035292
722,759.5333424202993
723,759.6318606120153
724,759.7284336583449
725,759.8231316638618
726,759.9160323555571
727,760.0072206086992
728,760.0967879382049
729,760.1848319604908
730,760.2714558298348
731,760.3567676526568
732,760.4408798831396
733,760.5239087042052
734,760.6059733991179
735,760.6871957209058
736,760.7676992687609
737,760.8476088816889
738,760.9270500592886
739,761.0061484176271
740,761.0850291854326
741,761.1638167432911
742,761.2426342069422
743,761.3216030551554
744,761.4008428023405
745,761.480470715262
746,761.5606015719064
747,761.6413474589859
748,761.722817602783
749,761.8051182263113
750,761.8883524249061
751,761.972620053047
752,762.0580176172421
753,762.1446381724332
754,762.2325712218905
755,762.3219026224565
756,762.4127144980828
757,762.5050851649366
758,762.5990890712576
759,762.6947967547362
760,762.7922748192718
761,762.8915859313524
762,762.9927888345761
763,763.0959383799992
764,763.2010855703245
765,763.308277616742
766,763.4175580077166
767,763.5289665889715
768,763.6425396535374
769,763.7583100400238
770,763.8763072360056
771,763.996557481771
772,764.119083868475
773,764.2439064247191
774,764.3710421865479
775,764.5005052471631
776,764.6323067838731
777,764.7664550608231
778,764.9029554070389
779,765.0418101704971
780,765.183018650286
781,765.3265770099708
782,765.4724781755477
783,765.6207117211734
784,765.7712637459721
785,765.9241167461588
786,766.0792494883068
787,766.2366368912069
788,766.3962499246848
789,766.558055533555
790,766.7220165935643
791,766.8880919038287
792,767.0562362172939
793,767.2264003079043
794,767.3985310712293
795,767.5725716543309
796,767.7484616102915
797,767.926137072916
798,768.1055309477531
799,768.2865731165185
800,768.4691906527236
801,768.6533080465327
802,768.8388474368027
803,769.0257288482882
804,769.2138704324478
805,769.4031887111229
806,769.5935988232143
807,769.7850147748865
808,769.9773496937536
809,770.1705160872797
810,770.3644261054635
811,770.5589918076221
812,770.7541254328265
813,770.9497396736788
814,771.1457479535851
815,771.3420647077531
816,771.5386056675167
817,771.7352881468345
818,771.9320313295184
819,772.128756555728
820,772.3253876060838
821,772.5218509813774
822,772.718076175466
823,772.9139959383316
824,773.1095465251476
825,773.3046679257681
826,773.4993040680188
827,773.6934029879956
828,773.8869169612668
829,774.079802590112
830,774.272020843214
831,774.4635370450259
832,774.6543208121954
833,774.8443459345372
834,775.0335901989602
835,775.2220351567078
836,775.4096658366279
837,775.5964704092829
838,775.7824398083785
839,775.9675673173856
840,776.1518481303466
841,776.3352788965494
842,776.5178572588953
843,776.6995813955988
844,776.8804495745204
845,777.060459728838
846,777.2396090618215
847,777.4178936873759
848,777.5953083117957
849,777.7718459605641
850,777.9474977520678
851,778.1222527184415
852,778.2960976729646
853,778.4690171231092
854,778.6409932276789
855,778.8120057954663
856,778.982032322351
857,779.1510480641898
858,779.3190261436022
859,779.4859376890239
860,779.6517520040312
861,779.8164367639532
862,779.9799582351754
863,780.1422815104793
864,780.3033707517643
865,780.4631894301982
866,780.6217005537028
867,780.7788668729385
868,780.9346510595
869,781.0890158535045
870,781.2419241817207
871,781.393339251355
872,781.5432246278505
873,781.6915443066598
874,781.8382627884571
875,781.9833451652353
876,782.1267572225493
877,782.2684655618197
878,782.4084377460504
879,782.546642471956
880,782.6830497709387
881,782.8176312405076
882,782.9503603065791
883,783.0812125157586
884,783.2101658554327
885,783.3372010984676
886,783.462302168424
887,783.5854565202486
888,783.7066555303796
889,783.8258948894808
890,783.9431749910212
891,784.0585013094753
892,784.1718847623838
893,784.2833420504297
894,784.3928959690483
895,784.5005756841576
896,784.6064169638064
897,784.7104623573968
898,784.8127613149655
899,784.91337024056
900,785.0123524755315
901,785.1097782092402
902,785.2057243162217
903,785.3002741205107
904,785.3935170895462
905,785.4855484616713
906,785.5764688124799
907,785.6663835662167
908,785.7554024592482
909,785.8436389631163
910,785.9312096746695
911,786.0182336802287
912,786.1048318998743
913,786.1911264169614
914,786.2772397972282
915,786.3632944016492
916,786.4494116974242
917,786.5357115718809
