frame_number,force
0,884.7005560405399
1,884.8812222896568
2,885.057089385698
3,885.2281772251267
4,885.3945098909664
5,885.5561149719998
6,885.7130228695302
7,885.8652660993131
8,886.0128785955459
9,886.1558950226047
10,886.2943500993299
11,886.4282779408227
12,886.5577114242348
13,886.6826815874115
14,886.8032170712926
15,886.9193436174043
16,887.0310836300575
17,887.1384558096402
18,887.2414748599994
19,887.3401512702854
20,887.4344911695448
21,887.5244962499127
22,887.6101637513291
23,887.691486498485
24,887.7684529804877
25,887.8410474653778
26,887.9092501438226
27,887.9730372980011
28,888.0323814926891
29,888.0872517861922
30,888.1376139595206
31,888.183430763322
32,888.2246621832762
33,888.2612657251873
34,888.2931967204169
35,888.3204086505691
36,888.3428534877196
37,888.3604820436826
38,888.373244319907
39,888.3810898493829
40,888.3839680235254
41,888.381828399823
42,888.3746209891539
43,888.3622965240224
44,888.3448067099549
45,888.3221044621151
46,888.2941441284054
47,888.2608816994583
48,888.2222750055091
49,888.178283900419
50,888.128870433956
51,888.0739990144348
52,888.0136365644652
53,887.9477526724171
54,887.8763197412839
55,887.7993131354832
56,887.7167113255379
57,887.6284960307773
58,887.5346523608039
59,887.4351689568903
60,887.3300381345675
61,887.2192560285415
62,887.102822740779
63,886.9807424920837
64,886.8530237768634
65,886.719679520288
66,886.5807272366088
67,886.436189186735
68,886.2860925321123
69,886.1304694808771
70,885.9693574216099
71,885.8027990400575
72,885.6308424149182
73,885.4535410899091
74,885.2709541202565
75,885.0831460918063
76,884.8901871099351
77,884.6921527538542
78,884.4891239907448
79,884.2811870443003
80,884.0684332137588
81,883.8509586419295
82,883.6288640335129
83,883.4022543277454
84,883.1712383315715
85,882.9359283208834
86,882.6964396179636
87,882.4528901533411
88,882.205400019866
89,881.9540910257774
90,881.6990862518089
91,881.4405096153426
92,881.1784854427715
93,880.9131380497948
94,880.6445913283328
95,880.3729683383153
96,880.0983909031359
97,879.8209792090911
98,879.5408514112285
99,879.2581232499706
100,878.972907683928
101,878.685314543948
102,878.395450211846
103,878.1034173253436
104,877.8093145096152
105,877.5132361358859
106,877.2152721080531
107,876.9155076784023
108,876.6140232930113
109,876.3108944669117
110,876.0061916888488
111,875.6999803554908
112,875.3923207349018
113,875.0832679587592
114,874.772872042079
115,874.4611779284836
116,874.1482255586087
117,873.8340499589027
118,873.5186813475896
119,873.2021452543485
120,872.884462650808
121,872.5656500900361
122,872.2457198540826
123,871.9246801090032
124,871.6025350671782
125,871.2792851577892
126,870.9549272079324
127,870.6294546380789
128,870.3028576754871
129,869.9751235876689
130,869.6462369359282
131,869.3161798470984
132,868.9849323001051
133,868.652472422909
134,868.3187767950502
135,867.98382075162
136,867.6475786855956
137,867.3100243463513
138,866.9711311324794
139,866.6308723770585
140,866.2892216235738
141,865.9461528909378
142,865.6016409263307
143,865.2556614448088
144,864.9081913549865
145,864.5592089706842
146,864.2086942090624
147,863.8566287760693
148,863.5029963400124
149,863.1477826941506
150,862.7909759096714
151,862.4325664808836
152,862.0725474642314
153,861.710914611667
154,861.3476664975326
155,860.9828046369279
156,860.6163335926083
157,860.2482610667971
158,859.8785979740621
159,859.5073584916628
160,859.1345600843101
161,858.7602235007176
162,858.3843727393554
163,858.0070349805458
164,857.6282404820221
165,857.2480224357786
166,856.866416785391
167,856.4834620045441
168,856.0991988388157
169,855.713670013501
170,855.3269199103149
171,854.9389942154635
172,854.5499395413195
173,854.159803024354
174,853.768631903287
175,853.376473083192
176,852.9833726926083
177,852.5893756411432
178,852.194525184974
179,851.7988625078464
180,851.402426325787
181,851.0052525242622
182,850.6073738362946
183,850.2088195690985
184,849.809615385423
185,849.4097831441178
186,849.0093408023243
187,848.6083023794398
188,848.2066779812718
189,847.8044738816081
190,847.4016926571409
191,846.9983333702295
192,846.5943917931916
193,846.189860668149
194,845.7847299974027
195,845.3789873599422
196,844.972618249623
197,844.5656064300697
198,844.1579343012138
199,843.749583273036
200,843.3405341434502
201,842.9307674787004
202,842.5202639955739
203,842.1090049448856
204,841.6969724949912
205,841.2841501126901
206,840.8705229371429
207,840.4560781408328
208,840.0408052704739
209,839.6246965602301
210,839.2077472094833
211,838.7899556177248
212,838.3713235702893
213,837.9518563708169
214,837.5315629190816
215,837.1104557356034
216,836.6885509368448
217,836.265868166377
218,835.8424304879042
219,835.4182642455485
220,834.9933988959157
221,834.5678668159497
222,834.1417030909125
223,833.7149452878083
224,833.2876332205267
225,832.859808713143
226,832.4315153668003
227,832.0027983335575
228,831.5737040980692
229,831.1442802657956
230,830.7145753556142
231,830.2846385956606
232,829.8545197232364
233,829.42426879133
234,828.9939359846131
235,828.5635714464864
236,828.133225116458
237,827.7029465751245
238,827.2727848932512
239,826.8427884818515
240,826.4130049410263
241,825.9834809061621
242,825.5542618908215
243,825.1253921262107
244,824.6969143973101
245,824.2688698757287
246,823.8412979493233
247,823.4142360487544
248,822.9877194712997
249,822.5617812021602
250,822.1364517331211
251,821.7117588781933
252,821.2877275862874
253,820.8643797521261
254,820.4417340282976
255,820.0198056434884
256,819.598606234199
257,819.1781436987642
258,818.7584220824559
259,818.3394415009566
260,817.9211981075774
261,817.5036841079805
262,817.0868878246717
263,816.6707938116795
264,816.2553830175762
265,815.8406329928735
266,815.4265181364818
267,815.0130099756341
268,814.6000774741319
269,814.1876873644954
270,813.7758045003407
271,813.3643922260165
272,812.9534127610449
273,812.5428275969134
274,812.1325979032121
275,811.7226849393346
276,811.3130504673148
277,810.9036571606373
278,810.4944690028663
279,810.0854516689569
280,809.6765728816475
281,809.2678027355192
282,808.8591139819958
283,808.4504822695129
284,808.0418863340634
285,807.633308136055
286,807.224732940047
287,806.8161493350746
288,806.4075491953087
289,805.9989275834068
290,805.5902826012361
291,805.1816151938801
292,804.7729289127035
293,804.3642296423351
294,803.9555252958211
295,803.546825482493
296,803.1381411538275
297,802.7294842328636
298,802.3208672322678
299,801.912302865278
300,801.5038036529252
301,801.0953815303658
302,800.6870474549203
303,800.2788110184295
304,799.8706800667541
305,799.4626603298407
306,799.0547550670185
307,798.6469647340451
308,798.2392866804774
309,797.8317148873878
310,797.4242397554167
311,797.0168479514803
312,796.6095223198788
313,796.2022418610184
314,795.7949817787021
315,795.3877135948621
316,794.9804053288901
317,794.5730217376987
318,794.1655246121113
319,793.7578731246278
320,793.3500242230433
321,792.9419330642613
322,792.5335534830508
323,792.1248384909469
324,791.715740800467
325,791.3062133692815
326,790.8962099583507
327,790.4856856976734
328,790.0745976530396
329,789.6629053868003
330,789.2505715054226
331,788.8375621870149
332,788.4238476831492
333,788.0094027907085
334,787.5942072904818
335,787.1782463495704
336,786.7615108846978
337,786.3439978837553
338,785.9257106832641
339,785.5066591995179
340,785.0868601110741
341,784.6663369904542
342,784.2451203833568
343,783.82324783418
344,783.4007638574305
345,782.9777198559196
346,782.5541739880273
347,782.1301909869879
348,781.7058419348447
349,781.2812039926764
350,780.856360087449
351,780.4313985549647
352,780.0064127381978
353,779.5815005407025
354,779.1567639354564
355,778.7323084302997
356,778.3082424923423
357,777.8846769358267
358,777.4617242806123
359,777.0394980905287
360,776.6181123016886
361,776.197680551074
362,775.7783155160454
363,775.3601282756883
364,774.9432277046434
365,774.52771990931
366,774.1137077152378
367,773.7012902131304
368,773.2905623693275
369,772.8816147052128
370,772.4745330486844
371,772.0693983592363
372,771.6662866263769
373,771.2652688397209
374,770.8664110285947
375,770.4697743691471
376,770.0754153570981
377,769.6833860438909
378,769.2937343332153
379,768.906504334044
380,768.5217367654533
381,768.1394694072318
382,767.759737588728
383,767.3825747071741
384,767.0080127661705
385,766.6360829247506
386,766.2668160469209
387,765.9002432407144
388,765.5363963751589
389,765.1753085639349
390,764.8170146061484
391,764.4615513769902
392,764.1089581631028
393,763.7592769388801
394,763.4125525812705
395,763.0688330225656
396,762.7281693429134
397,762.3906158061742
398,762.0562298439381
399,761.7250719931313
400,761.3972057927714
401,761.0726976451404
402,760.7516166460265
403,760.4340343878059
404,760.1200247383583
405,759.8096635986851
406,759.5030286423747
407,759.200199039619
408,758.9012551667661
409,758.6062783002568
410,758.315350292537
411,758.0285532275661
412,757.745969054175
413,757.4676791959704
414,757.1937641366825
415,756.9243029804081
416,756.659372987513
417,756.3990490888852
418,756.1434033833593
419,755.8925046248874
420,755.6464177069706
421,755.4052031519986
422,755.1689166128607
423,754.9376083940236
424,754.7113229995421
425,754.4900987158144
426,754.2739672363859
427,754.0629533343329
428,753.8570745853635
429,753.6563411426642
430,753.4607555631076
431,753.2703126835069
432,753.0849995446899
433,752.904795360218
434,752.7296715259798
435,752.5595916667023
436,752.3945117152059
437,752.2343800196826
438,752.0791374736924
439,751.9287176635672
440,751.7830470289541
441,751.6420450341512
442,751.505624350025
443,751.3736910480203
444,751.2461448086502
445,751.1228791466604
446,751.0037816540936
447,750.8887342612819
448,750.7776135147739
449,750.6702908706586
450,750.566633001946
451,750.4665021195661
452,750.3697563078144
453,750.2762498762485
454,750.1858337307684
455,750.0983557665896
456,750.0136612849425
457,749.9315934336929
458,749.8519936697742
459,749.7747022385108
460,749.6995586622279
461,749.6264022289441
462,749.5550724718951
463,749.4854096316722
464,749.4172550941842
465,749.3504517989909
466,749.2848446136449
467,749.2202806705589
468,749.1566096637287
469,749.0936841033775
470,749.0313595271397
471,748.969494666745
472,748.9079515695157
473,748.8465956746404
474,748.7852958453134
475,748.723924359271
476,748.6623568618093
477,748.6004722870183
478,748.5381527547177
479,748.4752834520392
480,748.411752509187
481,748.347450878369
482,748.2822722235629
483,748.2161128272121
484,748.1488715187296
485,748.0804496291189
486,748.010750975958
487,747.9396818828502
488,747.8671512368463
489,747.7930705865725
490,747.7173542832463
491,747.639919666252
492,747.5606872940696
493,747.4795812200878
494,747.3965293114702
495,747.3114636079132
496,747.2243207158019
497,747.1350422320801
498,747.0435751913735
499,746.9498725295351
500,746.8538935563677
501,746.7556044293844
502,746.6549786191767
503,746.5519973559293
504,746.4466500466638
505,746.3389346541778
506,746.2288580308494
507,746.116436202641
508,746.0016946003291
509,745.8846682361994
510,745.7654018252518
511,745.6439498505376
512,745.520376572806
513,745.3947559850815
514,745.2671717128851
515,745.1377168604877
516,745.0064938031229
517,744.8736139248327
518,744.7391973018185
519,744.6033723319414
520,744.4662753123561
521,744.3280499690077
522,744.1888469433517
523,744.0488232424638
524,743.9081416585858
525,743.7669701636192
526,743.6254812834156
527,743.4838514557913
528,743.3422603750514
529,743.2008903248085
530,743.0599255003817
531,742.9195513221943
532,742.7799537420632
533,742.6413185446712
534,742.5038306467965
535,742.3676733974773
536,742.2330278834459
537,742.1000722457435
538,741.9689810150043
539,741.8399244740301
540,741.7130680567772
541,741.5885717926989
542,741.4665898046212
543,741.3472698672366
544,741.230753032342
545,741.1171733264301
546,741.0066575261033
547,740.8993250165481
548,740.7952877373294
549,740.6946502175032
550,740.5975096983836
551,740.5039563376096
552,740.4140734834596
553,740.3279380050244
554,740.2456206628036
555,740.1671865054861
556,740.0926952812551
557,740.0222018549472
558,739.9557566249929
559,739.8934059356156
560,739.8351924800468
561,739.7811556900419
562,739.7313321066155
563,739.6857557271345
564,739.6444583245888
565,739.6074697356763
566,739.5748181153829
567,739.5465301571304
568,739.5226312791674
569,739.5031457792423
570,739.4880969603958
571,739.4775072307501
572,739.4713981795196
573,739.4697906302772
574,739.472704671113
575,739.4801596602018
576,739.4921742049332
577,739.5087661131153
578,739.5299523153874
579,739.5557487584517
580,739.5861702689244
581,739.6212303875886
582,739.6609411735583
583,739.7053129772343
584,739.7543541801527
585,739.8080708994684
586,739.8664666553678
587,739.9295420013185
588,739.9972941195573
589,740.0697163871477
590,740.1467979203859
591,740.2285231065757
592,740.3148711323734
593,740.4058155179704
594,740.5013236667958
595,740.6013564406297
596,740.7058677693257
597,740.8148043027256
598,740.9281051104265
599,741.0457014334954
600,741.1675164912137
601,741.2934653450865
602,741.4234548214852
603,741.5573834937607
604,741.6951417247245
605,741.8366117706797
606,741.9816679482553
607,742.1301768651207
608,742.2819977153845
609,742.4369826403439
610,742.5949771553594
611,742.7558206436588
612,742.919346917164
613,743.0853848425365
614,743.2537590277252
615,743.424290561207
616,743.5967977938324
617,743.7710971521838
618,743.9470039723675
619,744.1243333436648
620,744.3029009521129
621,744.4825239147507
622,744.6630215959401
623,744.8442163978092
624,745.0259345175862
625,745.2080066657504
626,745.3902687406354
627,745.5725624566427
628,745.7547359236809
629,745.9366441750633
630,746.1181496410564
631,746.2991225661452
632,746.4794413694217
633,746.6589929490183
634,746.8376729334329
635,747.0153858845061
636,747.1920454572869
637,747.3675745202122
638,747.5419052357183
639,747.7149790980811
640,747.8867469228936
641,748.0571687815877
642,748.2262138750298
643,748.3938603422756
644,748.560095003567
645,748.7249130400701
646,748.8883176162224
647,749.0503194534539
648,749.2109363663059
649,749.370192773389
650,749.5281191957806
651,749.6847517540859
652,749.8401316730126
653,749.9943047999507
654,750.1473211422693
655,750.2992344265588
656,750.4501016814988
657,750.5999828445529
658,750.7489403915005
659,750.8970389866572
660,751.0443451501784
661,751.1909269373596
662,751.3368536236494
663,751.4821953880868
664,751.6270229871682
665,751.7714074112506
666,751.9154195165814
667,752.05912962743
668,752.2026071043197
669,752.3459198762681
670,752.4891339373401
671,752.6323128103031
672,752.7755169821614
673,752.9188033175438
674,753.0622244567091
675,753.2058282059106
676,753.3496569291481
677,753.4937469515114
678,753.6381279851413
679,753.7828225894029
680,753.9278456771269
681,754.0732040784285
682,754.2188961728071
683,754.3649115994589
684,754.5112310549392
685,754.657826185741
686,754.8046595806053
687,754.9516848641733
688,755.0988468911826
689,755.2460820393801
690,755.3933185989795
691,755.5404772557063
692,755.6874716628926
693,755.8342090961627
694,755.9805911825044
695,756.1265146940411
696,756.2718723956848
697,756.4165539354177
698,756.5604467665285
699,756.7034370923234
700,756.8454108246666
701,756.9862545474981
702,757.1258564755601
703,757.2641073979026
704,757.4009015959907
705,757.536137727184
706,757.6697196652797
707,757.801557290141
708,757.9315672182863
709,758.0596734662995
710,758.185808039623
711,758.3099114408237
712,758.4319330935314
713,758.5518316806417
714,758.6695753977497
715,758.7851421248557
716,758.8985195210779
717,759.0097050484651
718,759.1187059319965
719,759.2255390629739
720,759.3302308515707
721,759.4328170314226
722,759.5333424163218
723,759.6318606079283
724,759.7284336541455
725,759.8231316595459
726,759.9160323511192
727,760.0072206041325
728,760.0967879335022
729,760.184831955645
730,760.2714558248388
731,760.3567676475033
732,760.4408798778215
733,760.5239086987159
734,760.605973393451
735,760.6871957150553
736,760.7676992627215
737,760.8476088754569
738,760.9270500528615
739,761.0061484110032
740,761.0850291786111
741,761.1638167362723
742,761.2426341997281
743,761.3216030477497
744,761.4008427947489
745,761.4804707074917
746,761.5606015639664
747,761.641347450887
748,761.7228175945381
749,761.8051182179357
750,761.8883524164175
751,761.9726200444647
752,762.0580176085869
753,762.1446381637271
754,762.2325712131565
755,762.3219026137183
756,762.4127144893646
757,762.5050851562635
758,762.5990890626551
759,762.6947967462306
760,762.7922748108897
761,762.8915859231203
762,762.9927888265199
763,763.0959383721441
764,763.2010855626943
765,763.3082776093585
766,763.4175580005989
767,763.5289665821366
768,763.642539647
769,763.7583100337956
770,763.8763072300956
771,763.9965574761846
772,764.1190838632143
773,764.2439064197831
774,764.371042181933
775,764.5005052428643
776,764.6323067798837
777,764.7664550571344
778,764.9029554036399
779,765.0418101673745
780,765.1830186474245
781,765.3265770073533
782,765.472478173156
783,765.6207117189887
784,765.7712637439761
785,765.9241167443339
786,766.0792494866361
787,766.2366368896742
788,766.3962499232753
789,766.5580555322556
790,766.7220165923623
791,766.8880919027126
792,767.056236216254
793,767.2264003069323
794,767.3985310703191
795,767.5725716534785
796,767.7484616094938
797,767.9261370721701
798,768.1055309470566
799,768.2865731158695
800,768.4691906521197
801,768.6533080459717
802,768.8388474362829
803,769.0257288478091
804,769.2138704320088
805,769.4031887107229
806,769.5935988228516
807,769.7850147745585
808,769.9773496934569
809,770.1705160870104
810,770.364426105217
811,770.5589918073924
812,770.7541254326067
813,770.9497396734613
814,771.1457479533619
815,771.342064707516
816,771.5386056672569
817,771.7352881465433
818,771.9320313291869
819,772.1287565553466
820,772.325387605643
821,772.5218509808676
822,772.7180761748782
823,772.9139959376574
824,773.109546524379
825,773.3046679248973
826,773.4993040670389
827,773.6934029869004
828,773.8869169600513
829,774.0798025887716
830,774.2720208417443
831,774.463537043422
832,774.6543208104529
833,774.8443459326523
834,775.0335901969299
835,775.2220351545297
836,775.4096658343008
837,775.5964704068056
838,775.7824398057503
839,775.9675673146058
840,776.1518481274153
841,776.3352788934676
842,776.5178572556642
843,776.6995813922198
844,776.8804495709952
845,777.0604597251681
846,777.2396090580081
847,777.4178936834207
848,777.5953083077011
849,777.7718459563333
850,777.947497747705
851,778.1222527139512
852,778.2960976683504
853,778.469017118374
854,778.6409932228255
855,778.8120057904973
856,778.9820323172693
857,779.1510480589992
858,779.319026138307
859,779.4859376836289
860,779.6517519985422
861,779.8164367583765
862,779.9799582295184
863,780.1422815047495
864,780.3033707459693
865,780.463189424346
866,780.6217005478006
867,780.7788668669928
868,780.9346510535162
869,781.0890158474875
870,781.2419241756749
871,781.393339245284
872,781.5432246217579
873,781.6915443005491
874,781.8382627823325
875,781.9833451591021
876,782.1267572164137
877,782.2684655556885
878,782.408437739931
879,782.5466424658557
880,782.6830497648647
881,782.8176312344671
882,782.9503603005795
883,783.0812125098074
884,783.210165849537
885,783.3372010926348
886,783.4623021626612
887,783.5854565145625
888,783.7066555247762
889,783.8258948839658
890,783.9431749855992
891,784.0585013041496
892,784.1718847571568
893,784.2833420453037
894,784.392895964025
895,784.5005756792392
896,784.6064169589949
897,784.7104623526941
898,784.8127613103729
899,784.9133702360776
900,785.0123524711586
901,785.1097782049744
902,785.2057243120591
903,785.3002741164456
904,785.3935170855718
905,785.4855484577806
906,785.576468808665
907,785.666383562469
908,785.7554024555576
909,785.8436389594717
910,785.9312096710601
911,786.0182336766445
912,786.1048318963071
913,786.1911264134048
914,786.2772397936776
915,786.3632943981017
916,786.4494116938781
