frame_number,force
0,884.7680694795619
1,884.9375537905075
2,885.1018261961391
3,885.261043915256
4,885.4153702115863
5,885.5649717542155
6,885.7100159941172
7,885.8506685908005
8,885.9870909173884
9,886.1194376634544
10,886.2478545484165
11,886.3724761597531
12,886.4934239419525
13,886.6108043803181
14,886.7247074396731
15,886.8352053221423
16,886.9423515966325
17,887.0461807301056
18,887.1467080270576
19,887.2439299657325
20,887.3378249057982
21,887.4283541258417
22,887.5154631291134
23,887.5990831412945
24,887.6791327241548
25,887.7555194428064
26,887.8281415421382
27,887.8968896021099
28,887.9616481505353
29,888.0222972181897
30,888.0787138280424
31,888.1307734200792
32,888.1783512231644
33,888.2213235904821
34,888.2595693118145
35,888.2929709040242
36,888.3214158626122
37,888.3447978372984
38,888.3630176810956
39,888.3759843213332
40,888.3836154131451
41,888.3858377570607
42,888.3825874855382
43,888.3738100406966
44,888.3594599728202
45,888.3395005878228
46,888.3139034658471
47,888.2826478666343
48,888.2457200339699
49,888.2031124132826
50,888.1548228022958
51,888.1008534615933
52,888.041210216329
53,887.97590157884
54,887.9049379145993
55,887.8283306650574
56,887.7460916359925
57,887.6582323609965
58,887.564763553622
59,887.4656946643485
60,887.3610335586674
61,887.2507863311635
62,887.1349572677426
63,887.0135489637576
64,886.8865626006557
65,886.7539983795089
66,886.615856106046
67,886.4721359162218
68,886.3228391230361
69,886.167969156731
70,886.0075325651209
71,885.8415400404847
72,885.6700074441372
73,885.4929568074485
74,885.3104172941898
75,885.1224261088144
76,884.9290293270766
77,884.7302826129654
78,884.5262517767234
79,884.3170131290019
80,884.1026535966843
81,883.8832705830615
82,883.658971575062
83,883.4298735197426
84,883.1961020076777
85,882.9577903101971
86,882.7150783212705
87,882.4681114548913
88,882.217039545417
89,881.9620157902857
90,881.7031957614594
91,881.4407364966212
92,881.1747956673311
93,880.9055308105776
94,880.6330986024277
95,880.3576541493085
96,880.0793502764463
97,879.7983368044489
98,879.5147598207112
99,879.2287609669855
100,878.9404767724833
101,878.6500380596026
102,878.3575694379988
103,878.0631888890713
104,877.7670074352103
105,877.4691288890851
106,877.169649682833
107,876.8686587784598
108,876.5662376579947
109,876.2624603888191
110,875.9573937587716
111,875.6510974764896
112,875.3436244330668
113,875.0350210194669
114,874.7253274897414
115,874.4145783555568
116,874.1028027952005
117,873.7900250585357
118,873.4762648466707
119,873.1615376443267
120,872.8458549877275
121,872.5292246596081
122,872.2116508101532
123,871.8931340061614
124,871.5736712142509
125,871.253255732312
126,870.9318770959452
127,870.6095209963062
128,870.2861692454887
129,869.9617998149406
130,869.6363869574488
131,869.3099014096201
132,868.9823106609908
133,868.6535792682356
134,868.3236691906545
135,867.9925401276909
136,867.6601498474774
137,867.326454501858
138,866.9914089256096
139,866.6549669174606
140,866.3170815007834
141,865.9777051633313
142,865.6367900770313
143,865.2942883001161
144,864.9501519659913
145,864.6043334670371
146,864.2567856455304
147,863.9074620054544
148,863.5563169580998
149,863.2033061141813
150,862.8483866377916
151,862.4915176800628
152,862.1326609077922
153,861.7717811333926
154,861.4088470413132
155,861.0438319963077
156,860.676714911025
157,860.3074811444073
158,859.936123399577
159,859.5626425907093
160,859.187048651263
161,858.8093612581195
162,858.4296104454004
163,858.0478370787439
164,857.664093159754
165,857.2784419346975
166,856.8909577906867
167,856.5017259333699
168,856.1108418492155
169,855.7184105603291
170,855.3245456797567
171,854.9293682723115
172,854.5330055238883
173,854.1355892251989
174,853.7372540856364
175,853.3381359061615
176,852.9383696502055
177,852.5380874551513
178,852.1374166269807
179,851.7364776627171
180,851.3353823507227
181,850.9342320035591
182,850.5331158775654
183,850.1321098273378
184,849.7312752343886
185,849.3306582381546
186,848.9302892832451
187,848.5301829815251
188,848.130338276236
189,847.7307388879881
190,847.3313540143207
191,846.9321392452025
192,846.5330376523015
193,846.1339810136787
194,845.7348911437647
195,845.3356813043482
196,844.9362576728246
197,844.5365208414719
198,844.136367321258
199,843.7356910293696
200,843.3343847503722
201,842.9323415720274
202,842.529456304037
203,842.1256268893624
204,841.7207558127503
205,841.3147515007128
206,840.9075296942799
207,840.4990147637321
208,840.089140925811
209,839.6778533193635
210,839.2651088938364
211,838.8508770666969
212,838.4351401135168
213,838.0178932694573
214,837.5991445402335
215,837.1789142400689
216,836.7572342905895
217,836.33414732518
218,835.9097056458077
219,835.4839700745309
220,835.057008734174
221,834.6288957876692
222,834.1997101667727
223,833.7695343269722
224,833.3384530713224
225,832.9065524860636
226,832.473919022363
227,832.0406387425011
228,831.606796729308
229,831.1724766408341
230,830.7377603853785
231,830.3027278983652
232,829.8674570168566
233,829.432023459531
234,828.9965009219461
235,828.5609612870176
236,828.125474933542
237,827.6901111105601
238,827.2549383396137
239,826.8200248099844
240,826.3854387384812
241,825.9512486717485
242,825.5175237148486
243,825.0843336742911
244,824.651749105712
245,824.2198412567535
246,823.7886818962302
247,823.3583430223383
248,822.9288964445982
249,822.5004132344432
250,822.0729630375365
251,821.6466132401816
252,821.2214279863542
253,820.7974670515063
254,820.3747845929448
255,819.9534278135194
256,819.5334355932238
257,819.1148371557539
258,818.6976508378897
259,818.2818830197799
260,817.8675272612114
261,817.454563678136
262,817.0429585838223
263,816.6326644063099
264,816.223619878133
265,815.815750479459
266,815.4089691066674
267,815.0031769369166
268,814.598264463183
269,814.1941126800449
270,813.7905944062644
271,813.3875757356257
272,812.9849176112817
273,812.5824775188014
274,812.1801112886998
275,811.7776749931855
276,811.3750269164241
277,810.9720295715707
278,810.5685517296133
279,810.1644704168533
280,809.759672833314
281,809.3540581445742
282,808.9475391032367
283,808.5400434619271
284,808.1315151454548
285,807.7219151536355
286,807.3112221693647
287,806.8994328533707
288,806.4865618205514
289,806.0726413104795
290,805.6577205803052
291,805.2418650559052
292,804.825155274703
293,804.4076856455365
294,803.9895630452885
295,803.5709052730681
296,803.1518393872269
297,802.7324999518526
298,802.3130272152955
299,801.8935652364822
300,801.4742599684203
301,801.0552573040429
302,800.6367010879428
303,800.2187310980063
304,799.8014810030418
305,799.3850763076373
306,798.969632305524
307,798.5552520774919
308,798.1420245863012
309,797.7300229330696
310,797.3193028409318
311,796.9099014210038
312,796.5018362584528
313,796.0951048395356
314,795.6896843256878
315,795.285531667237
316,794.8825840385659
317,794.480759570883
318,794.0799583566646
319,793.6800636975782
320,793.2809435652237
321,792.8824522446494
322,792.4844321351267
323,792.0867156873683
324,791.6891274573956
325,791.2914862543533
326,790.8936073558374
327,790.4953047622591
328,790.0963934603678
329,789.6966916635051
330,789.2960229944232
331,788.8942185793699
332,788.4911190302348
333,788.0865763012487
334,787.6804554132988
335,787.2726360404126
336,786.86301395202
337,786.451502304953
338,786.0380327802426
339,785.6225565586724
340,785.2050451265927
341,784.7854909029569
342,784.3639076798764
343,783.9403308705583
344,783.5148175621542
345,783.0874463787209
346,782.6583171675787
347,782.2275505252463
348,781.795287174852
349,781.3616871972883
350,780.9269291072617
351,780.4912087572133
352,780.0547380491332
353,779.6177434357825
354,779.1804641966082
355,778.7431504784566
356,778.3060610992982
357,777.8694611281168
358,777.4336192735049
359,776.9988051286781
360,776.5652863268689
361,776.1333256629872
362,775.7031782404209
363,775.2750887045087
364,774.849288623183
365,774.425994070826
366,774.0054034647845
367,773.5876956952193
368,773.1730285791191
369,772.7615376606584
370,772.3533353722912
371,771.9485105612599
372,771.5471283748456
373,771.1492304895177
374,770.7548356676423
375,770.3639406286659
376,769.976521224824
377,769.5925339107772
378,769.211917492671
379,768.834595137866
380,768.4604766219328
381,768.0894607817427
382,767.7214381334671
383,767.3562936066305
384,766.9939093423507
385,766.6341675028327
386,766.2769530359997
387,765.9221563332634
388,765.5696757140249
389,765.2194196732527
390,764.8713088405142
391,764.5252776157681
392,764.1812754617725
393,763.8392678425442
394,763.4992368062818
395,763.1611812241661
396,762.825116711803
397,762.4910752725757
398,762.1591047094597
399,761.8292678547489
400,761.5016416663767
401,761.176316235617
402,760.85339374454
403,760.5329874032648
404,760.2152203894847
405,759.900224809943
406,759.5881407037962
407,759.2791151027955
408,758.9733011488198
409,758.6708572519187
410,758.3719462612631
411,758.0767346201691
412,757.7853914797887
413,757.4980877481821
414,757.214995051947
415,756.936284590834
416,756.6621258747516
417,756.3926853462707
418,756.1281249070555
419,755.8686003793903
420,755.6142599408726
421,755.3652425714224
422,755.1216765499256
423,754.8836780370082
424,754.6513497830243
425,754.4247800035802
426,754.2040414619912
427,753.9891907859765
428,753.7802680292477
429,753.5772964742376
430,753.3802826630404
431,753.1892166380611
432,753.0040723684936
433,752.8248083331625
434,752.6513682272802
435,752.4836817607379
436,752.321665515372
437,752.1652238260459
438,752.0142496474487
439,751.8686253698191
440,751.7282235557958
441,751.5929075860017
442,751.4625322178866
443,751.3369440761533
444,751.2159821005033
445,751.099477975918
446,750.9872565642833
447,750.8791363479854
448,750.7749298891023
449,750.6744443042112
450,750.5774817565776
451,750.4838399743504
452,750.3933128127444
453,750.3056908868472
454,750.2207623068371
455,750.1383135469339
456,750.058130472538
457,749.9799995373742
458,749.9037091448303
459,749.8290511462452
460,749.7558224282649
461,749.6838265287643
462,749.6128752195194
463,749.5427900005424
464,749.4734034604854
465,749.4045604664182
466,749.3361191532769
467,749.2679516887982
468,749.1999447947385
469,749.1320000096696
470,749.0640336818003
471,748.9959766819935
472,748.9277738289387
473,748.8593830226184
474,748.7907740899001
475,748.7219273562864
476,748.652831968976
477,748.58348400835
478,748.5138844378114
479,748.4440369527395
480,748.3739457937858
481,748.3036135861099
482,748.2330392567168
483,748.1622160710921
484,748.0911298219498
485,748.0197571995126
486,747.9480643731545
487,747.8760058141202
488,747.803523385624
489,747.7305457220302
490,747.6569879158366
491,747.5827515285357
492,747.5077249360659
493,747.4317840113379
494,747.354793137343
495,747.2766065355173
496,747.1970698851375
497,747.1160222015797
498,747.0332979362705
499,746.9487292590247
500,746.8621484808983
501,746.7733905694097
502,746.6822956986178
503,746.5887117689886
504,746.4924968320979
505,746.3935213651595
506,746.291670356129
507,746.1868451754646
508,746.0789652223107
509,745.9679693408465
510,745.8538170073823
511,745.7364892918115
512,745.6159895997197
513,745.4923442033064
514,745.3656025683464
515,745.2358374804069
516,745.1031449684341
517,744.9676440202135
518,744.8294760839553
519,744.6888043542078
520,744.5458128484713
521,744.4007052921352
522,744.2537038397824
523,744.1050476653619
524,743.9549914514259
525,743.8038038024002
526,743.65176560083
527,743.4991683177238
528,743.3463122788762
529,743.1935048810119
530,743.0410587474514
531,742.8892898136911
532,742.7385153367511
533,742.5890518251729
534,742.4412128890427
535,742.2953070143454
536,742.1516352752548
537,742.010489010545
538,741.8721475030319
539,741.736875710636
540,741.604922102755
541,741.476516655937
542,741.3518690588804
543,741.2311671705695
544,741.1145757701669
545,741.0022356354644
546,740.8942629876819
547,740.7907493407672
548,740.6917617881586
549,740.5973437453416
550,740.5075161414463
551,740.4222790204568
552,740.3416134797546
553,740.2654838507685
554,740.1938400204126
555,740.1266198022549
556,740.0637512866788
557,740.0051551224874
558,739.9507467024886
559,739.9004382377477
560,739.8541407078066
561,739.8117656709497
562,739.773226915993
563,739.7384419385971
564,739.7073332297422
565,739.6798293695712
566,739.6558659266973
567,739.6353861724723
568,739.6183416303946
569,739.6046924896583
570,739.594407916258
571,739.5874662938368
572,739.5838554198971
573,739.5835726724633
574,739.5866251500456
575,739.5930297775532
576,739.6028133661264
577,739.6160126154914
578,739.6326740500315
579,739.6528538812507
580,739.6766177887964
581,739.7040406101372
582,739.7352059251648
583,739.7702055156427
584,739.8091386720627
585,739.8521113163321
586,739.8992349115239
587,739.9506251406239
588,740.0064003537202
589,740.0666798038545
590,740.1315817093106
591,740.2012211888687
592,740.2757081177562
593,740.3551449525521
594,740.4396245766293
595,740.5292282197706
596,740.6240235011487
597,740.7240626338503
598,740.8293808160087
599,740.9399948233565
600,741.0559018119469
601,741.1770783351818
602,741.3034795746139
603,741.4350387819425
604,741.5716669320531
605,741.7132525911035
606,741.8596620063271
607,742.0107394250693
608,742.1663076507587
609,742.3261688446748
610,742.4901055853484
611,742.6578821997522
612,742.8292463772476
613,743.0039310652098
614,743.181656625617
615,743.3621332107735
616,743.5450633011333
617,743.7301443422184
618,743.9170714189863
619,744.1055399108538
620,744.2952480762544
621,744.4858995212394
622,744.6772055121422
623,744.8688870973936
624,745.0606770090003
625,745.2523213227245
626,745.4435808683463
627,745.6342323922207
628,745.8240694770758
629,746.0129032204179
630,746.2005626716625
631,746.3868950334569
632,746.5717656413325
633,746.7550577456709
634,746.9366721327091
635,747.1165266338762
636,747.2945555746509
637,747.4707091990277
638,747.6449530795236
639,747.8172674963408
640,747.9876467498332
641,748.1560983612168
642,748.3226421192122
643,748.4873089436826
644,748.6501395576418
645,748.8111829824954
646,748.9704948944957
647,749.1281359001504
648,749.2841698033606
649,749.4386619460292
650,749.5916777035568
651,749.7432812051067
652,749.8935343296835
653,750.0424960104507
654,750.1902218654039
655,750.3367641605528
656,750.4821720993718
657,750.6264924204867
658,750.7697702760302
659,750.9120503538378
660,751.0533781953708
661,751.1938016498257
662,751.3333723956657
663,751.4721474531526
664,751.6101906060795
665,751.747573651578
666,751.8843774042468
667,752.020692391222
668,752.1566191863743
669,752.2922683463438
670,752.4277599293646
671,752.5632225968894
672,752.6987923134911
673,752.8346106703516
674,752.9708228645554
675,753.1075753748642
676,753.2450133855052
677,753.3832780197147
678,753.5225034524527
679,753.6628139776647
680,753.8043211092437
681,753.9471207942779
682,754.0912908132451
683,754.2368884382716
684,754.3839484168975
685,754.5324813394126
686,754.682472429818
687,754.8338807790321
688,754.9866390234713
689,755.1406534667559
690,755.2958046418934
691,755.4519483075984
692,755.6089168627109
693,755.7665211503772
694,755.9245526124706
695,756.0827857453986
696,756.2409808014252
697,756.398886677659
698,756.5562439401123
699,756.7127879398328
700,756.8682519848047
701,757.0223705301139
702,757.1748823421652
703,757.325533587711
704,757.4740807998875
705,757.6202936798385
706,757.7639576984052
707,757.9048764637416
708,758.0428738183163
709,758.1777956271739
710,758.309511222836
711,758.4379144816685
712,758.5629245201541
713,758.6844860150792
714,758.8025691669625
715,758.9171693391364
716,759.0283064150359
717,759.1360239239701
718,759.2403879905951
719,759.3414861618596
720,759.4394261522536
721,759.5343345246853
722,759.6263553013187
723,759.7156484881658
724,759.8023885007298
725,759.8867624889729
726,759.9689685722269
727,760.049214004321
728,760.1277132924288
729,760.2046862887853
730,760.2803562665882
731,760.35494798605
732,760.4286857561048
733,760.5017915012874
734,760.5744828524406
735,760.646971294085
736,760.719460416042
737,760.7921443254825
738,760.8652062732355
739,760.9388175347796
740,761.0131365669313
741,761.0883084434815
742,761.1644645623949
743,761.2417226138335
744,761.3201867971275
745,761.3999482703518
746,761.4810858078171
747,761.563666630604
748,761.6477473636078
749,761.7333750611804
750,761.8205882385279
751,761.9094178524681
752,761.9998881914677
753,762.092017655551
754,762.1858194263843
755,762.2813020429744
756,762.378469907386
757,762.477323748345
758,762.5778610706493
759,762.6800766160779
760,762.7839628553027
761,762.889510518903
762,762.9967091632433
763,763.105547761063
764,763.2160153092217
765,763.3281014519793
766,763.4417971216719
767,763.5570951981656
768,763.6739911853788
769,763.7924838975786
770,763.9125761384078
771,764.0342753429173
772,764.1575941434951
773,764.2825508197734
774,764.4091695991281
775,764.5374807834023
776,764.6675206857788
777,764.7993313686515
778,764.9329601799609
779,765.0684590934949
780,765.2058838680507
781,765.3452930474865
782,765.4867468251932
783,765.6303057945577
784,765.7760296074636
785,765.9239755694409
786,766.0741972115766
787,766.2267428910739
788,766.3816544790499
789,766.5389661927716
790,766.6987036198259
791,766.8608829646087
792,767.0255105257329
793,767.192582392347
794,767.3620843334593
795,767.533991847714
796,767.708270338925
797,767.8848753839659
798,768.0637530649104
799,768.2448403449266
800,768.4280654734529
801,768.6133484085606
802,768.8006012445876
803,768.9897286341268
804,769.1806281974764
805,769.3731909195826
806,769.5673015414446
807,769.762838956594
808,769.9596766232718
809,770.157683001841
810,770.3567220262087
811,770.5566536165651
812,770.7573342391136
813,770.958617519689
814,771.1603549217316
815,771.3623964996868
816,771.5645917341911
817,771.766790449695
818,771.9688438127384
819,772.1706054086092
820,772.371932392281
821,772.5726867062054
822,772.7727363540002
823,772.971956713844
824,773.1702318661708
825,773.3674558988191
826,773.563534144155
827,773.758384300399
828,773.9519373934075
829,774.1441385431648
830,774.3349475076005
831,774.5243389811322
832,774.71230262537
833,774.8988428090562
834,775.083978040002
835,775.2677400850968
836,775.450172790852
837,775.6313306314205
838,775.8112770224966
839,775.9900824489373
840,776.1678224615424
841,776.3445756028563
842,776.5204213224405
843,776.6954379402807
844,776.8697007141949
845,777.0432800625528
846,777.2162399866538
847,777.3886367290313
848,777.5605176951157
849,777.7319206541482
850,777.9028732211218
851,778.073392609823
852,778.2434856418345
853,778.413148994675
854,778.5823696681438
855,778.7511256413626
856,778.9193866902069
857,779.0871153389726
858,779.2542679266932
859,779.4207957716493
860,779.5866464159292
861,779.7517649257954
862,779.9160952128577
863,780.0795813269659
864,780.2421686582028
865,780.4038049768599
866,780.5644412404048
867,780.7240321068602
868,780.882536113894
869,781.039915509594
870,781.1961357512047
871,781.3511647183914
872,781.5049717124217
873,781.6575263253787
874,781.8087972606863
875,781.958751172059
876,782.1073515725344
877,782.2545578559162
878,782.4003244693464
879,782.5446002734856
880,782.6873281230522
881,782.8284446944515
882,782.9678805788278
883,783.1055606490373
884,783.24140469959
885,783.3753283507659
886,783.5072442012507
887,783.6370632062084
888,783.7646962495777
889,783.8900558733718
890,784.013058125974
891,784.1336244946297
892,784.251683889728
893,784.3671746466894
894,784.480046505344
895,784.5902625184887
896,784.6978008340121
897,784.8026562925339
898,784.9048417869922
899,785.0043893405189
900,785.1013508705157
901,785.1957986175124
902,785.2878252272961
903,785.377543485301
904,785.4650857134488
905,785.5506028498284
906,785.6342632392905
907,785.7162511687534
908,785.7967651856753
909,785.8760162407109
910,785.954225694361
911,786.0316232226058
912,786.1084446493558
913,786.1849297257371
914,786.2613198703496
915,786.3378558828292
916,786.4147756447354
917,786.4923118247647
