frame_number,force
0,884.7611745457871
1,884.9325763147151
2,885.0988105469747
3,885.2600069514535
4,885.4163011303141
5,885.5678323813634
6,885.7147415075535
7,885.8571686614013
8,885.9952512478153
9,886.1291219020388
10,886.2589065544445
11,886.3847225949359
12,886.5066771583532
13,886.6248655658212
14,886.7393699687949
15,886.8502582455037
16,886.9575831906346
17,887.061382021989
18,887.1616762098724
19,887.2584716213447
20,887.3517589608831
21,887.4415144765262
22,887.5277008853901
23,887.6102684612525
24,887.6891562267888
25,887.7642932032563
26,887.8355996836933
27,887.9029885061334
28,887.9663663099249
29,888.025634762791
30,888.0806917513949
31,888.1314325353508
32,888.1777508720644
33,888.2195401235529
34,888.2566943539114
35,888.2891094171498
36,888.3166840212368
37,888.3393207392509
38,888.3569269284534
39,888.3694155173841
40,888.3767056301978
41,888.3787230334038
42,888.37540040767
43,888.3666774605189
44,888.352500901337
45,888.3328242991636
46,888.3076078393112
47,888.2768179900473
48,888.2404270881609
49,888.1984128536573
50,888.1507578482774
51,888.0974488978476
52,888.0384765018142
53,887.9738342522784
54,887.903518279399
55,887.8275267334018
56,887.7458593097714
57,887.6585168249818
58,887.5655008530707
59,887.4668134353557
60,887.3624568756918
61,887.2524336326072
62,887.1367463175931
63,887.0153978055042
64,886.8883914591611
65,886.7557314670186
66,886.6174232899366
67,886.4734742088663
68,886.3238939589935
69,886.1686954294123
70,886.0078954033445
71,885.8415153136573
72,885.6695819919418
73,885.4921283951494
74,885.3091942983704
75,885.1208269421342
76,884.9270816164584
77,884.7280221545419
78,884.5237213021109
79,884.3142609286512
80,884.0997320546608
81,883.8802346819647
82,883.6558774292083
83,883.4267769893258
84,883.1930574374104
85,882.9548494244476
86,882.7122892953007
87,882.4655181694224
88,882.2146810202586
89,881.9599257833047
90,881.7014025130064
91,881.4392625972134
92,881.1736580275507
93,880.9047407160095
94,880.632661842277
95,880.3575712139589
96,880.079616624868
97,879.7989432051662
98,879.5156927689425
99,879.2300031758178
100,878.9420077291979
101,878.6518346320752
102,878.3596065127293
103,878.0654400224057
104,877.7694455012296
105,877.4717267092941
106,877.1723806232712
107,876.8714972999533
108,876.5691598060203
109,876.2654442109545
110,875.960419639367
111,875.654148379611
112,875.3466860459789
113,875.0380817905153
114,874.7283785571325
115,874.4176133672672
116,874.1058176245181
117,873.7930174243891
118,873.4792338531917
119,873.1644832595275
120,872.8487774853721
121,872.5321240503264
122,872.214526287982
123,871.8959834359221
124,871.5764906834885
125,871.2560391877046
126,870.9346160771157
127,870.6122044705497
128,870.2887835375363
129,869.9643286191067
130,869.6388114164163
131,869.3122002443788
132,868.9844603393602
133,868.655554204187
134,868.3254419719766
135,867.9940817736987
136,867.6614301005385
137,867.3274421569545
138,866.9920722020065
139,866.6552738764178
140,866.3170005130244
141,865.9772054293788
142,865.6358422024924
143,865.2928649266576
144,864.9482284568774
145,864.6018886432959
146,864.2538025650236
147,863.9039287729681
148,863.5522275506484
149,863.1986612018787
150,862.8431943761956
151,862.485794444856
152,862.1264319383404
153,861.7650810496632
154,861.4017201994454
155,861.0363326514424
156,860.6689071613721
157,860.2994386374726
158,859.927928789212
159,859.5543867412865
160,859.1788295923027
161,858.8012828992864
162,858.4217810686805
163,858.040367632358
164,857.6570953864928
165,857.2720263744997
166,856.8852317022519
167,856.4967911819781
168,856.1067928081392
169,855.7153320723205
170,855.3225111242566
171,854.9284377839799
172,854.5332244085884
173,854.1369866193887
174,853.7398419025438
175,853.3419081062692
176,852.9433018652031
177,852.5441369852356
178,852.1445228220704
179,851.7445626882726
180,851.3443523275696
181,850.9439784985823
182,850.5435177096542
183,850.1430351418549
184,849.742583790425
185,849.3422038464611
186,848.9419223297692
187,848.541752972191
188,848.1416963419953
189,847.74174019424
190,847.3418600257481
191,846.9420198061786
192,846.5421728531161
193,846.1422628218245
194,845.7422247863367
195,845.3419863928307
196,844.9414690665059
197,844.5405892512042
198,844.1392596607227
199,843.7373905249559
200,843.3348908219814
201,842.9316694955004
202,842.5276366624496
203,842.1227048166062
204,841.7167900302371
205,841.3098131480533
206,840.901700958046
207,840.4923873147146
208,840.0818141837212
209,839.6699325736474
210,839.2567033194564
211,838.8420976835985
212,838.4260977465466
213,838.0086965699203
214,837.589898129994
215,837.1697170340967
216,836.7481780448767
217,836.3253154454694
218,835.9011722805928
219,835.4757995051197
220,835.0492550659909
221,834.6216029397065
222,834.1929121486525
223,833.7632557842211
224,833.3327100692298
225,832.9013534923315
226,832.4692660408031
227,832.0365285461554
228,831.603222142425
229,831.1694278244433
230,830.7352260882946
231,830.3006966410019
232,829.8659181772741
233,829.4309682302281
234,828.9959231045315
235,828.5608578930111
236,828.1258465649468
237,827.6909621029971
238,827.2562766613944
239,826.8218617203322
240,826.3877882163249
241,825.9541266331187
242,825.5209470420605
243,825.0883190841218
244,824.6563118872698
245,824.2249939130982
246,823.7944327269889
247,823.3646946872749
248,822.9358445502634
249,822.5079449880827
250,822.0810560148568
251,821.6552343160898
252,821.2305324791826
253,820.8069981301157
254,820.3846729914924
255,819.9635918897278
256,819.5437817524763
257,819.1252606465981
258,818.7080369074575
259,818.2921084028554
260,817.8774619650029
261,817.4640730156846
262,817.0519054021793
263,816.6409114518451
264,816.2310322413414
265,815.8221980652011
266,815.4143290815027
267,815.0073361111695
268,814.6011215702833
269,814.1955805190606
270,813.7906018154127
271,813.3860693650147
272,812.9818634626207
273,812.5778622192995
274,812.1739430669527
275,811.7699843269545
276,811.3658668257145
277,810.9614755354825
278,810.5567012126305
279,810.1514419995841
280,809.7456049532824
281,809.3391074633504
282,808.9318785261054
283,808.5238598449698
284,808.1150067323534
285,807.7052887911717
286,807.2946903567004
287,806.8832106848106
288,806.4708638829759
289,806.0576785939365
290,805.6436974538792
291,805.2289763529262
292,804.813583524118
293,804.397598481224
294,803.9811108216514
295,803.5642189117002
296,803.14702847494
297,802.7296511056416
298,802.3122027262331
299,801.8948020027354
300,801.4775687274235
301,801.0606221748021
302,800.6440794357949
303,800.2280537353756
304,799.8126527403887
305,799.3979768680961
306,798.9841176134343
307,798.57115592393
308,798.1591606633928
309,797.7481872143699
310,797.3382762701441
311,796.9294528587624
312,796.5217256284122
313,796.115086410499
314,795.7095100654238
315,795.304954605661
316,794.9013615823924
317,794.4986567174383
318,794.0967507603822
319,793.6955405488447
320,793.2949102477492
321,792.8947327436507
322,792.4948711733781
323,792.0951805695641
324,791.6955096062208
325,791.295702425167
326,790.8956005211788
327,790.4950446620826
328,790.0938768188738
329,789.6919420789785
330,789.2890905144357
331,788.8851789789408
332,788.4800728138
333,788.0736474501923
334,787.6657899001654
335,787.2564001300256
336,786.8453923092255
337,786.4326959282866
338,786.0182567803103
339,785.602037800029
340,785.184019752733
341,784.7642017652498
342,784.3426016924255
343,783.919256313998
344,783.4942213597918
345,783.0675713672058
346,782.6393993813183
347,782.2098165103911
348,781.7789513466123
349,781.3469492549457
350,780.9139715248564
351,780.4801943737839
352,780.0458077892235
353,779.6110141976002
354,779.17602695112
355,778.7410686275505
356,778.3063691440902
357,777.8721636977976
358,777.4386905596692
359,777.0061887608792
360,776.5748957143808
361,776.145044816482
362,775.7168630751831
363,775.2905688139596
364,774.8663694987742
365,774.444459732596
366,774.02501945657
367,773.6082123901916
368,773.1941847352117
369,772.7830641612619
370,772.3749590850786
371,771.9699582476374
372,771.568130584701
373,771.169525379865
374,770.7741726877708
375,770.3820840173199
376,769.9932532667975
377,769.6076579020536
378,769.2252603657039
379,768.8460097018828
380,768.4698433773533
381,768.0966892737595
382,767.7264678180981
383,767.3590942125769
384,766.9944807226419
385,766.6325389810567
386,766.2731822634604
387,765.9163276863763
388,765.5618982753174
389,765.2098248527321
390,764.8600477046168
391,764.5125179974098
392,764.1671989278163
393,763.8240665955337
394,763.4831105957372
395,763.1443343381204
396,762.8077551110031
397,762.473403918605
398,762.1413251252784
399,761.8115759428838
400,761.484225797152
401,761.1593556061831
402,760.837056999652
403,760.5174315012719
404,760.2005896916115
405,759.8866503664887
406,759.5757397065717
407,759.2679904702733
408,758.9635412113969
409,758.6625355101299
410,758.365121198063
411,758.0714495571333
412,757.7816744751003
413,757.4959515418604
414,757.2144370713481
415,756.9372870362853
416,756.6646559098284
417,756.396695418488
418,756.1335532222059
419,755.8753715470345
420,755.6222858010091
421,755.3744232045634
422,755.131901465393
423,754.8948275269595
424,754.663296421669
425,754.4373902620663
426,754.217177401056
427,754.0027117829286
428,753.7940324943103
429,753.5911635131608
430,753.3941136468834
431,753.2028766462388
432,753.0174314775373
433,752.837742731205
434,752.663761142388
435,752.4954241991386
436,752.3326568134048
437,752.1753720279271
438,752.0234717297689
439,751.8768473420342
440,751.7353804719346
441,751.5989435048008
442,751.4674001462203
443,751.3406059247333
444,751.2184086729953
445,751.1006490048385
446,750.9871608007886
447,750.8777717084027
448,750.7723036584973
449,750.670573395618
450,750.5723930224119
451,750.4775705627335
452,750.3859105553772
453,750.2972146968833
454,750.2112825557987
455,750.1279123805087
456,750.046902017699
457,749.9680499491237
458,749.8911564412474
459,749.8160247863669
460,749.7424625984687
461,749.6702831177569
462,749.5993064769716
463,749.5293608878388
464,749.4602837133034
465,749.3919223980585
466,749.3241352353208
467,749.256791952117
468,749.1897740992691
469,749.1229752358062
470,749.0563009000601
471,748.9896683611441
472,748.92300614599
473,748.8562533403799
474,748.7893586682875
475,748.7222793615884
476,748.6549798406139
477,748.5874302350475
478,748.5196047843051
479,748.4514801646733
480,748.3830337938006
481,748.3142421603633
482,748.2450792195618
483,748.1755148867684
484,748.1055136552316
485,748.0350333610531
486,747.9640241188
487,747.89242745085
488,747.82017563082
489,747.7471912577637
490,747.6733870753783
491,747.5986660482537
492,747.5229217029481
493,747.4460387352772
494,747.3678938782394
495,747.2883570181599
496,747.2072925397479
497,747.1245608746087
498,747.0400202238206
499,746.9535284234258
500,746.8649449196278
501,746.7741328156541
502,746.6809609451284
503,746.5853059210499
504,746.4870541095347
505,746.3861034849248
506,746.2823653347313
507,746.1757657944328
508,746.066247201003
509,745.9537692601265
510,745.8383100258243
511,745.7198666936258
512,745.5984562106217
513,745.4741157073071
514,745.3469027556362
515,745.2168954549177
516,745.0841923435797
517,744.9489121323647
518,744.8111932545735
519,744.6711932321966
520,744.5290878631592
521,744.3850702436015
522,744.2393496471893
523,744.0921502870311
524,743.9437099842647
525,743.7942787636637
526,743.6441173922724
527,743.4934958713816
528,743.3426918853631
529,743.1919892049721
530,743.0416760397121
531,742.8920433344593
532,742.7433830081859
533,742.5959861349176
534,742.4501410689253
535,742.3061315198166
536,742.1642345901123
537,742.0247187972495
538,741.8878421113906
539,741.7538500475458
540,741.6229738541768
541,741.4954288404869
542,741.3714128814189
543,741.2511051344841
544,741.134664998413
545,741.0222313419981
546,740.9139220319827
547,740.8098337888584
548,740.7100423952681
549,740.6146032704537
550,740.5235524050937
551,740.436907626076
552,740.3546701358397
553,740.2768262534514
554,740.203349279798
555,740.134201416784
556,740.0693356855144
557,740.0086978057074
558,739.9522280135392
559,739.8998628041502
560,739.8515365869258
561,739.8071832392053
562,739.7667375420887
563,739.7301364831737
564,739.697320414563
565,739.66823405873
566,739.6428273600914
567,739.6210561873038
568,739.6028828994583
569,739.5882767961251
570,739.5772144746924
571,739.5696801177098
572,739.5656657282192
573,739.5651713233648
574,739.5682050876112
575,739.5747834794736
576,739.5849312823893
577,739.598681591085
578,739.6160757269805
579,739.6371630775301
580,739.6620008542515
581,739.6906537628752
582,739.7231935763871
583,739.7596985971848
584,739.8002529892269
585,739.8449459581333
586,739.8938707594544
587,739.9471235235143
588,740.0048018984936
589,740.0670035291243
590,740.1338244016181
591,740.205357092075
592,740.2816889565414
593,740.3629003012774
594,740.4490625742648
595,740.5402366204713
596,740.6364710399661
597,740.7378006796123
598,740.8442452790867
599,740.955808284128
600,741.0724758351976
601,741.1942159360916
602,741.3209778033346
603,741.4526913954419
604,741.5892671227399
605,741.7305957413256
606,741.8765484365191
607,742.026977101561
608,742.1817148172134
609,742.3405765385653
610,742.5033599973486
611,742.6698468296054
612,742.8398039359371
613,743.0129850723378
614,743.1891326546818
615,743.3679797439218
616,743.5492521674923
617,743.7326707278097
618,743.9179534496767
619,744.1048178219743
620,744.2929829932168
621,744.4821718847488
622,744.6721131894853
623,744.862543227912
624,745.0532076371687
625,745.2438628754852
626,745.4342775335843
627,745.6242334528766
628,745.8135266524315
629,746.0019680641245
630,746.1893840745527
631,746.3756168764547
632,746.5605246390287
633,746.7439815140763
634,746.9258775046236
635,747.1061182322552
636,747.2846246409719
637,747.4613326641885
638,747.6361928619882
639,747.8091700161211
640,747.9802426557482
641,748.1494024801397
642,748.3166536467197
643,748.4820119030006
644,748.6455035563082
645,748.8071642929262
646,748.9670378757341
647,749.1251747643246
648,749.2816307129393
649,749.4364654083545
650,749.589741209648
651,749.74152204316
652,749.8918724918427
653,750.0408571042457
654,750.1885399376589
655,750.33498434098
656,750.4802529735849
657,750.624408047647
658,750.7675117742133
659,750.9096269864135
660,751.0508179047305
661,751.1911510007036
662,751.3306959085422
663,751.4695263284043
664,751.6077208610928
665,751.7453637144614
666,751.8825452273928
667,752.0193621650409
668,752.1559177477417
669,752.2923213869416
670,752.4286881152049
671,752.5651377117034
672,752.7017935362079
673,752.8387810919862
674,752.9762263431878
675,753.1142538186173
676,753.2529845419164
677,753.3925338357813
678,753.5330090535318
679,753.674507295738
680,753.8171131723393
681,753.9608966701402
682,754.1059111824775
683,754.2521917550387
684,754.3997535988793
685,754.5485909144614
686,754.6986760568125
687,754.8499590556057
688,755.0023674921154
689,755.15580673075
690,755.3101605023481
691,755.4652918334398
692,755.6210443081811
693,755.7772436402348
694,755.9336995232762
695,756.090207721621
696,756.2465523570387
697,756.4025083461872
698,756.5578439469318
699,756.7123233789208
700,756.8657094887424
701,757.01776642904
702,757.1682623159044
703,757.316971825088
704,757.4636786887041
705,757.608178058926
706,757.7502787097211
707,757.8898050488065
708,758.0265989103457
709,758.1605210978801
710,758.2914526497991
711,758.4192958069498
712,758.5439746724275
713,758.6654355655103
714,758.7836470834459
715,758.8985998948741
716,759.0103062965361
717,759.118799570975
718,759.2241331868946
719,759.3263798830055
720,759.4256306667036
721,759.5219937415064
722,759.6155933601159
723,759.7065685922614
724,759.7950719992959
725,759.8812682159224
726,759.9653324488429
727,760.0474489094986
728,760.1278092005872
729,760.2066106728518
730,760.2840547627973
731,760.360345317999
732,760.43568691632
733,760.5102831883406
734,760.5843351591195
735,760.6580396359853
736,760.7315876800443
737,760.805163205426
738,760.8789417484008
739,760.9530894382829
740,761.0277621872926
741,761.1031051030485
742,761.1792521191736
743,761.2563258368069
744,761.3344375687493
745,761.4136875744338
746,761.4941654674363
747,761.5759507694072
748,761.6591135753496
749,761.7437152864503
750,761.8298093627868
751,761.9174420529115
752,762.0066530694194
753,762.0974761949931
754,762.1899398180985
755,762.2840674087698
756,762.3798779515605
757,762.4773863552667
758,762.5766038590175
759,762.6775384526103
760,762.7801953243055
761,762.8845773407297
762,762.9906855542815
763,763.0985197290332
764,763.2080788781155
765,763.319361810096
766,763.4323676845589
767,763.547096576828
768,763.6635500495539
769,763.781731724811
770,763.9016478431533
771,764.0233077866837
772,764.146724536285
773,764.2719150326934
774,764.3989004161467
775,764.5277061262594
776,764.6583618501489
777,764.790901312179
778,764.9253619037916
779,765.0617841580622
780,765.2002110807964
781,765.340687355445
782,765.4832584403536
783,765.6279695754747
784,765.7748647161025
785,765.9239854161829
786,766.0753696924385
787,766.2290509094186
788,766.3850567306362
789,766.5434081799107
790,766.70411884973
791,766.8671942805644
792,767.032631518658
793,767.2004188442882
794,767.3705356519695
795,767.5429524590081
796,767.7176310171051
797,767.8945245025784
798,768.0735777646362
799,768.2547276167272
800,768.4379031604018
801,768.6230261327672
802,768.8100112686287
803,768.9987666690251
804,769.1891941707602
805,769.3811897166014
806,769.5746437309054
807,769.7694415080449
808,769.9654636209029
809,770.1625863557852
810,770.3606821794235
811,770.5596202425586
812,770.7592669232848
813,770.9594864141934
814,771.1601413599785
815,771.3610935525876
816,771.5622046874288
817,771.7633371798545
818,771.9643550393089
819,772.165124798184
820,772.365516491082
821,772.5654046777327
822,772.7646695002219
823,772.9631977613291
824,773.1608840039369
825,773.3576315629781
826,773.5533535550117
827,773.7479737689125
828,773.9414274243068
829,774.1336617705238
830,774.3246365052509
831,774.5143239958086
832,774.7027092861327
833,774.8897898724144
834,775.0755752347555
835,775.2600861223374
836,775.4433536020257
837,775.6254178913368
838,775.8063270054057
839,775.9861352547902
840,776.1649016367398
841,776.3426881659592
842,776.519558191404
843,776.6955747443579
844,776.8707989609783
845,777.0452886191005
846,777.2190968238757
847,777.3922708707439
848,777.5648513075972
849,777.7368712092926
850,777.9083556670358
851,778.0793214863207
852,778.2497770831337
853,778.4197225668044
854,778.5891499947248
855,778.7580437791452
856,778.9263812240615
857,779.0941331732507
858,779.261264755343
859,779.4277362140872
860,779.5935038106012
861,779.7585207797221
862,779.9227383144024
863,780.0861065414252
864,780.2485754414502
865,780.4100956599369
866,780.570619155494
867,780.730099639932
868,780.8884927791465
869,781.0457561439054
870,781.2018489222892
871,781.3567314282033
872,781.5103644589421
873,781.6627085642673
874,781.8137232872525
875,781.9633664264373
876,782.111593357149
877,782.2583564427757
878,782.4036045640003
879,782.5472827922587
880,782.6893322308322
881,782.829690042408
882,782.968289675598
883,783.10506129548
884,783.2399324161026
885,783.3728287269909
886,783.5036751005297
887,783.6323967615342
888,783.7589205942274
889,783.8831765573706
890,784.0050991777483
891,784.1246290946818
892,784.241714630118
893,784.3563133575984
894,784.4683936390695
895,784.5779360924514
896,784.684934947541
897,784.7893992461284
898,784.8913538457366
899,784.9908401939945
900,785.0879168495167
901,785.1826597333558
902,785.2751621027077
903,785.365534246621
904,785.4539029120504
905,785.5404104764259
906,785.6252138888563
907,785.7084834065319
908,785.7904011565502
909,785.871159555438
910,785.9509596178614
911,786.0300091824943
912,786.1085210777309
913,786.186711244115
914,786.2647968259903
915,786.3429942435396
916,786.4215172576464
917,786.5005750422305
