frame_number,force
0,541.43457000005
1,541.505774741032
2,541.5763759965746
3,541.645644582198
4,541.712667698093
5,541.7763975279906
6,541.8358046580748
7,541.8901003308247
8,541.9389728290669
9,541.9827843585792
10,542.0226917904523
11,542.0606752675864
12,542.0994718247092
13,542.1424131746422
14,542.1931643434389
15,542.2553679754016
16,542.3322235092761
17,542.4260562001955
18,542.5379431622619
19,542.667464013226
20,542.8126339402107
21,542.9700468033803
22,543.1352058029938
23,543.3029746149812
24,543.4680668496726
25,543.6255043460155
26,543.7709985668268
27,543.9012320840619
28,544.0140319473851
29,544.1084309641594
30,544.1846157752618
31,544.2437770699124
32,544.2879038943953
33,544.3195743024594
34,544.3417722550037
35,544.3577244683987
36,544.3707309722802
37,544.3839670054601
38,544.4002525041342
39,544.4218126197349
40,544.4500780697975
41,544.4855777381389
42,544.5279498193767
43,544.5760590665177
44,544.6281820080399
45,544.6822215294284
46,544.7359278942425
47,544.7871153425335
48,544.8338624987238
49,544.874679463253
50,544.9086250779219
51,544.9353629489018
52,544.9551503346787
53,544.9687645885796
54,544.977389174153
55,544.9824932467767
56,544.9857349631287
57,544.9889030232474
58,544.9938896141977
59,545.0026628249791
60,545.0171880652756
61,545.039254184234
62,545.0701966366732
63,545.110563188281
64,545.1598149168942
65,545.2161730007563
66,545.2766915660856
67,545.337565126363
68,545.394602921421
69,545.4437593078909
70,545.4816082838571
71,545.5056803421184
72,545.5146293379405
73,545.5082478246908
74,545.4873751042784
75,545.4537358164746
76,545.4097302564271
77,545.3581913842011
78,545.3021280614037
79,545.2444833622753
80,545.1879457568641
81,545.134849120469
82,545.0871751299336
83,545.0466352035643
84,545.014780891357
85,544.9930875414778
86,544.982971891658
87,544.9857283650432
88,545.0023964350297
89,545.0335962318899
90,545.0793782367197
91,545.1391205503089
92,545.2114871640955
93,545.2944497244466
94,545.3853783489324
95,545.4812177024386
96,545.5787679645234
97,545.6750681865076
98,545.7678302475672
99,545.8558236620969
100,545.9391001198125
101,546.0189793170829
102,546.0977740054102
103,546.1782926538245
104,546.2632144396806
105,546.3544697686563
106,546.4527606221121
107,546.5573180334852
108,546.6659422507468
109,546.7753253793456
110,546.8816132280512
111,546.9811104745323
112,547.0709835071793
113,547.1498036846102
114,547.2178192674027
115,547.2769280948436
116,547.330403759588
117,547.3824715841287
118,547.4378325581487
119,547.5012101495423
120,547.5769595709445
121,547.6687406792423
122,547.7792332344118
123,547.9098839370708
124,548.0607094658463
125,548.2302075349064
126,548.415425056679
127,548.612202432212
128,548.8155761801888
129,549.0202895305554
130,549.221330378859
131,549.4143933178167
132,549.596163581866
133,549.7643575002077
134,549.9175221167338
135,550.054670843113
136,550.1748786153618
137,550.276964108729
138,550.3593543694154
139,550.4201652233927
140,550.4574524424758
141,550.4695312517274
142,550.4552587416458
143,550.4142166666352
144,550.3467846096459
145,550.2541290759121
146,550.1381469875844
147,550.001397562104
148,549.8470425041007
149,549.6787970479874
150,549.5008787280606
151,549.317933210198
152,549.1349197751388
153,548.9569456712538
154,548.7890425666122
155,548.6358892497141
156,548.5015107478176
157,548.3890103273894
158,548.3003952071521
159,548.2365342931281
160,548.1972478947345
161,548.1814911072959
162,548.1875685485986
163,548.2133179139229
164,548.256226880336
165,548.3134945702943
166,548.382091639368
167,548.4588812999741
168,548.5408226949812
169,548.6252114980458
170,548.7098698561974
171,548.7932091822016
172,548.8741412935985
173,548.9518691525763
174,549.025619805394
175,549.0943849242474
176,549.1567241565183
177,549.210676682367
178,549.2538140662411
179,549.2834457960442
180,549.2969588947658
181,549.2922385360024
182,549.2680854882841
183,549.2245350724735
184,549.1630012991795
185,549.0862079016911
186,548.9979085355758
187,548.9024393525026
188,548.8041905386327
189,548.7071158704277
190,548.6143977210721
191,548.528339331653
192,548.450481821807
193,548.3818732568438
194,548.3233836219998
195,548.2759728291879
196,548.2408546763113
197,548.2195239051773
198,548.2136225160577
199,548.2246389592182
200,548.2534731338607
201,548.2999516649935
202,548.3624206223116
203,548.4375508767337
204,548.5204470535779
205,548.605068340508
206,548.6848895733895
207,548.7536828177447
208,548.8062802917985
209,548.8391843846596
210,548.8509305645487
211,548.8421799497611
212,548.8155827079239
213,548.7754737277596
214,548.7274385207046
215,548.6777555837443
216,548.6327218804571
217,548.5979146309782
218,548.5775065636566
219,548.5737801802788
220,548.5869502561914
221,548.6153249411973
222,548.6557597253137
223,548.7043071413004
224,548.7569333516029
225,548.8101609956216
226,548.8615205500638
227,548.9097522898605
228,548.9547726193898
229,548.9974696536751
230,549.0394066239594
231,549.0824883595135
232,549.1286040452652
233,549.1792359028291
234,549.2350446394585
235,549.2954884694053
236,549.3585578104821
237,549.4206961201567
238,549.4769523809066
239,549.5213925076475
240,549.5477714667592
241,549.5504136788633
242,549.5251768695074
243,549.4703206458607
244,549.3870946196363
245,549.2799072853556
246,549.1560214122813
247,549.0248154366024
248,548.896723790336
249,548.7820124384089
250,548.6895666882004
251,548.6258664391615
252,548.5942894759812
253,548.5948216931012
254,548.624186954182
255,548.676353551582
256,548.7433285337872
257,548.8161134306291
258,548.8856725482054
259,548.9437749218836
260,548.9836220505293
261,549.0002446054026
262,548.9907031098676
263,548.9541406686516
264,548.8917214299522
265,548.806464925045
266,548.7029651377992
267,548.5869772365613
268,548.4648790357865
269,548.3430635483853
270,548.227361058208
271,548.122590998047
272,548.0323016406604
273,547.9586945361449
274,547.9026849421582
275,547.8640395096703
276,547.841551494105
277,547.8332374944273
278,547.8365511808548
279,547.8486093873935
280,547.8664213730367
281,547.8871060532172
282,547.9080756266505
283,547.927161415605
284,547.9426657793115
285,547.9533436214998
286,547.9583364945025
287,547.9570873872952
288,547.9492558900304
289,547.9346461065792
290,547.9131593462657
291,547.8847766673464
292,547.8495551546682
293,547.8076100154161
294,547.7590784464553
295,547.7041026563996
296,547.642879477479
297,547.575783560336
298,547.5035138156984
299,547.4271848184316
300,547.3483010210476
301,547.2685940704738
302,547.1897487588544
303,547.1130810665837
304,547.0392614199362
305,546.9681877059838
306,546.899085739081
307,546.8308447539009
308,546.7625074665312
309,546.6937692318846
310,546.6253312643968
311,546.5590040374824
312,546.4975400900249
313,546.4442461149256
314,546.4024560523341
315,546.3749479417274
316,546.363382354097
317,546.3678417325594
318,546.3865514206649
319,546.4158542856976
320,546.4504857471637
321,546.4841502680173
322,546.5103340950751
323,546.5232190934988
324,546.51852420943
325,546.494121236036
326,546.4503374811693
327,546.3899282685948
328,546.3177487700505
329,546.2401802369537
330,546.1643849891024
331,546.0974830819246
332,546.0457534310818
333,546.0139498861968
334,546.004787562697
335,546.0186195251018
336,546.0533132615724
337,546.1043441006944
338,546.1651206595817
339,546.22753470567
340,546.2826982433538
341,546.3218054936319
342,546.3370367841993
343,546.3224078219977
344,546.2744658869492
345,546.1927421214822
346,546.0798860338094
347,545.9414416350835
348,545.785275757937
349,545.6207282989868
350,545.4576082211174
351,545.3051905966395
352,545.1713581977651
353,545.0619771560957
354,544.9805345176505
355,544.928028089389
356,544.903082058139
357,544.9022484743114
358,544.9204462807069
359,544.9514931238757
360,544.9886923758812
361,545.0254382114209
362,545.0557988148445
363,545.0750372492204
364,545.0800273653668
365,545.0695178673111
366,545.044202387065
367,545.0065759782217
368,544.9605921478579
369,544.9111642850288
370,544.863574174114
371,544.8228626253054
372,544.7932854365065
373,544.7779121682318
374,544.7784135110572
375,544.7950328676745
376,544.8266979986148
377,544.8712181497449
378,544.925519437118
379,544.9858781750423
380,545.0481218171119
381,545.1077914787729
382,545.1602885820176
383,545.2010399719676
384,545.2257096414452
385,545.2304727426633
386,545.2123477925688
387,545.1695519262936
388,545.1018175565766
389,545.0106088470112
390,544.8992015898674
391,544.7726163399287
392,544.6374042646231
393,544.501283863897
394,544.3726318841543
395,544.2598532223403
396,544.1706860664759
397,544.1115237911544
398,544.0868449037117
399,544.0988374419235
400,544.1472810977283
401,544.2297023506527
402,544.3417572983769
403,544.4777546287829
404,544.6312233904595
405,544.795442658926
406,544.9638658168842
407,545.130392207739
408,545.2894691211488
409,545.4360451358524
410,545.5654363329662
411,545.6732007668194
412,545.7551268262285
413,545.8074138832308
414,545.8270633066585
415,545.8124232117535
416,545.7637627127407
417,545.6837147728834
418,545.5774417562459
419,545.4524420488272
420,545.31800093821
421,545.184364706531
422,545.0617685337467
423,544.9594668711084
424,544.8848944033097
425,544.8430404056511
426,544.8360774831291
427,544.8632606664046
428,544.92109246075
429,545.0037203181836
430,545.1035002533854
431,545.2116407876962
432,545.3188490867124
433,545.4159354886831
434,545.4943721049998
435,545.5468186551919
436,545.5676189423164
437,545.5532509268955
438,545.5026944464031
439,545.417662977642
440,545.3026333689323
441,545.1646142123376
442,545.0126267188891
443,544.8569211403167
444,544.7080002070351
445,544.5755575610553
446,544.4674570179384
447,544.3888767766981
448,544.3417295665247
449,544.3244503492916
450,544.3322077495
451,544.3575318546315
452,544.3912682807904
453,544.4237000461474
454,544.4456604123238
455,544.4494971101522
456,544.4298091103159
457,544.3839206772457
458,544.312070563261
459,544.2172961159349
460,544.1050096637492
461,543.9823051699893
462,543.8570796053795
463,543.7370836586672
464,543.6290229164571
465,543.5378178438488
466,543.4661029403043
467,543.4140081363554
468,543.3792302229961
469,543.3573760212397
470,543.3425371711355
471,543.3280306764445
472,543.3072117640587
473,543.274250526947
474,543.2247744454263
475,543.1563097950954
476,543.0684855338692
477,542.9629849580938
478,542.8432559650432
479,542.7140271950875
480,542.5807092775588
481,542.4487707995276
482,542.323168251096
483,542.2078884786606
484,542.1056381006404
485,542.0176917776037
486,541.9438966591587
487,541.8828247993729
488,541.83205949411
489,541.7885889408296
490,541.7492680391969
491,541.711300874957
492,541.6726844463174
493,541.6325385449295
494,541.5912478109548
495,541.5503772158531
496,541.5123806312017
497,541.4801701999836
498,541.4566263833339
499,541.4441127084995
500,541.4440450261982
501,541.4565661618573
502,541.4803791302317
503,541.512778184063
504,541.5498860707341
505,541.5870692704761
506,541.6194714121556
507,541.6425851918151
508,541.6527807949266
509,541.6477253161826
510,541.626653021214
511,541.5904665078332
512,541.5416622655457
513,541.4840908511298
514,541.4225830152878
515,541.3624856215425
516,541.3091493448113
517,541.2674075730469
518,541.2410989167757
519,541.2327084988452
520,541.2432074369101
521,541.272133897114
522,541.3178914805767
523,541.3781737820876
524,541.450390264756
525,541.5319808484089
526,541.6205546200292
527,541.713852471707
528,541.8095931284357
529,541.9052939772365
530,541.9981509104147
531,542.0850267749785
532,542.1625583864366
533,542.2273630443918
534,542.2763110598894
535,542.3068247630647
536,542.3171592035076
537,542.3066186983957
538,542.2756769346756
539,542.2259956468012
540,542.160361133749
541,542.0825627929167
542,541.9972244846261
543,541.9095843232541
544,541.8252151915991
545,541.7496850793175
546,541.6881640314938
547,541.6449930458876
548,541.6232490967267
549,541.6243691342017
550,541.6479128265973
551,541.6915277085175
552,541.7511377458463
553,541.8213308739697
554,541.8958851754583
555,541.9683490601674
556,542.0325874082947
557,542.0832323479223
558,542.1160225092353
559,542.1280508213974
560,542.1179503675586
561,542.0860335464822
562,542.03437614628
563,541.9668156207676
564,541.8888149642597
565,541.8071382180489
566,541.7293089206612
567,541.662883359086
568,541.6146387425289
569,541.5898141399464
570,541.5915323426747
571,541.6204823648316
572,541.6748778499262
573,541.7506530758723
574,541.8418329879479
575,541.941017103555
576,542.0399383701449
577,542.1300807415332
578,542.2033440085461
579,542.2527199579243
580,542.2729036143664
581,542.2607423641036
582,542.2154459507735
583,542.1385253827061
584,542.0334724342239
585,541.905230528325
586,541.7595466376318
587,541.6023205840128
588,541.439063751439
589,541.2745369030358
590,541.1125747627536
591,540.9560605916812
592,540.807008573668
593,540.6667297426862
594,540.5360693727029
595,540.4156954798502
596,540.3063926413332
597,540.2092916926157
598,540.1259683566568
599,540.0583776165496
600,540.0086349976124
601,539.9786881227699
602,539.9699345665232
603,539.9828389936949
604,540.0165936428135
605,540.0688636386649
606,540.1356656830773
607,540.211433882588
608,540.2893143561562
609,540.3616927165926
610,540.4209012992974
611,540.4600017102036
612,540.473521127451
613,540.4580376232716
614,540.4125402900534
615,540.3385248078299
616,540.239822353248
617,540.1221914017596
618,539.9927260872822
619,539.8591586991703
620,539.7291540019198
621,539.6096916325502
622,539.5066017393631
623,539.4242742326824
624,539.3655290840859
625,539.3316255204718
626,539.3223929032401
627,539.336468325053
628,539.3716150128674
629,539.4250773135392
630,539.4939191066968
631,539.5753009044331
632,539.666667114952
633,539.7658273933081
634,539.8709274496644
635,539.9803260318981
636,540.0924238259504
637,540.2055060266375
638,540.3176482162453
639,540.4267057185973
640,540.5303822237698
641,540.6263628021192
642,540.7124918688996
643,540.786971526471
644,540.8485535584202
645,540.8967036835452
646,540.9317261195177
647,540.954843543144
648,540.9682281930112
649,540.9749743686757
650,540.9789955269422
651,540.9848244095069
652,540.9972943302997
653,541.0210911292121
654,541.0601957298142
655,541.1172802552724
656,541.193158475159
657,541.2864092609162
658,541.3932810539221
659,541.5079420286914
660,541.6230732899772
661,541.7307326324703
662,541.8233618708641
663,541.8947782441791
664,541.9409859841136
665,541.9606745750506
666,541.9553305934024
667,541.9289601320031
668,541.8874768862391
669,541.8378524926445
670,541.7871620195033
671,541.7416864932923
672,541.7062295395449
673,541.6837517751343
674,541.6753496410142
675,541.6805428767963
676,541.6977946338905
677,541.7251514027071
678,541.760853387023
679,541.8037589086487
680,541.8534752317696
681,541.9101831341233
682,541.9742453731088
683,542.0457529024916
684,542.124151842972
685,542.2080171847257
686,542.2949547775127
687,542.3815829645341
688,542.4635788905294
689,542.5358248445518
690,542.5927025173353
691,542.6285484981846
692,542.6382345630612
693,542.6177991720754
694,542.5650373396285
695,542.4799540925205
696,542.3650042623348
697,542.2250750879209
698,542.0672070384592
699,541.9000822879569
700,541.7333370593966
701,541.5767752454075
702,541.4395733561898
703,541.329564605234
704,541.2526729132551
705,541.2125422087547
706,541.210375702235
707,541.2449683349372
708,541.3128983468916
709,541.4088481963639
710,541.526033165204
711,541.6567077914223
712,541.7927010471341
713,541.925921924496
714,542.0487887019731
715,542.1545623625478
716,542.2375967740805
717,542.2935430077526
718,542.3195460232257
719,542.3144403696755
720,542.2789050048337
721,542.2155088487459
722,542.1285849217754
723,542.0239039339198
724,541.9081628145453
725,541.7883453204975
726,541.6710388860889
727,541.5618034334805
728,541.464687205521
729,541.3819671368814
730,541.3141538340665
731,541.2602533682366
732,541.2182311533247
733,541.1855825821164
734,541.1598902574614
735,541.1392531298975
736,541.1225098365435
737,541.1092297957978
738,541.0994970464936
739,541.093561940666
740,541.0914752446429
741,541.0928241568399
742,541.096649849116
743,541.1015604003744
744,541.1059909798099
745,541.108525296574
746,541.1081856228228
747,541.1046178844764
748,541.0981327539611
749,541.0896028059121
750,541.0802466786396
751,541.0713435320291
752,541.0639216971455
753,541.0584738052843
754,541.0547712950088
755,541.0518607006854
756,541.0482942101816
757,541.042575155152
758,541.0337170867277
759,541.0217677337389
760,541.0081596132782
761,540.9958033724727
762,540.9889063478489
763,540.9925553176375
764,541.0121395254317
765,541.052702069783
766,541.1182990144326
767,541.2114327459486
768,541.3326205123693
769,541.4801574577401
770,541.6501262574566
771,541.836682922424
772,542.032604574553
773,542.2300260168586
774,542.4212398240293
775,542.5994177583704
776,542.759141281666
777,542.8966886011129
778,543.010086068066
779,543.0989749177866
780,543.1643642793563
781,543.2083370004651
782,543.2337522025485
783,543.2439617632826
784,543.2425411523027
785,543.2330327713094
786,543.2187062834677
787,543.2023484756544
788,543.1861052291148
789,543.1714116057045
790,543.1590535619403
791,543.1493874708085
792,543.142691241801
793,543.1395514660265
794,543.1411478597836
795,543.1493156676046
796,543.1663462166161
797,543.1945836354181
798,543.2359408245243
799,543.2914650398099
800,543.3610438319133
801,543.4432845968314
802,543.5355529351918
803,543.6341328583463
804,543.7344765715211
805,543.831528524877
806,543.9201161425734
807,543.9953869703371
808,544.0532529971351
809,544.0908032098184
810,544.1066663846418
811,544.101319765886
812,544.0773256854657
813,544.039449692353
814,543.9945960100325
815,543.9515003262147
816,543.9201447001352
817,543.91090888815
818,543.9335486876511
819,543.9961662017664
820,544.1043581393523
821,544.2606775198865
822,544.4644580017837
823,544.711977042005
824,544.9968925063288
825,545.3108730704787
826,545.6443490617625
827,545.987325508819
828,546.3302060055545
829,546.664567660175
830,546.9838125534084
831,547.2836153545371
832,547.5621058776378
833,547.8197727619818
834,548.0591279453513
835,548.2842017876765
836,548.4999419794785
837,548.7115833692519
838,548.9240495771737
839,549.1414384619787
840,549.3666341333293
841,549.6010793224834
842,549.8447245109462
843,550.0961376413596
844,550.3527184806605
845,550.6109344212076
846,550.8665042293692
847,551.1145124470011
848,551.3495067260003
849,551.5656562598264
850,551.7570147626002
851,551.9178783725235
852,552.0432010010419
853,552.1290261092898
854,552.1728926620981
855,552.1741673065642
856,552.1342525587456
857,552.0566300355625
858,551.946718044825
859,551.8115443152773
860,551.6592525376204
861,551.4984823653393
862,551.3376864001605
863,551.1844620963487
864,551.0449769167313
865,550.923558512564
866,550.8225071399321
867,550.7421521730882
868,550.6811191689083
869,550.6367279842297
870,550.6054359636565
871,550.5832667358092
872,550.5661928875444
873,550.5504542370516
874,550.5328028834049
875,550.5106802623952
876,550.4823413040302
877,550.4469363972747
878,550.4045495282667
879,550.3561840942915
880,550.3036866944618
881,550.2495952009908
882,550.1968957746257
883,550.148689054962
884,550.1077980788391
885,550.0763832125767
886,550.0556451593699
887,550.0456799474136
888,550.0454994316685
889,550.0531800156222
890,550.0660844974885
891,550.0811098290887
892,550.0949226651277
893,550.104153824821
894,550.1055420548563
895,550.0960412079954
896,550.0729205074239
897,550.0338909453416
898,549.9772803518877
899,549.9022513202653
900,549.8090217169133
901,549.6990372865587
902,549.5750686935622
903,549.4412265104075
904,549.3028776051278
905,549.1664261884264
906,549.0389286642879
907,548.9275438158832
908,548.8388590976402
909,548.7781726966655
910,548.7488437941662
911,548.7518330792849
912,548.7855321748402
913,548.8459315236245
914,548.9271136483139
915,549.0219942036072
916,549.1231812910589
917,549.2237993363609
