acceleration,velocity,displacement
-0.08582572594227894,0.0,0.0
-0.08454688755844957,-8.518630675036427e-05,-4.2593153375182135e-08
-0.08327888778358658,-0.00016909919442138234,-1.6973590396105544e-07
-0.08203482278360119,-0.00025175604970497625,-3.8016352602423474e-07
-0.08083108645890792,-0.0003331890043262308,-6.726360530398382e-07
-0.07968649760788481,-0.00041344779635962717,-1.0459544533827673e-06
-0.07861954452053338,-0.0004926008174238362,-1.498978760274499e-06
-0.07764439329561872,-0.0005707327863319124,-2.030645562152373e-06
-0.07676664237898331,-0.0006479383041692134,-2.639981107402936e-06
-0.07597978654857106,-0.0007243115186329906,-3.326106018804038e-06
-0.075263048379518,-0.0007999329360970351,-4.088228246169051e-06
-0.07458086447096901,-0.0008748548925222786,-4.925622160478708e-06
-0.07388407763170975,-0.000949087363573618,-5.837593288526656e-06
-0.07311285024164503,-0.0010225858275102954,-6.823429884068613e-06
-0.07220135836924653,-0.0010952429318157413,-7.88234426373163e-06
-0.07108418005962276,-0.0011668857010301759,-9.01340858015459e-06
-0.06970385333737117,-0.001237279717728673,-1.0215491289534014e-05
-0.06801861657994762,-0.0013061409526873324,-1.1487201624742017e-05
-0.0660091247993838,-0.001373154823376998,-1.2826849512774181e-05
-0.06368292806817154,-0.0014380008498107756,-1.4232427349368068e-05
-0.061075673660031686,-0.0015003801506748772,-1.5701617849610894e-05
-0.058248535905529676,-0.0015600422554576578,-1.723182905267716e-05
-0.05528227740605784,-0.0016168076621134516,-1.8820254011462715e-05
-0.05226914663105689,-0.001670583374132009,-2.0463949529585446e-05
-0.049304087230743865,-0.0017213699910629094,-2.2159926212182904e-05
-0.04647650706402142,-0.0017692602882102922,-2.3905241351819504e-05
-0.04386342833312817,-0.001814430255908867,-2.569708662387908e-05
-0.04152443210332112,-0.0018571241861270915,-2.753286384489706e-05
-0.03949854460034112,-0.0018976356744789227,-2.9410243775200067e-05
-0.037803136620733875,-0.0019362865150894602,-3.132720486998426e-05
-0.03643485609111092,-0.0019734055114453827,-3.328205088325168e-05
-0.035372318212413344,-0.0020093090985971447,-3.527340818827294e-05
-0.03457979967885872,-0.0020442851575427808,-3.7300205316342905e-05
-0.03401099860037258,-0.0020785805566823964,-3.936163817345549e-05
-0.033612322987421284,-0.0021123922174762933,-4.145712456053484e-05
-0.033325820957987806,-0.002145861289448998,-4.3586251313997484e-05
-0.033092223922542734,-0.002179070311889263,-4.5748717114666615e-05
-0.03285450453691286,-0.002212043676118991,-4.794427410867074e-05
-0.032562016698084256,-0.0022447519367364897,-5.017267191509848e-05
-0.032174796647710176,-0.002277120343409387,-5.243360805517142e-05
-0.0316671486740238,-0.002309041316070254,-5.472668888491124e-05
-0.03102957401449947,-0.002340389677414516,-5.7051404381653623e-05
-0.03026857070008127,-0.0023710387497718065,-5.9407118595246785e-05
-0.02940452778646908,-0.0024008752990150816,-6.179307561964023e-05
-0.028468398852112477,-0.0024298117623343723,-6.420841915031495e-05
-0.02749784811009287,-0.002457794885815475,-6.665222247438987e-05
-0.0265332808659308,-0.002484810450303487,-6.912352514244935e-05
-0.025613953406241907,-0.002510884067439573,-7.162137240132088e-05
-0.02477437366974594,-0.002536078230977567,-7.414485355052945e-05
-0.024041300278403514,-0.002560486067951642,-7.669313569999405e-05
-0.023431636449806968,-0.002584222536315747,-7.926549000212775e-05
-0.022951423822959373,-0.0026074140664521304,-8.186130830351169e-05
-0.022596042030986523,-0.0026301877993791033,-8.448010923642731e-05
-0.02235152979464501,-0.002652661585291919,-8.712153392876282e-05
-0.02219663208806215,-0.0026749356662332724,-8.978533255452542e-05
-0.022104962855157215,-0.0026970864637048822,-9.247134361949449e-05
-0.02204674157321335,-0.0027191623159190676,-9.517946800930646e-05
-0.021989843158498362,-0.0027411806082849235,-9.790963947140846e-05
-0.021900283898487395,-0.0027631256718134165,-0.00010066179261145763
-0.02174271688058942,-0.002784947172202955,-0.00010343582903346582
-0.021481843312771635,-0.0028065594522996354,-0.00010623158234571712
-0.02108553543331108,-0.0028278431416726767,-0.00010904878364270328
-0.020529808450480812,-0.0028486508136145727,-0.0001118870306203469
-0.019804824483023786,-0.002868818130081325,-0.00011474576509219484
-0.018920262582343837,-0.002888180673614009,-0.00011762426449404251
-0.017908070418059807,-0.0029065948401142106,-0.00012052165225090663
-0.016821155934417024,-0.002923959453290449,-0.00012343692939760896
-0.01572786573534506,-0.00294023396412533,-0.00012636902610631685
-0.01470346594618467,-0.0029554496299660947,-0.00012931686790336257
-0.013820616392052273,-0.0029697116711352133,-0.00013227944855391324
-0.013140848126812198,-0.0029831924033946453,-0.00013525590059117816
-0.012708513542657954,-0.0029961170842293804,-0.00013824555533499018
-0.012547789422377985,-0.0030087452357118985,-0.00014124798649496083
-0.012662401511097203,-0.003021350331178636,-0.0001442630342784061
-0.013037275931959967,-0.0030342001699001646,-0.00014729080952894549
-0.013641438124742094,-0.0030475395269285157,-0.00015033167937735984
-0.014431778746932461,-0.003061576135364353,-0.00015338623720850627
-0.015357417786594127,-0.0030764707336311163,-0.000156455260643004
-0.016364316037041294,-0.003092331600542934,-0.00015953966181009104
-0.017399615833837555,-0.0031092135664783738,-0.00016264043439360168
-0.018415032208260382,-0.0031271208904994226,-0.0001657586016220906
-0.01936864871943469,-0.00314601273096327,-0.00016889516843282193
-0.020224874416854968,-0.003165809492531415,-0.00017205107954456928
-0.02095297219803783,-0.003186398415838861,-0.0001752271834987544
-0.021525076198128087,-0.003207637440036944,-0.0001784242014266923
-0.02191468913845549,-0.0032293573227052358,-0.0001816426988080634
-0.02209636638478097,-0.003251362850466854,-0.00018488305889464944
-0.0220468600749438,-0.0032734344636967164,-0.00018814545755173123
-0.021747501248703754,-0.0032953316443585404,-0.00019142984060575884
-0.021187152355607752,-0.0033167989711606963,-0.00019473590591351846
-0.020364906754296076,-0.003337575000715648,-0.00019806309289945663
-0.019291933765376548,-0.0033574034209754846,-0.0002014105821103022
-0.01799222812581217,-0.003376045501921079,-0.00020477730657175047
-0.016502219102050995,-0.0033932927255350106,-0.0002081619756854785
-0.014869139428177162,-0.0034089784048001244,-0.00021156311125064607
-0.013147862975867447,-0.003422986906002147,-0.0002149790939060472
-0.01139585857579215,-0.0034352587667779767,-0.00021840821674243727
-0.009666304917619965,-0.0034457898485246827,-0.0002218487410500886
-0.008000296691059419,-0.0034546231493290222,-0.00022529894754901546
-0.006419933438937963,-0.003461833264394021,-0.00022875717575587698
-0.004924286813063688,-0.003467505374520022,-0.000232221845075334
-0.0034896550437449707,-0.003471712345448426,-0.0002356914539353182
-0.0020745010738666574,-0.0034744944235072317,-0.00023916455731979604
-0.0006283847509053134,-0.003475845866419618,-0.00024263972746475947
0.0008968119969280159,-0.0034757116527966065,-0.0002461155062243676
0.002535759289110701,-0.003473995367153587,-0.0002495903597343427
0.004301064723062966,-0.0034705769551475005,-0.0002530626458954932
0.0061789176459677835,-0.0034653369639629852,-0.0002565306028550484
0.008129810473210389,-0.0034581825999033962,-0.0002599923626369816
0.010094333361243196,-0.0034490705279861694,-0.00026344598920092637
0.01200326496867071,-0.0034380217288212125,-0.00026688953532933004
0.013790237242295134,-0.0034251249777157294,-0.00027032110868259853
0.015404358468424974,-0.0034105276798603694,-0.00027373893501138655
0.01681997022304567,-0.003394415515514634,-0.00027714140660907406
0.018041531270440992,-0.003376984764767891,-0.0002805271067492153
0.01910312683714204,-0.003358412435714099,-0.0002838948053494563
0.020063550704046983,-0.0033388290969435046,-0.00028724342611578514
0.020998689736460036,-0.0033182979767232513,-0.00029057198965261853
0.02199297379067559,-0.0032968021449596833,-0.00029387953971346
0.02313123643205399,-0.0032742400398483185,-0.000297165060805864
0.02449169735510469,-0.0032504285729547393,-0.0003004273951122655
0.02614008765303878,-0.0032251126804506676,-0.00030366516573896823
0.028124535861533566,-0.0031979803686933814,-0.0003068767122635403
0.03047102474879608,-0.0031686825883882165,-0.0003100600437420811
0.033179853863253485,-0.0031368571490821917,-0.0003132128136108163
0.036224042125292656,-0.0031021552010879186,-0.0003163323197859014
0.039550552030868304,-0.003064267904009838,-0.00031941553133845027
0.04308467711060632,-0.003022950289439101,-0.00032245914043517476
0.04673727315391862,-0.002978039314306839,-0.00032545963523704775
0.05041392847940023,-0.0029294637134901795,-0.00032841338675094627
0.05402462560409315,-0.0028772444364484327,-0.0003313167408259156
0.057492039338473834,-0.002821486103977149,-0.0003341661060961284
0.06075663643550953,-0.0027623617660901575,-0.00033695803003116207
0.06377740212801213,-0.0027000947468083965,-0.00033968925828761136
0.06652824129906755,-0.0026349419250948566,-0.00034235677662356297
0.06899143480511834,-0.0025671820870427635,-0.0003449578386296318
0.07115036848097069,-0.002497111185399719,-0.00034748998526585304
0.07298382571358857,-0.002425044088302439,-0.00034995106290270413
0.07446355622543976,-0.002351320397332925,-0.0003523392451455218
0.07555572021827314,-0.0022763107591110684,-0.00035465306072374376
0.07622539932014238,-0.0022004201993418605,-0.00035689142620297024
0.07644233494393551,-0.0021240863322098216,-0.0003590536794687461
0.07618600041516403,-0.002047772164530272,-0.00036113960871711617
0.07544888403566809,-0.001971954722304856,-0.0003631494721605337
0.07423780312182396,-0.0018971113787261099,-0.0003650840052110492
0.07257370812788536,-0.0018237056231012552,-0.00036694441371196287
0.07049066780859382,-0.0017521734351330157,-0.00036873235324108003
0.06803464575361413,-0.0016829107783519117,-0.0003704498953478225
0.06526242623296943,-0.00161626224235862,-0.00037209948185817774
0.062240734921192704,-0.0015525106617815389,-0.0003736838683102478
0.05904531880744974,-0.0014918676349172176,-0.0003752060574585972
0.055759614131531084,-0.0014344651684477271,-0.00037666922386027965
0.052472689661580925,-0.0013803490165511711,-0.0003780766309527791
0.0492762716669815,-0.00132947453588689,-0.00037943154272899814
0.04626072899357948,-0.0012817060355566094,-0.00038073713301471987
0.04351009276403903,-0.0012368206246778002,-0.00038199639634483706
0.041096652537775655,-0.0011945172520268928,-0.0003832120652831894
0.0390761430343863,-0.001154430854240812,-0.0003843865393363233
0.037484613936965304,-0.001116150475755136,-0.00038552183000132125
0.03633767081275813,-0.0010792393333802744,-0.00038661952490588893
0.03563208641577401,-0.0010432544547660082,-0.00038768077179996205
0.03534909423991032,-0.001007763864438166,-0.00038870628095956416
0.03545824519118462,-0.0009723601947226186,-0.00038969634298914455
0.03592070423930091,-0.0009366707200073758,-0.00039065085844650955
0.036691350020787064,-0.0009003646928773318,-0.0003915693761529519
0.03771987872634602,-0.0008631590785037652,-0.00039245113803864246
0.03895188327744454,-0.0008248231975018699,-0.0003932951291766453
0.04033102691465144,-0.000785181742405822,-0.00039410013164659915
0.04180269579111131,-0.0007441148810529406,-0.00039486477995832853
0.04331832015875968,-0.0007015543730780051,-0.000395587614585394
0.04483878574044911,-0.0006574758201284007,-0.0003962671296819972
0.046335561481878416,-0.0006118886465172369,-0.00039690181191532
0.04778910360718272,-0.0005648263139727063,-0.000397490169395565
0.049185097303426684,-0.0005163392135174016,-0.00039803075215931005
0.050509660308010434,-0.000466491834711683,-0.0003985221676834246
0.051744683036069765,-0.0004153646630396429,-0.00039896309593230025
0.0528642967295827,-0.00036306017315681664,-0.0003993523083503985
0.053833285030196826,-0.00030971138227692686,-0.0003996886941281154
0.054608033193247134,-0.0002554907231652049,-0.0003999712951808364
0.0551402195747837,-0.0002006165967811895,-0.0004001993488408096
0.055382915062348985,-0.00014535502946262316,-0.0004003723346539315
0.05529813733703435,-9.001450326293149e-05,-0.00040049001942029424
0.05486434818082594,-3.4933260504001345e-05,-0.0004005524933021777
0.05408218195702894,1.9540004564926093e-05,-0.00040056018993014724
0.05297703432072152,7.306961270380132e-05,-0.0004005138851215129
0.05159782356904228,0.00012535704164868324,-0.00040041467179433666
0.05001196542113398,0.00017616193614377137,-0.00040026391230544043
0.048297337236225965,0.00022531658747245134,-0.0004000631730436323
0.04653278683396773,0.0002727316495075482,-0.0003998141489251423
0.04478932410822879,0.00031839270497864645,-0.0003995185867478992
0.043124104536633893,0.0003623494193010778,-0.0003991782156857593
0.04157849436908181,0.0004047007187539356,-0.00039879469061673183
0.040180172140992974,0.00044558005200897303,-0.00039836955023135037
0.038947961123520364,0.0004851441186412297,-0.00039790418814602527
0.03789748626660604,0.0005235668423362929,-0.0003973998326655365
0.03704598760486746,0.0005610385792720297,-0.00039685752995473236
0.036415264969710696,0.0005977692055593188,-0.0003962781260623167
0.03603216394993848,0.0006339929200191433,-0.00039566224499952747
0.035926174898929526,0.0006699720894435773,-0.0003950102624947961
0.03612403040928649,0.0007059971920976854,-0.00039432227785402544
0.03664189268629669,0.0007423801536454769,-0.0003935980891811539
0.037476647912099606,0.0007794394239446751,-0.0003928371793923588
0.0385985914697107,0.0008174770436355802,-0.00039203872115856867
0.03994793214305335,0.0008567503054419623,-0.0003912016074840299
0.041436748917878144,0.000897442645972428,-0.00039032451100832273
0.04295654869978556,0.0009396392947812599,-0.0003894059700379459
0.0443901394276731,0.0009833126388449891,-0.0003884444940711328
0.045625667290232624,0.001028320542203942,-0.00038743867748060833
0.04657031883709451,0.0010744185352676056,-0.00038638730794187255
0.047161276915944954,0.0011212843331441253,-0.00038528945650766666
0.04737223851061355,0.0011685510908574046,-0.0003841445387956659
0.04721507731715762,0.0012158447487712902,-0.00038295234087585157
0.046737390392153966,0.0012628209826259459,-0.000381713008010153
0.0460170324122927,0.0013091981940281693,-0.0003804269984218259
0.04515431925991042,0.001354783869864271,-0.0003790950073898797
0.04426201284983282,0.0013994920359191425,-0.00037771786943698797
0.04345320675721261,0.0014433496457226652,-0.0003762964485961671
0.04282806795247424,0.0014864902830775087,-0.000374831528631767
0.04246153870918707,0.0015291350864083393,-0.00037332371594702405
0.04239461279904971,0.0015715631621624577,-0.0003717733668227387
0.04263114759101142,0.0016140760423574883,-0.0003701805472204787
0.043140757426174174,0.001656961994866081,-0.0003685450282018669
0.04386696685067031,0.0017004658570045031,-0.0003668663142759316
0.04473887928435547,0.001744768780072016,-0.00036514369695739334
0.04568404693474136,0.0017899802431815643,-0.00036337632244576654
0.04664001634510759,0.0018361422748214887,-0.000361563261186765
0.04756243483425973,0.0018832435004111723,-0.0003597035682991487
0.04842867771809406,0.0019312390566873492,-0.0003577963270205994
0.04923724361778935,0.001980072017355291,-0.0003558406714835781
0.050004083094581056,0.0020296926807114764,-0.00035383578913454475
0.05075727180872277,0.0020800733581631285,-0.0003517809061151075
0.05153102052697854,0.0021312175043309792,-0.00034967526068386043
0.05235925904343921,0.002183162644116188,-0.00034751807060963685
0.05326860808402653,0.002235976577679921,-0.0003453085009987388
0.05427093396247774,0.002289746348703173,-0.0003430456395355473
0.05535650619735481,0.0023445600687830893,-0.0003407284863268042
0.05648923265769304,0.002400482938210613,-0.00033835596482330733
0.05760523777788792,0.0024575301734284035,-0.00033592695826748783
0.05861560119731112,0.002515640592916003,-0.0003334403728843156
0.059413746644858094,0.002574655266837088,-0.0003308952249544391
0.059887513208322626,0.0026343058967636785,-0.0003282907443726387
0.05993496738356899,0.002694217137059624,-0.00032562648285572706
0.05948171384954054,0.002753925477676179,-0.00032290241154835916
0.058496495120790575,0.0028129145821613444,-0.0003201189915184404
0.057001754245371794,0.0028706637068444257,-0.0003172772023739375
0.055076667861403895,0.0029267029178978135,-0.0003143785190615664
0.05285167543089068,0.002980667089543961,-0.0003114248340578455
0.05049521383055325,0.003032340534174683,-0.0003084183302459862
0.04819468564051674,0.0030816854839102177,-0.0003053613172369437
0.04613446776903547,0.003128850060614994,-0.00030225604946468114
0.04447414049085203,0.0031741543647449376,-0.00029910454725200116
0.043330082912564946,0.003218056476446646,-0.0002959084418314054
0.04276296010581291,0.003261102997955835,-0.0002926688620942041
0.0427725187345239,0.003303870737376003,-0.0002893863752265382
0.04329991933318503,0.0033469069564098577,-0.00028606098637964526
0.04423683232786439,0.0033906753322403825,-0.0002826921952353201
0.04543970417065343,0.0034355136004896414,-0.0002792791007689551
0.04674692218115044,0.0034816069136655433,-0.0002758205405118775
0.04799620514005298,0.003528978477326145,-0.0002723152478163817
0.04903972477970694,0.003577496442286025,-0.0002687620103565756
0.04975537990175084,0.0036268939946267537,-0.0002651598151381192
0.05005392127576711,0.0036767986452155127,-0.0002615079688181981
0.04988255585036096,0.0037267668837785766,-0.00025780618605370106
0.04922589377156277,0.0037763211085895384,-0.000254054642057517
0.04810484316120637,0.003824986477055923,-0.0002502539882646943
0.04657363485340563,0.003872325716063229,-0.0002464053321681347
0.04471477687818216,0.003917969921929023,-0.00024251018434913856
0.04263163215892428,0.003961643126447576,-0.00023857037782495027
0.040438746353934706,0.004003178315704006,-0.0002345879671038745
0.03825093808604405,0.004042523157923995,-0.00023056511636706048
0.036172919354386754,0.00407973508664421,-0.00022650398724477638
0.034291247255561506,0.004114967169949185,-0.0002224066361164797
0.03266964882988287,0.004148447617991907,-0.00021827492872250915
0.031347663955297304,0.004180456274384498,-0.00021411047677632095
0.030341730675223017,0.004211300971699758,-0.00020991459815327882
0.029647658037030362,0.004241295666055885,-0.000205688299834401
0.029243772887187762,0.004270741381517994,-0.00020143228131061405
0.029094453308682114,0.004299910494615929,-0.0001971469553725471
0.02915396717443121,0.004329034704857486,-0.00019283248277281038
0.0293705327731414,0.0043582969548312716,-0.000188488816942966
0.029690436344429198,0.004387827439390057,-0.00018411575474585533
0.03006193355946292,0.004417703624342003,-0.0001797129892139893
0.03043854746226337,0.004447953864852866,-0.00017528016046939186
0.030781328563129193,0.004478563802865562,-0.00017081690163553263
0.031059787204382544,0.004509484360749318,-0.0001663228775537252
0.03125156143540401,0.004540640035069211,-0.00016179781535581591
0.031341233521186576,0.004571936432547506,-0.00015724152712200755
0.03131879953406486,0.004603266449075132,-0.00015265392568119624
0.031178145707268328,0.004634514921695799,-0.00014803503499581078
0.030915753742925118,0.004665561871420896,-0.00014338499659925243
0.030529851154782503,0.004696284673869749,-0.00013870407332660712
0.030020097748796094,0.004726559648321539,-0.00013399265116551147
0.02938751876981003,0.004756263456580842,-0.00012925123961306028
0.028634183340864167,0.004785274307636179,-0.00012448047073095178
0.027762555520039322,0.00481347267706663,-0.00011968109723860037
0.02677518937650837,0.004840741549514904,-0.0001148539901253096
0.0256756200205365,0.0048669669542134265,-0.00011000013587344543
0.02447057618416676,0.004892040052315778,-0.00010512063237018083
0.023172610316198435,0.004915861645565961,-0.00010021668152123996
0.021801740200559576,0.0049383488208243394,-9.52895762880448e-05
0.020384985830478146,0.004959442183839858,-9.034068078571271e-05
