frame_number,force
0,603.7431600000308
1,604.2014782572498
2,604.6410126971207
3,605.0447354105373
4,605.3988635022424
5,605.6939014349527
6,605.9251731969541
7,606.0928684804707
8,606.2016703630474
9,606.2600486856217
10,606.2793078410799
11,606.2724716856056
12,606.2530802258258
13,606.2339805635853
14,606.2262188902067
15,606.2381562278495
16,606.2749172539657
17,606.3382401719923
18,606.4267357772527
19,606.5364948421378
20,606.6619187581771
21,606.7966075601607
22,606.9341424284445
23,607.0686570454479
24,607.1951795276539
25,607.3097936527087
26,607.409688152055
27,607.4931512146502
28,607.5595480187809
29,607.6093004648699
30,607.6438691509603
31,607.6657189299027
32,607.6782382592468
33,607.6855856103042
34,607.6924496404323
35,607.703725147791
36,607.7241243705738
37,607.7577666110329
38,607.8078080975349
39,607.8761689138879
40,607.9633824148323
41,608.0685570122137
42,608.1894229637006
43,608.3224440902388
44,608.463001623553
45,608.6056857482512
46,608.7447273073165
47,608.8745553533711
48,608.9904045773341
49,609.0888592491985
50,609.1682251707557
51,609.2286669637944
52,609.2721177074352
53,609.3020269042695
54,609.3230284071567
55,609.340581767848
56,609.3606007702489
57,609.3890641584621
58,609.4316103716644
59,609.4931315588067
60,609.5773873871148
61,609.6866620820338
62,609.8214986495194
63,609.9805519258224
64,610.1605874311939
65,610.356621777309
66,610.562184852579
67,610.7696980153315
68,610.9709755984317
69,611.1578349309233
70,611.3227548584244
71,611.459496819292
72,611.5636134640386
73,611.6327968114165
74,611.66704113746
75,611.6686204455293
76,611.6419100431716
77,611.5930952404325
78,611.529791603495
79,611.4605746425427
80,611.3944212568655
81,611.3401024976641
82,611.3055983372506
83,611.2975985169074
84,611.3211193742884
85,611.3792379283245
86,611.4729370554862
87,611.6010604729855
88,611.7603843717038
89,611.9458229919672
90,612.1507915485834
91,612.3677375357593
92,612.5888148958475
93,612.8066262747423
94,613.0149168614676
95,613.2090879549553
96,613.3864236272327
97,613.5459923654751
98,613.688276703431
99,613.8146550822087
100,613.9268743191649
101,614.0266104431101
102,614.115161087049
103,614.1932798330367
104,614.2611521186682
105,614.318506043539
106,614.3648383855843
107,614.399711628458
108,614.423047771576
109,614.4353331912315
110,614.4376789643527
111,614.4317449793673
112,614.4195928460919
113,614.4035435958089
114,614.3860838295948
115,614.3698235627163
116,614.3574853795021
117,614.3518935950588
118,614.3559227936682
119,614.3723617815879
120,614.4036644893334
121,614.4515953587286
122,614.5168237052347
123,614.5985661107068
124,614.6943941639557
125,614.800292693929
126,614.910982355475
127,615.0204538045864
128,615.1226268109547
129,615.2120421458885
130,615.2845044908448
131,615.3376102313098
132,615.3711022873371
133,615.3869941727851
134,615.3894175251905
135,615.3841881748625
136,615.3781401059725
137,615.3783118354897
138,615.3910754813649
139,615.4212960579897
140,615.471620560397
141,615.5420184124338
142,615.6296932482179
143,615.7294298528253
144,615.8343373866708
145,615.9368487622509
146,616.0297839420923
147,616.1072935646548
148,616.1655480485648
149,616.2030961735614
150,616.2208674085081
151,616.2218394438605
152,616.2104489720122
153,616.1918746811974
154,616.1713297870082
155,616.1534572094434
156,616.1418625277297
157,616.1387921264738
158,616.1449635438566
159,616.1595483617144
160,616.180288569335
161,616.2037217959798
162,616.2255088469832
163,616.2408702606883
164,616.2451193685346
165,616.2342376758304
166,616.2054062402831
167,616.1573997390456
168,616.0907637823892
169,616.0077296959942
170,615.9118797114147
171,615.8076468382666
172,615.6997767126772
173,615.5928583867098
174,615.4909633248225
175,615.3973730374458
176,615.3143640785357
177,615.243045754685
178,615.1832800522003
179,615.1337308409503
180,615.092076054223
181,615.0553725263258
182,615.0205127289464
183,614.9846863308237
184,614.9457658424894
185,614.9025642531763
186,614.8549501697396
187,614.8038338718957
188,614.7510379724928
189,614.699047905367
190,614.6506352680676
191,614.6083829561694
192,614.5741979319296
193,614.5489331121408
194,614.53222090267
195,614.5225534798793
196,614.5175719667151
197,614.5144865232762
198,614.5105439884984
199,614.5034685020274
200,614.491812106906
201,614.4751699381297
202,614.4542383839134
203,614.430716173334
204,614.4070637541081
205,614.3861508513082
206,614.3708380977419
207,614.3635484720551
208,614.3658824756391
209,614.3783242747264
210,614.40008214808
211,614.4291005826424
212,614.4622607687811
213,614.4957463851772
214,614.5255028439398
215,614.5476809260244
216,614.5589526719119
217,614.5566325023849
218,614.5386161769575
219,614.5032228930944
220,614.4490541834227
221,614.37495935651
222,614.2801390674464
223,614.1643557459461
224,614.0281787512129
225,613.8731874235409
226,613.7020855517857
227,613.5187262022433
228,613.3280744531247
229,613.1361282964792
230,612.9497811000919
231,612.7765674058032
232,612.6242235270704
233,612.500039753881
234,612.410062891094
235,612.3582759635168
236,612.3459033106525
237,612.3709688976479
238,612.4281949832808
239,612.5092811930983
240,612.6035519207311
241,612.6989023993372
242,612.7829231947683
243,612.8440617170695
244,612.8726928896647
245,612.8619960488664
246,612.8085509643091
247,612.7125818397128
248,612.5778137458107
249,612.4109621819006
250,612.2209382816316
251,612.0178995998481
252,611.8122892271932
253,611.613979696576
254,611.4315940324623
255,611.2720377302564
256,611.1402443399667
257,611.0391059938979
258,610.9695316202369
259,610.9305639609373
260,610.9195053479294
261,610.9320463404704
262,610.9624309008224
263,611.0036996232509
264,611.0480356690983
265,611.0872240169662
266,611.1132295616974
267,611.1188815076007
268,611.0986087374861
269,611.0491262805439
270,610.9699579663084
271,610.8636978294547
272,610.735943039026
273,610.5948666206494
274,610.4504492414153
275,610.3134531586028
276,610.194273959426
277,610.1018283658414
278,610.0426299682284
279,610.0201732779752
280,610.0346881257401
281,610.0832526112008
282,610.1601979345711
283,610.257726611876
284,610.3666790123108
285,610.4773879990638
286,610.5805517045181
287,610.6680458338748
288,610.7335953901807
289,610.7732301817919
290,610.7854669935413
291,610.7712017426076
292,610.7333493335191
293,610.6763144130156
294,610.6053875510919
295,610.5261333539861
296,610.4437996249032
297,610.362770509663
298,610.2861146147636
299,610.215299987091
300,610.1501276684382
301,610.0888872996164
302,610.0286961197388
303,609.9659609893491
304,609.8968993376567
305,609.8180665273594
306,609.726852969621
307,609.6219160189602
308,609.5034986363864
309,609.3735797002654
310,609.2358158901536
311,609.0952693891982
312,608.9579541994731
313,608.8302625041339
314,608.7183472072155
315,608.6275408013681
316,608.5618841352093
317,608.5238170939011
318,608.5140486004321
319,608.5315907044585
320,608.5739279118667
321,608.6372990355003
322,608.7170779155942
323,608.8082340422163
324,608.9058309264807
325,609.0054914014534
326,609.1037452675964
327,609.1981904788214
328,609.2874421776087
329,609.3708968499986
330,609.4483828272015
331,609.5197921484429
332,609.5847859888888
333,609.6426384608598
334,609.692249301851
335,609.732330387339
336,609.7617450138354
337,609.7799352459031
338,609.7873198070957
339,609.7855174801684
340,609.7772784174663
341,609.7660867089079
342,609.7554990094941
343,609.7483644181374
344,609.7461050148377
345,609.7482226007957
346,609.7521478774262
347,609.7534820598255
348,609.7466129457475
349,609.7256188749911
350,609.6853050899081
351,609.6221750655648
352,609.5351576363886
353,609.4259770464972
354,609.2991249484763
355,609.1614529750728
356,609.0214525554878
357,608.8883161126174
358,608.7708846580099
359,608.6766077952643
360,608.6106735730938
361,608.5754667086667
362,608.5704581466714
363,608.5925346237578
364,608.6366779547811
365,608.6968294607285
366,608.7667482845521
367,608.8407011672152
368,608.9138921498942
369,608.9826251533091
370,609.0442600101034
371,609.0970556707101
372,609.1399914828032
373,609.1726264007389
374,609.1950127350162
375,609.2076458661494
376,609.2114156042679
377,609.2075298276358
378,609.1974043343353
379,609.1825429175757
380,609.1644464802285
381,609.144575977868
382,609.124361785444
383,609.105227380717
384,609.0885943769829
385,609.0758523782087
386,609.0682925399759
387,609.0670085541826
388,609.0727683099232
389,609.0858635260637
390,609.1059558681196
391,609.1319510062755
392,609.1619416138576
393,609.1932633926637
394,609.2226971301278
395,609.2468186618
396,609.2624574663503
397,609.267191931634
398,609.2597942486892
399,609.2405408916806
400,609.2113256701268
401,609.1755479705223
402,609.1377891053672
403,609.1033231201957
404,609.0775262745477
405,609.0652503875716
406,609.0702203847851
407,609.0945199864134
408,609.1382404450002
409,609.1993683509418
410,609.2739634158297
411,609.356622144899
412,609.4411530561392
413,609.5213369078344
414,609.5916404918196
415,609.6477894865351
416,609.6871510714683
417,609.7089053539595
418,609.7139990600296
419,609.7048944046686
420,609.6851586557956
421,609.6589694849232
422,609.6306171366783
423,609.6040663121076
424,609.5826136467286
425,609.5686548266947
426,609.5635656800791
427,609.5677000677784
428,609.5804985274542
429,609.6006774172222
430,609.6264481024895
431,609.6557256255328
432,609.6863194857001
433,609.7161221549904
434,609.7433070294394
435,609.7665283012468
436,609.7850971190658
437,609.7991009077322
438,609.8094403573913
439,609.8177781189942
440,609.8264141142886
441,609.8381131004072
442,609.8559052310983
443,609.88286768299
444,609.9218902567949
445,609.9754326231408
446,610.0452841764267
447,610.132335897129
448,610.2363749272785
449,610.3559187976604
450,610.4881135569957
451,610.6287280278224
452,610.7722806013063
453,610.912322457738
454,611.0418690199957
455,611.1539365889945
456,611.2421200808485
457,611.3011434348514
458,611.3273249024844
459,611.3189208772743
460,611.2763322822914
461,611.2021665613292
462,611.1011469102351
463,610.9798582411837
464,610.8463284453513
465,610.7094649672224
466,610.5783869821302
467,610.4617040958292
468,610.3667994994385
469,610.2991819712578
470,610.2619712977264
471,610.2555748478394
472,610.2776019702187
473,610.3230441354768
474,610.3847227633377
475,610.4539829089271
476,610.5215877410989
477,610.5787327224581
478,610.6180550036861
479,610.6344888179441
480,610.6258272488204
481,610.5928913309285
482,610.5392712859772
483,610.470682569008
484,610.3940552089681
485,610.316526597941
486,610.2445155712535
487,610.1830171214117
488,610.1351952428305
489,610.1022953301386
490,610.0838551923575
491,610.0781518227465
492,610.0827757242122
493,610.0952003629969
494,610.1132370056912
495,610.1353241979663
496,610.1606590703807
497,610.1892072064732
498,610.2216230956366
499,610.2590867826242
500,610.3030438190242
501,610.3548470171098
502,610.4153300009858
503,610.4843723267556
504,610.5605345603022
505,610.6408432118827
506,610.7207857731438
507,610.7945470849163
508,610.8554933981434
509,610.8968813544725
510,610.9127194130314
511,610.8986471245478
512,610.8526612702822
513,610.7755429907753
514,610.6709200180318
515,610.544985829751
516,610.4059497886512
517,610.2633030411968
518,610.1269754981547
519,610.0064506590211
520,609.9099055850954
521,609.8434506475468
522,609.8105491631368
523,609.8116911540991
524,609.8443730535737
525,609.9033979821404
526,609.9814667154601
527,610.0699854273518
528,610.159981596469
529,610.2430093022249
530,610.3119472050543
531,610.3616280655734
532,610.3892613912573
533,610.3946190689888
534,610.3799608923879
535,610.3496879015266
536,610.309732252571
537,610.2667334675713
538,610.2271060539566
539,610.1961462979909
540,610.1773326476545
541,610.1719376763873
542,610.1790025324842
543,610.1956525473053
544,610.2176768090826
545,610.2402592272167
546,610.2587278054755
547,610.2691858617595
548,610.2689213839094
549,610.2565626113923
550,610.2320235946778
551,610.1963154733512
552,610.1512837079633
553,610.0993075315614
554,610.0429923042491
555,609.9848891774609
556,609.9272710178022
557,609.8719750791101
558,609.8203045228873
559,609.7729806763015
560,609.730157759354
561,609.6915293125597
562,609.6565436514751
563,609.624698808461
564,609.5958309540774
565,609.5702860900958
566,609.5488971630532
567,609.5327589212181
568,609.5228573602565
569,609.5196454307168
570,609.5226671398968
571,609.5303244439633
572,609.53985161778
573,609.5475119140858
574,609.5489739422966
575,609.5397802870301
576,609.5158110534286
577,609.4736752809325
578,609.4110079784934
579,609.3266774911755
580,609.2209067096499
581,609.095296034504
582,608.9527308860963
583,608.7971771514319
584,608.633400680534
585,608.4666629234133
586,608.302431948065
587,608.1461168939966
588,608.002806424024
589,607.8769904180782
590,607.7722698221767
591,607.6910845149574
592,607.6344899604209
593,607.6019990846947
594,607.5915004404518
595,607.5992747267692
596,607.620144184094
597,607.6477864581268
598,607.6752238428377
599,607.6954671997144
600,607.7022538026085
601,607.6907710012086
602,607.6582234216269
603,607.6041194202159
604,607.5302341670903
605,607.4403046611437
606,607.3395624150137
607,607.2341954359156
608,607.1307874865968
609,607.0357536443224
610,606.9547898058482
611,606.8923606722341
612,606.851252900965
613,606.8322303750056
614,606.8338517089315
615,606.8525191453772
616,606.8827973469045
617,606.9179808892634
618,606.9508336967237
619,606.9743951320244
620,606.982746343957
621,606.9716462340334
622,606.9389704206089
623,606.8849114809356
624,606.8119196385287
625,606.724385183696
626,606.6280957765501
627,606.5295398196733
628,606.4351555360329
629,606.3506290084135
630,606.2803208848715
631,606.226865242724
632,606.1909564643486
633,606.171331416971
634,606.1649566306269
635,606.1674246094158
636,606.1735356896571
637,606.1779961684824
638,606.1761231191781
639,606.1644365509568
640,606.1410475914976
641,606.1058017977416
642,606.0601838334879
643,606.0070189047669
644,605.9500237164173
645,605.8932782979799
646,605.8407097726387
647,605.7956839090326
648,605.7607744170764
649,605.7377253273121
650,605.7275584122422
651,605.7307354605183
652,605.7472892954629
653,605.7768815435732
654,605.8187909929331
655,605.871855957683
656,605.9343980684052
657,606.00416586982
658,606.0783511010216
659,606.1537245543001
660,606.2269002809886
661,606.2946820338021
662,606.3544076197334
663,606.4042139233223
664,606.4431899792246
665,606.4714238476104
666,606.4899540726312
667,606.5006278349376
668,606.50587289963
669,606.5084092530531
670,606.5109462771136
671,606.5159211862969
672,606.5253231188555
673,606.5406158508371
674,606.562739458112
675,606.5921515363241
676,606.6288598127389
677,606.6724001770249
678,606.7217374586032
679,606.7751145989939
680,606.8299342712462
681,606.8827937544544
682,606.9297738739116
683,606.9669953116247
684,606.9913362278786
685,607.0011183085672
686,606.9965601655441
687,606.9798677213639
688,606.9549461124745
689,606.9268297173777
690,606.900991695695
691,606.8826876319707
692,606.8764252527799
693,606.8855825370866
694,606.9121611318551
695,606.9566648730016
696,607.018112950305
697,607.094209028516
698,607.1816729922853
699,607.2767009663958
700,607.3754739846022
701,607.4746110351946
702,607.5714713253502
703,607.6642539406948
704,607.7519031892538
705,607.8338744978934
706,607.9098316991561
707,607.9793397916754
708,608.0416041576476
709,608.0952998702767
710,608.1385353164417
711,608.1689860100471
712,608.1841974968131
713,608.1820019254751
714,608.1609543290573
715,608.1206890606251
716,608.0621216496598
717,607.9874690896291
718,607.9001132645924
719,607.8043580483557
720,607.7051190439931
721,607.6075579624926
722,607.5166623535357
723,607.4367877331129
724,607.3712132907747
725,607.3217927657308
726,607.2887848074836
727,607.2709097628548
728,607.2656168758576
729,607.2694938787233
730,607.2787366174903
731,607.2896139848139
732,607.2988903425742
733,607.3041882260162
734,607.3042810766713
735,607.2992951903433
736,607.2907779617618
737,607.2815765204019
738,607.2754912874029
739,607.2767267253118
740,607.2892285160971
741,607.3160331779601
742,607.3587441381459
743,607.4172010792273
744,607.4893576548964
745,607.5713510937924
746,607.6577436564202
747,607.7419314681616
748,607.8167253230097
749,607.8750830335727
750,607.910916943895
751,607.9198533464313
752,607.8998191512145
753,607.8513721575365
754,607.7777435654483
755,607.6846022381253
756,607.5795807720075
757,607.4716310700505
758,607.3702958235629
759,607.2849776750496
760,607.2242584466188
761,607.1952882482593
762,607.2032552855663
763,607.2509656908394
764,607.3385857101683
765,607.4635989885084
766,607.6210019431594
767,607.8037185316265
768,608.0031891199292
769,608.210084363524
770,608.4150963237353
771,608.6097461709711
772,608.7871218322745
773,608.9424399015043
774,609.0733345646614
775,609.1798158928462
776,609.2638999116749
777,609.3289792103004
778,609.3790570003925
779,609.4179899266755
780,609.448871034369
781,609.4736459388264
782,609.4930063345666
783,609.5065566171097
784,609.5132096675372
785,609.5117374553821
786,609.501378696443
787,609.4823927959004
788,609.4564517676448
789,609.4267801891425
790,609.3979894435447
791,609.3756112525562
792,609.3654088706697
793,609.3726024059064
794,609.4011561378543
795,609.4532395854096
796,609.5289200543232
797,609.626098959728
798,609.7406740492938
799,609.8668947305586
800,609.9978753403257
801,610.1262279723376
802,610.2447595143335
803,610.3471545289092
804,610.4285576851661
805,610.4859858421949
806,610.518532529568
807,610.5273645600861
808,610.515540555234
809,610.4876943264745
810,610.4496229244176
811,610.407809461338
812,610.3689016884748
813,610.3391641318377
814,610.3239307970401
815,610.3271040613689
816,610.3507557646602
817,610.3948752322585
818,610.457289588458
819,610.5337797563762
820,610.618427141165
821,610.704216882822
822,610.7838721571325
823,610.8508176699422
824,610.9001140230189
825,610.9292050147035
826,610.9383715114483
827,610.9308489087551
828,610.9126120675313
829,610.8918608530789
830,610.8782570234356
831,610.8819714854613
832,610.9126062045298
833,610.9780718959848
834,611.0835406472736
835,611.230634435473
836,611.4170138133604
837,611.6364687738931
838,611.8795065499268
839,612.1343270158834
840,612.3880101987344
841,612.6277237220434
842,612.8417905091592
843,613.0205258935187
844,613.1568267278684
845,613.2465373175469
846,613.2886173468405
847,613.2851163929233
848,613.2409448279964
849,613.163431680713
850,613.0616758980965
851,612.9457318522387
852,612.8257183744353
853,612.7109740876941
854,612.6093719428885
855,612.5268613758985
856,612.4672595718747
857,612.432281376732
858,612.4217760230742
859,612.4341190522628
860,612.466689936593
861,612.5163587401389
862,612.5799146394497
863,612.6543931484447
864,612.7372879566293
865,612.826652042645
866,612.9210958635263
867,613.0196956651987
868,613.1218465189759
869,613.2271124589187
870,613.3351123170609
871,613.4454448554253
872,613.5576361560105
873,613.6710987609293
874,613.7851062654687
875,613.8987887222294
876,614.0111441191948
877,614.1210522603777
878,614.2272785449433
879,614.3284661959622
880,614.4231278493247
881,614.5096507990718
882,614.5863234051039
883,614.6513821598629
884,614.7030788570222
885,614.7397730321768
886,614.7600515237892
887,614.7628586891225
888,614.7476081237766
889,614.7142601539783
890,614.6633757827368
891,614.5961692752325
892,614.5145722604047
893,614.4213060041942
894,614.3199448011304
895,614.2149405798248
896,614.1115687557036
897,614.0157606568863
898,613.933810686074
899,613.8719663069073
900,613.835914141416
901,613.8301856642369
902,613.8575394404211
903,613.9184161427154
904,614.0105767908666
905,614.1290189923147
906,614.2662352102825
907,614.4128323146551
908,614.558465131552
909,614.6929624614646
910,614.8074730810257
911,614.8954512967815
912,614.9533365018584
913,614.9808424797621
914,614.9808354601337
915,614.958830022365
916,614.9221707237924
