acceleration,velocity,displacement
0.21282042215624594,0.0,0.0
0.21578374359403704,0.00010715104143757075,2.6787760359392686e-08
0.2187458129574015,0.0002157834305754304,1.0752137836264298e-07
0.22170538196780107,0.00032589622930673105,2.4294129333318333e-07
0.22466120986357022,0.0004374878772645739,4.337873199760096e-07
0.22761206698974712,0.0005505561964779032,6.807983384116288e-07
0.23055673822071837,0.0006650983977805195,9.847119869762344e-07
0.23349402619149193,0.0007811110888835721,1.3462643586422572e-06
0.2364227543164797,0.000898590284010565,1.7661897018657915e-06
0.23934176957265113,0.0010175314149828477,2.2452201266141447e-06
0.24224994501770622,0.001137929343630437,2.7840853162674657e-06
0.24514618200670196,0.0012597783753865392,3.38351224602171e-06
0.24802941206909723,0.001383072273905489,4.044224908344717e-06
0.2508985984165241,0.0015078042765268942,4.7669440459528134e-06
0.2537527370665453,0.0016339671103976616,5.552386892683953e-06
0.2565908575815296,0.0017615530090596802,6.401266922548288e-06
0.2594120234293334,0.001890553729312396,7.314293607141307e-06
0.26221533197543123,0.002020960568163587,8.292172181510302e-06
0.2649999141218328,0.002152764379687903,9.335603418473176e-06
0.2677649336221704,0.0022859555916239036,1.0445283411301127e-05
0.2705095861230243,0.0024205242215602023,1.1621903364597153e-05
0.27323309799991025,0.002556459892590936,1.2866149393134938e-05
0.2759347250634794,0.0026937518483567836,1.4178702328371867e-05
0.27861375120544596,0.002832388967424015,1.5560237532317068e-05
0.2812694870401283,0.0029723597769854087,1.7011424718419424e-05
0.283901268582949,0.003113652465891178,1.853292777913857e-05
0.28650845599614744,0.003256254897035952,2.0125404619870352e-05
0.2890904324253029,0.003400154619141315,2.1789506998914667e-05
0.2916466029473197,0.0035453388779844706,2.3525880373196113e-05
0.29417639364813425,0.003691794627133334,2.5335163749475565e-05
0.29667925084184993,0.00383950853825583,2.7217989540822855e-05
0.29915464043145806,0.003988467011074157,2.9174983428155352e-05
0.3016020473972857,0.004138656183031343,3.1206764226681726e-05
0.3040209753863283,0.0042900619387272465,3.331394375712137e-05
0.3064109463658681,0.004442669919165296,3.549712672159451e-05
0.308771500299366,0.0045964655308316045,3.775691058409373e-05
0.31110219480264256,0.004751433954607106,4.009388545545341e-05
0.31340260474667825,0.004907560154494436,4.2508633982728796e-05
0.3156723217923069,0.005064828886129183,4.50017312428847e-05
0.31791095386813856,0.005223224705044294,4.757374464067807e-05
0.3201181246268656,0.005382731974668045,5.022523381060616e-05
0.3222934729291999,0.0055433348740570616,5.295675052278743e-05
0.32443665240664976,0.005705017405391024,5.5768838592649456e-05
0.3265473311456479,0.005867763401279098,5.866203379431698e-05
0.32862519151901665,0.006031556531945264,6.163686377762307e-05
0.33066993017056,0.006196380312367658,6.46938479887013e-05
0.3326812581382286,0.006362218109444855,6.783349759415442e-05
0.33465890108353935,0.006529053149250297,7.105631540882821e-05
0.33660259958204924,0.006696868524416694,7.436279582724496e-05
0.3385121094248979,0.006865647201668431,7.775342475876623e-05
0.3403872018857209,0.007035372029496086,8.122867956655737e-05
0.34222766391687387,0.0072060257459467345,8.478902901041807e-05
0.3440332982460917,0.007377590986487476,8.843493319352662e-05
0.34580392334508386,0.007550050291885269,9.216684351311981e-05
0.3475393732384388,0.0077233861160311505,9.598520261509892e-05
0.349239497120039,0.00789758083362077,9.989044435251189e-05
0.35090415874731157,0.008072616747587608,0.00010388299374781398
0.3525332355923745,0.00824847609617253,0.00010796326695875402
0.35412661774491727,0.008425141059506853,0.00011213167124767387
0.3556842065820714,0.0086025937655886,0.00011638860495394773
0.3572059132381606,0.008780816295543658,0.00012073445746923079
0.35869165691852783,0.008959790688082829,0.0001251696092151374
0.36014136311030914,0.009139498943090038,0.00012969443162293062
0.36155496175215496,0.009319923024305654,0.00013430928711477953
0.3629323854297786,0.009501044861101137,0.00013901452908613124
0.3642735676592849,0.009682846349373402,0.00014381050188874987
0.3655784413086146,0.009865309351615377,0.00014869754081399706
0.36684693719745864,0.010048415696241896,0.00015367597207596137
0.368078982909326,0.010232147176268592,0.00015874611279408898
0.36927450183921207,0.010416485547455726,0.00016390827097502005
0.3704334124809385,0.010601412526035765,0.00016916274549339292
0.37155562793386243,0.010786909786139465,0.00017450982607143672
0.37264105559168076,0.010972958957020851,0.0001799497932572268
0.3736895969739459,0.011159541620162259,0.00018548291840152258
0.3747011476700672,0.011346639306323262,0.00019110946363314396
0.3756755973773785,0.011534233492585123,0.00019682968183287107
0.37661283002399765,0.011722305599435467,0.00020264381660587623
0.3775127239721901,0.011910836987934515,0.00020855210225271872
0.37837515229856183,0.012099808957002203,0.0002145547637389529
0.3791999831455287,0.012289202740863226,0.00022065201666341926
0.37998708013870924,0.012478999506684286,0.00022684406722530613
0.3807363028702915,0.012669180352436535,0.00023313111219008632
0.38144750745885364,0.012859726305018821,0.00023951333885445015
0.38212054720873684,0.013050618318685718,0.00024599092501037626
0.38275527340248194,0.013241837273838522,0.0002525640389085073
0.3833515362638456,0.013433363976255105,0.00025923283922103075
0.38390918612499775,0.013625179156852315,0.0002659974750043076
0.38442807482196295,0.013817263472089055,0.00027285808566154297
0.384908057330956,0.014009597505127284,0.00027981480090584704
0.3853489936472061,0.014202161767871825,0.0002868677407240968
0.3857507508987095,0.014394936704008304,0.00029401701534206685
0.38611320568260454,0.014587902693153632,0.0003012627251913573
0.3864362466097208,0.014781040056226713,0.0003086049608787024
0.3867197770360615,0.014974329062138159,0.0003160438031582936
0.38696371794581247,0.015167749935883627,0.0003235793229077991
0.3871680109346855,0.01536128286810375,0.00033121158110879594
0.38733262123194645,0.015554908026145408,0.00033894062883235823
0.3874575406952578,0.01574860556662721,0.0003467665072305514
0.38754279071280456,0.015942355649479226,0.000354689247534578
0.38758842495089774,0.016136138453395153,0.0003627088710602966
0.38759453188849086,0.016329934192605,0.00037082538922179664
0.3875612370785938,0.01652372313484677,0.0003790388035536596
0.38748870507287914,0.016717485620384637,0.00038734910574246746
0.38737714094989134,0.016911202081890328,0.00039575627766803617
0.3872267914071002,0.017104853064979577,0.00040426029145475365
0.38703794541036923,0.017298419249183943,0.00041286110953329453
0.3868109344296648,0.01749188146914395,0.0004215586847128765
0.3865461323145727,0.01768522073583001,0.00043035296026412
0.386243954871866,0.017878418257626618,0.00043924387001248417
0.3859048592024219,0.01807145546114519,0.0004482313384421771
0.38552934284018325,0.018264314011655843,0.00045731528081037736
0.3851179427160168,0.018456975833044894,0.00046649560327155254
0.38467123395198005,0.018649423127211892,0.00047577220301161675
0.38418982848728134,0.018841638392821707,0.00048514496839162515
0.38367437354890643,0.019033604443330753,0.0004946137791006633
0.383125549997032,0.019225304424217236,0.0005041785063175503
0.3825440705823238,0.019416721829362077,0.0005138390128809451
0.38193067814479587,0.019607840516543858,0.0005235951534674216
0.38128614377084613,0.01979864472202277,0.0005334467747770632
0.3806112649170363,0.01998911907419474,0.0005433937157261176
0.37990686350738384,0.020179248606300847,0.0005534358076462415
0.3791737840108864,0.020369018768180414,0.0005635728744898617
0.37841289150833973,0.02055841543706022,0.000573804733041172
0.3776250697683504,0.020747424927379392,0.0005841311931322819
0.37681121937185313,0.020936033999664445,0.0005945520578640428
0.3759722559389142,0.021124229868492137,0.0006050671238310819
0.37510910850557866,0.02131200020960326,0.0006156761813506058
0.3742227180731783,0.02149933316624795,0.0006263790146945685
0.37331403632286697,0.021686217354846958,0.0006371754023248422
0.3723840244663796,0.02187264187004427,0.000648065117131065
0.3714336521908546,0.02205859628920858,0.0006590479266708782
0.3704638966476179,0.022244070676418197,0.0006701235934122849
0.36947574143099454,0.02242905558593785,0.0006812918749778739
0.36847017549614214,0.022613542065169634,0.0006925525243906507
0.3674481919754052,0.02279752165703752,0.0007039052903212025
0.3664107868655357,0.022980986401747755,0.0007153499173358989
0.36535895756524617,0.023163928837855452,0.0007268861461457996
0.3642937012406744,0.023346342002556933,0.0007385137138559027
0.36321601298933764,0.023528219431114435,0.0007502323542143205
0.36212688376661867,0.023709555155303423,0.000762041797860925
0.3610272980385566,0.023890343700754716,0.0007739417725749396
0.35991823113586946,0.024070580083048323,0.0007859320035208903
0.3588006463094787,0.02425025980240966,0.0007980122134922549
0.35767549152122247,0.024429378836867334,0.0008101821231520742
0.3565436960291881,0.024607933633754936,0.0008224414512697297
0.3554061668302899,0.024785921099469806,0.0008347899149530359
0.35426378500437555,0.024963338587428472,0.0008472272298747605
0.35311740198017966,0.025140183884174612,0.0008597531104926612
0.3519678357303457,0.025316455193602243,0.0008723672702621054
0.3508158669059333,0.025492151119261314,0.0008850694218403213
0.34966223493328724,0.02566727064472112,0.0008978592772813169
0.3485076341056811,0.02584181311198086,0.0009107365482204924
0.34735270970284565,0.026015778197932993,0.0009237009460479709
0.3461980541686321,0.026189165888900863,0.0009367521820696794
0.3450442033817628,0.02636197645328846,0.0009498899676552268
0.34389163307299253,0.02653421041240215,0.0009631140143716494
0.34274075546662897,0.026705868509537056,0.0009764240341021342
0.34159191623786966,0.02687695167746318,0.0009898197391488843
0.34044539186823136,0.027047461004489706,0.0010033008423193726
0.3393013874564788,0.027217397699320883,0.0010168670569953252
0.3381600350195533,0.02738676305493989,0.0010305180971838903
0.3370213923051097,0.027555558411771056,0.001044253677550568
0.33588544212924504,0.027723785120379645,0.0010580735134336056
0.3347520922449421,0.02789144450397319,0.0010719773208396938
0.3336211757388175,0.02805853782096913,0.0010859648164209294
0.3324924519431656,0.028225066227889627,0.001100035717433144
0.3313656078317298,0.02839103074283335,0.0011141897416758247
0.3302402598459564,0.028556432209752774,0.0011284266074139712
0.329115956086161,0.028721271263735804,0.0011427460332823433
0.327992178805492,0.028885548297458718,0.001157147738172642
0.3268683471574886,0.02904926342894946,0.001171631441104244
0.3257438201591025,0.02921241647077861,0.001186196861079176
0.3246178998324628,0.0293750069007765,0.001200843716922065
0.3234898344821753,0.02953703383435516,0.001215571727105848
0.322358822057886,0.029698495998490174,0.0012303806095640593
0.3212240135491535,0.029859391707391936,0.0012452700814905297
0.3200845163635979,0.030019718839870122,0.0012602398591273452
0.3189393976516643,0.03017947481837394,0.0012752896575419063
0.3177876875591077,0.030338656589676632,0.001290419190393919
0.316628382404089,0.030497260607167433,0.00130562816969313
0.3154604477857925,0.030655282814714902,0.0013209163055486006
0.31428282163503474,0.030812718632070107,0.0013362833059102968
0.31309441721171133,0.030969562941781794,0.0013517288763037598
0.31189412603637195,0.031125810077593814,0.0013672527195586037
0.31068082072081327,0.03128145381428311,0.0013828545355315728
0.3094533576494377,0.03143648735887567,0.0013985340208248626
0.3082105794685922,0.03159090334315518,0.0014142908685003703
0.306951317363098,0.031744693817363105,0.0014301247677904999
0.3056743931291007,0.031897850244986155,0.0014460354038060871
0.3043786210804163,0.032050363498538535,0.0014620224572419684
0.30306280984138184,0.03220222385626898,0.0014780856040806703
0.30172576407726154,0.03235342099974864,0.0014942245152946747
0.3003662861990668,0.03250394401231772,0.0015104388565476913
0.2989831780663273,0.032653781378384074,0.0015267282878953668
0.2975752427066791,0.03280292098357732,0.0015430924634858571
0.2961412860734576,0.032951350115772354,0.0015595310312606946
0.29468011886549067,0.03309905546700709,0.0015760436326563896
0.29319055843224145,0.03324602313633152,0.0015926299023072243
0.29167143077948354,0.033392238633634455,0.0016092894677497158
0.2901215726760504,0.03353768688449834,0.001626021949129249
0.28853983384458054,0.0336823522361285,0.0016428269589094057
0.28692507920543836,0.033826218464391,0.0016597041015845356
0.28527619113786484,0.03396926878197683,0.0016766529733961276
0.28359207172578504,0.03411148584769274,0.001693673162053545
0.28187164496365863,0.0342528517768651,0.0017107642464596845
0.28011385890816765,0.034393348152833056,0.001727925796442109
0.2783176877754721,0.034532956039503966,0.0017451573724901932
0.27648213400118654,0.03467165599494813,0.0017624585254988063
0.2746062302935763,0.034809428086021825,0.0017798287965190489
0.2726890417107065,0.034946251904022896,0.00179726771651656
0.27072966777782,0.035082106581395024,0.0018147748061379146
0.2687272446425397,0.03521697080950011,0.0018323495754856384
0.2666809472560277,0.035350822857474755,0.001849991523902382
0.2645899915717905,0.03548364059218171,0.0018677001397647962
0.2624536367609647,0.0356154014992649,0.0018854749002876578
0.26027118744227695,0.03574608270531571,0.001903315271338803
0.25804199591451094,0.035875661001154906,0.0019212207072654207
0.255765464366267,0.0360041128662251,0.0019391906507322657
0.2534410470296573,0.03613141449407409,0.0019572245325723404
0.2510682522468494,0.036257541818893214,0.0019753217716505823
0.24864664443300363,0.03638247054306318,0.0019934817747410713
0.2461758459396725,0.036506176165656344,0.002011703936418251
0.24365553883644714,0.036628634011850375,0.002029987638962628
0.24108546662856795,0.03674981926321663,0.002048332252281395
0.23846543591914549,0.036869706988853564,0.0020667371338444125
0.23579531801184958,0.036988272177336315,0.0020852016286359598
0.23307505043316157,0.03710548976944757,0.002103725069122656
0.23030463833322548,0.037221334691639164,0.0021223067752379277
0.22748415571024666,0.037335781890150035,0.002140946054383375
0.2246137464048611,0.037448806365678815,0.002159642201447332
0.22169362482669708,0.0375603832084867,0.0021783944988408737
0.2187240763945646,0.03767048763379202,0.0021972022165514435
0.21570545768655,0.0377790950173123,0.0022160646122142197
0.21263819630722008,0.037886180930810746,0.0022349809312012504
0.20952279048742015,0.03799172117750941,0.0022539504067283305
0.20635980843410262,0.03809569182723979,0.002272972259979518
0.2031498874406619,0.038198069251208486,0.00229204570024913
0.199893732755433,0.03829883015625751,0.0023111699251009963
0.196592116193205,0.03839795161849467,0.0023303441205446843
0.19324587446553798,0.03849541111615936,0.002349567461228348
0.18985590720120216,0.03859118656157604,0.002368839110647782
0.18642317462538155,0.03868525633203269,0.002388158221371184
0.1829486948611119,0.03877759929940431,0.0024075239352790434
0.17943354080966273,0.038868194858322005,0.002426935383818475
0.1758788365660976,0.03895702295266595,0.002446391688271222
0.1722857533381919,0.039044064100142016,0.0024658919600344244
0.16865550486073028,0.039129299414691746,0.0024854353009131328
0.16498934232683585,0.03921271062648864,0.0025050208034234278
0.1612885488864185,0.03929428009929195,0.0025246475511048728
0.15755443378184958,0.03937399084495902,0.0025443146188409353
0.1537883261983645,0.03945182653495407,0.0025640210731859136
0.1499915689026869,0.03952777150872933,0.0025837659726968346
0.1461655117348495,0.03960181077888872,0.002603548368268739
0.1423115050129919,0.03967393003307568,0.00262336730347173
0.13843089291446695,0.039744115632557545,0.0026432218148881386
0.13452500690939748,0.03981235460751351,0.0026631109324481562
0.13059515933982768,0.03987863464907582,0.0026830336797623038
0.12664263725089914,0.0399429440982235,0.0027029890744491285
0.12266869658525048,0.04000527193168254,0.002722976128456605
0.11867455684869828,0.040065607745041025,0.002742993848375786
0.11466139634636663,0.04012394173333979,0.002763041235745381
0.11063034807627785,0.04018026466944545,0.0027831172873460774
0.10658249635258048,0.040234567880552664,0.002803220995483577
0.10251887420951643,0.04028684322319319,0.0028233513482595137
0.09844046160625843,0.04033708305714713,0.002843507329829599
0.0943481844184225,0.0403852802186533,0.002863687920648549
0.09024291417738414,0.04043142799330225,0.0028838920977015377
0.08612546851002652,0.04047552008897411,0.0029041188347221068
0.0819966122345217,0.04051755060916024,0.0029243671023966404
0.07785705907379534,0.040557514026987325,0.002944635868555677
0.07370747395068618,0.040595405160243445,0.002964924098352485
0.06954847582422223,0.04063121914768717,0.0029852307544294674
0.06538064101559374,0.04066495142689713,0.0030055547970731134
0.061204506958615144,0.04069659771389068,0.0030258951843583105
0.05702057629621297,0.04072615398470438,0.0030462508722829593
0.0528293212333409,0.04075361645908677,0.003066620814893907
0.0486311880489093,0.04077898158640733,0.0030870039644052805
0.04442660166633593,0.04080224603383614,0.0031073992713103412
0.040215970185404626,0.040823406676799075,0.003127805684488
0.035999689286025954,0.040842460591666935,0.0031482221513051164
0.03177814642408572,0.04085940505059446,0.0031686476177156817
0.027551724750441365,0.04087423751838809,0.0031890810283579274
0.023320806697645396,0.04088695565125011,0.003209521326650337
0.019085777193679026,0.04089755729722294,0.003229967454887455
0.014847026473463094,0.04090604049813973,0.0032504183543362957
0.010604952464990058,0.04091240349287434,0.003270872965334049
0.0063599627286212304,0.040916644721672744,0.003291330227387686
0.0021124759260344054,0.04091876283133641,0.003311789079275938
-0.002137077208246992,0.040918756681015855,0.0033322484591540263
-0.006388253421271997,0.04091662534835848,0.00335270730466137
-0.01064059704710212,0.04091236813574139,0.0033731645530323947
-0.014893640680149579,0.040905984576309576,0.0033936191412104076
-0.01914690642154451,0.040897474439534155,0.0034140700059643687
-0.023399907687730266,0.040886837736006834,0.003434516084008254
-0.027652151547184717,0.040874074721198105,0.003454956312122555
-0.03190314151856887,0.040859185897931666,0.0034753896272773374
-0.03615238072901833,0.04084217201736977,0.003495814966756163
-0.040399375308788024,0.04082303407836032,0.0035162312682800955
-0.044643637896184744,0.040801773325059076,0.0035366374701309503
-0.048884691141726444,0.0407783912427996,0.003557032511272915
-0.05312207112520459,0.040752889552232864,0.003577415331471673
-0.057355330625768655,0.04072527020179512,0.00359778487141018
-0.061584042205069384,0.040695535358587415,0.0036181400728002755
-0.0658078010703153,0.040663687397768565,0.0036384798784893646
-0.0700262276770306,0.04062972889058173,0.0036588032325614523
-0.0742389700150931,0.0405936625911587,0.0036791090804318876
-0.07844570550344873,0.040555491422279065,0.003699396368935247
-0.08264614240679487,0.040515218460301504,0.0037196640464058923
-0.086840020688776,0.040472846919527614,0.0037399110627508495
-0.09102711223054412,0.040428380136297785,0.0037601363695148058
-0.09520722036628104,0.04038182155314858,0.0037803389199371675
-0.09938017871604343,0.040333174703378,0.003800517669001299
-0.10354584933179828,0.04028244319636604,0.003820671573476235
-0.10770412021153963,0.04022963070398021,0.0038407995919513215
-0.11185490226923739,0.040174740948360016,0.0038609006848644065
-0.11599812586723773,0.0401177776913259,0.003880973814524328
-0.12013373702558267,0.040058744725602696,0.00390101794512856
-0.12426169342836485,0.03999764586798921,0.003921032042776958
-0.12838196035358987,0.03993448495454372,0.003941015075482591
-0.13249450665486293,0.03986926583779161,0.003960966013180674
-0.13659930091683653,0.03980199238589868,0.0039808838277365964
