acceleration,velocity,displacement
-0.016846185425371477,0.0,0.0
-0.015066431128950017,-7.978154138580374e-06,-1.9945385346450934e-09
-0.01325645721142968,-1.50588762236753e-05,-7.753796125209011e-09
-0.01142836197861782,-2.1230081021187174e-05,-1.682603543642463e-08
-0.009594900734798505,-2.6485896699541254e-05,-2.8755029866606735e-08
-0.007769213353043133,-3.082692522150166e-05,-4.3083235346867465e-08
-0.0059645416952733765,-3.4260363983580784e-05,-5.9355057648138076e-08
-0.004193942037268258,-3.6799984916716196e-05,-7.712014487321232e-08
-0.0024699960906020384,-3.846596944868377e-05,-9.593663346456233e-08
-0.0008045234380541392,-3.9284599330847814e-05,-1.1537427565944522e-07
0.0007917011478698418,-3.928780490339389e-05,-1.3501737671800565e-07
0.002309219679746671,-3.851257469648976e-05,-1.5446747161797657e-07
0.0037401432239189346,-3.7000233970573355e-05,-1.7334567378474236e-07
0.005078373370125963,-3.479560482206213e-05,-1.9129463348290122e-07
0.006319781833287171,-3.194606602120885e-05,-2.0798005119371896e-07
0.007462338588449987,-2.850053591577456e-05,-2.2309170167796482e-07
0.008506181186626861,-2.4508405972005345e-05,-2.363439371499098e-07
0.009453621094639424,-2.0018455401688775e-05,-2.474756524933333e-07
0.010309086776378412,-1.5077778433934316e-05,-2.562497109522391e-07
0.01107900677710266,-9.730755045564049e-06,-2.624518443221137e-07
0.011771638722177985,-4.018093670743887e-06,-2.658890565011907e-07
0.012396851932247585,2.0240289928625054e-06,-2.66387572670661e-07
0.012965872088149227,8.364709997961709e-06,-2.63790387922955e-07
0.013490995800755634,1.4978926970187924e-05,-2.5795447868091755e-07
0.013985281579075042,2.184799631514559e-05,-2.4874774785958416e-07
0.01446222255739632,2.895987234926343e-05,-2.360457806934819e-07
0.014935406066973697,3.6309279505355934e-05,-2.1972849272982707e-07
0.015418165736663237,4.389767245626517e-05,-1.9967675473942178e-07
0.01592323277127287,5.17330220832492e-05,-1.7576908110454318e-07
0.016462393714172824,5.982942870461062e-05,-1.4787846840757822e-07
0.017046162241126758,6.820656769343552e-05,-1.1586946930806669e-07
0.017683472789808224,7.688897645116927e-05,-7.959558327191549e-08
0.018381404230553736,8.590519570625976e-05,-3.889704023255823e-08
0.01914494190658013,9.528678224054322e-05,6.400954254142519e-09
0.01997678602562577,0.0001050672142235947,5.6489453370177e-08
0.020877214043589644,0.00011528071424089856,1.1157643548630031e-07
0.021844004559960543,0.0001259610188917861,1.7188686876947147e-07
0.02287242935719357,0.00013714012737107463,2.3766215533518667e-07
0.023955317356022875,0.00014884706404937875,3.0915895319030004e-07
0.025083189919748065,0.00016110669086832148,3.866473919197251e-07
0.026244463155491077,0.00017393860413713127,4.704087156710883e-07
0.02742571083643897,0.00018735614763511378,5.607324036141496e-07
0.028611980587249116,0.0002013655704910358,6.57912833145687e-07
0.02978715501346933,0.0002159653543912154,7.622455643662498e-07
0.030934348647814348,0.00023114573030653634,8.740233355406878e-07
0.03203633147856083,0.0002468884003381301,9.935318682018544e-07
0.03307597008517504,0.0002631664757290641,1.121045587218653e-06
0.03403667701584454,0.000279944637504319,1.2568233655269986e-06
0.034902857663795035,0.0002971795211742289,1.4011044051966355e-06
0.03566034225122152,0.00031482032115298306,1.5541043657784385e-06
0.03629678908937874,0.0003328096039881331,1.7160118470637175e-06
0.03680204388515978,0.0003510843122317677,1.8869853261186926e-06
0.03716843919284706,0.00036957693300126944,2.067150637426952e-06
0.037391019779672956,0.00038821679774439944,2.256599070113369e-06
0.03746768378581862,0.00040693147363577234,2.455386137958412e-06
0.0373992339648769,0.00042564820307344623,2.6635310571357166e-06
0.03718933637831595,0.00044429534565924443,2.8810169443188894e-06
0.03684438671617678,0.0004628037764328676,3.1077917248419175e-06
0.03637328893349855,0.00048110819534528644,3.343769717786456e-06
0.03578715704726953,0.0004991483068404784,3.588833843332897e-06
0.035098956177247516,0.0005168698351466077,3.842838378829669e-06
0.03432310127196146,0.0005342253495089099,4.105612174993548e-06
0.03347503230793904,0.0005511748829038851,4.376962233096747e-06
0.03257078456928398,0.0005676863371231909,4.656677538103515e-06
0.031626571126169276,0.0005837356760470542,4.9445330413960766e-06
0.030658390549062352,0.0005993069164658622,5.240293689524306e-06
0.029681667739789405,0.0006143919310380751,5.54371840140029e-06
0.02871093259008788,0.0006289900811205445,5.854563904439945e-06
0.027759540634764046,0.0006431076994267575,6.17258834957677e-06
0.026839439857311385,0.0006567574445497763,6.497554635570904e-06
0.025960986738776493,0.0006699575511987983,6.8292333845080476e-06
0.025132812935445663,0.0006827310011173538,7.167405522587086e-06
0.024361742493685928,0.0006951046399746368,7.511864432860084e-06
0.023652758162778953,0.000707108265138753,7.862417659138432e-06
0.02300901360503379,0.0007187737080807062,8.218888152443297e-06
0.02243188618923685,0.0007301339330292738,8.581115062720792e-06
0.021921063288409762,0.0007412221703986855,8.948954088577782e-06
0.02147465417711272,0.0007520710997650662,9.32227740611872e-06
0.021089319855757897,0.0007627120932732839,9.700973204378307e-06
0.020760414409862375,0.0007731745268396889,1.008494485940655e-05
0.020482133850293526,0.0007834851639047279,1.0474109782092654e-05
0.020247671211388475,0.0007936676151701484,1.0868397976861373e-05
0.0200493787170601,0.0008037418776522605,1.1267750350066975e-05
0.019878938362001743,0.0008137239569220259,1.1672116808710546e-05
0.019727542206699505,0.0008236255770642012,1.2081454192207102e-05
0.019586084170988588,0.0008334539836586233,1.2495724082387808e-05
0.019445365451553863,0.0008432118460642589,1.2914890539818529e-05
0.019296314077896764,0.0008528972659466215,1.333891781782125e-05
0.01913021516065269,0.0008625038982562589,1.376776810887197e-05
0.018938943858176283,0.0008720211880109661,1.4201399380438777e-05
0.018715190188427485,0.0008814347215226171,1.4639763357822172e-05
0.018452664404152275,0.000890726685170762,1.5082803709495517e-05
0.018146273132852615,0.0008998764195550132,1.553045448567696e-05
0.01779225859416315,0.0009088610524867672,1.5982638853687403e-05
0.01738829488557822,0.0009176561908567025,1.643926816452327e-05
0.016933536330777915,0.0009262366486607915,1.6900241374402644e-05
0.01642861379106045,0.0009345771861912511,1.7365444833115656e-05
0.015875576521923073,0.000942653233769497,1.7834752438105843e-05
0.015277780116045369,0.0009504415729289892,1.8308026139780466e-05
0.014639724952985602,0.0009579209491962469,1.8785116770311774e-05
0.013966853254265386,0.0009650725937480596,1.926586515604785e-05
0.013265315137028194,0.0009718806358458829,1.9750103463446336e-05
0.01254171443107069,0.0009783323932379077,2.0237656720717283e-05
0.011802843976278484,0.000984418532839745,2.0728344452236694e-05
0.011055419163824905,0.0009901330986247707,2.1221982360102822e-05
0.010305819122793504,0.0009954734081964252,2.171838398680812e-05
0.009559846983720637,0.0010004398247230538,2.2217362295037992e-05
0.00882252185142973,0.0010050354169318415,2.2718731105451717e-05
0.0080979132666475,0.0010092655257113608,2.3222306341112517e-05
0.00738902426765252,0.0010131372600949357,2.372790703756409e-05
0.006697724458827762,0.0010166589472765557,2.4235356089406965e-05
0.006024732103174464,0.0010198395614170563,2.4744480716580368e-05
0.00536964357791458,0.0010226881553373286,2.5255112645768965e-05
0.004731007628066194,0.0010252133181388237,2.5767088014138003e-05
0.004106440405498817,0.001027422680147215,2.6280247013709514e-05
0.003492776088810588,0.0010293224842707924,2.6794433304814017e-05
0.002886246905099565,0.00103091724001927,2.7309493235886534e-05
0.002282685120014985,0.0010322094730255487,2.782527491414774e-05
0.0016777381891916563,0.0010331995788528505,2.834162717711734e-05
0.0010670873928749903,0.0010338857852483672,2.8858398518142647e-05
0.0004466603668475448,0.001034264222188298,2.9375436020001814e-05
-0.00018717110048388353,0.0010343290945048888,2.989258434917511e-05
-0.000837415707076977,0.0010340729478029987,3.0409684859752083e-05
-0.0015063177078484774,0.0010334870144492673,3.092657485031515e-05
-0.0021952519730771723,0.001032561622029036,3.144308700943473e-05
-0.0029046693627962075,0.0010312866416950675,3.195904907536576e-05
-0.0036341000232665162,0.0010296519493485517,3.247428372312666e-05
-0.004382215655232556,0.0010276478704289269,3.298860867807103e-05
-0.005146944210149329,0.0010252655804625815,3.3501837040793906e-05
-0.005925624961765111,0.0010224974381696028,3.4013777795451954e-05
-0.0067151892094661735,0.001019337234626795,3.452423646365105e-05
-0.0075123509310801575,0.0010157803495916583,3.503301585970567e-05
-0.00831379193600798,0.0010118238138748863,3.5539916900572306e-05
-0.009116328041240622,0.0010074662838805743,3.604473942501117e-05
-0.009917046675475865,0.001002707940201395,3.654728298103167e-05
-0.010713410801852995,0.0009975503258320628,3.704734754754003e-05
-0.011503327583734653,0.000991996141235666,3.754473416430696e-05
-0.012285182447953015,0.0009860490137277441,3.803924545304781e-05
-0.013057840533770244,0.0009797132579823134,3.853068602097533e-05
-0.013820618198487218,0.000972993643299249,3.901886274629572e-05
-0.014573227259024867,0.000965895181934871,3.950358495260425e-05
-0.015315693964449968,0.0009584229516290023,3.9984664485995215e-05
-0.016048253864250354,0.0009505819646718272,4.046191571507042e-05
-0.016771224108211687,0.0009423770951787117,4.093515548003305e-05
-0.01748485728530135,0.0009338130748303335,4.140420302253531e-05
-0.018189184913687262,0.0009248945642805863,4.186887993231304e-05
-0.0188838619734536,0.0009156263025588012,4.2329010149022885e-05
-0.01956802475376296,0.000906013330876997,4.278442005738184e-05
-0.020240172836466723,0.0008960612814794396,4.323493871047095e-05
-0.02089808359101148,0.00088577671737257,4.368039821018395e-05
-0.02153876532527031,0.0008751675051434996,4.412063426581297e-05
-0.02215845354384008,0.000864243200426222,4.45554869422054e-05
-0.022752653347253602,0.0008530154237034486,4.4984801598237815e-05
-0.023316229566504885,0.000841498202975009,4.540843000490743e-05
-0.023843544481215506,0.0008297082594630789,4.5826231620516954e-05
-0.024328640530309965,0.0008176652132101975,4.623807498868527e-05
-0.024765461991005714,0.0008053916875798686,4.664383921388279e-05
-0.025148105261064042,0.0007929132957668511,4.704341545971947e-05
-0.025471082813605887,0.0007802584987481836,4.743670840834822e-05
-0.025729582370272907,0.0007674583324522139,4.782363761614832e-05
-0.025919701882277702,0.0007545460113890762,4.8204138702108644e-05
-0.02603864373459212,0.0007415564249848588,4.857816431120213e-05
-0.02608485805792235,0.0007285255495367302,4.894568480483253e-05
-0.026058132709611305,0.0007154898018448467,4.930668864267792e-05
-0.02595963271799575,0.0007024853604879449,4.966118243326112e-05
-0.02579189284610375,0.00068954747909692,5.0009190643157336e-05
-0.0255587646973439,0.0006767098147110581,5.0350754966609334e-05
-0.0252653174209342,0.0006640037941814886,5.068593336883247e-05
-0.024917690930426582,0.0006514580420936484,5.101479882790126e-05
-0.024522903284179696,0.0006390978935399968,5.133743781180967e-05
-0.02408861832983231,0.0006269450131364938,5.165394853847879e-05
-0.023622883706058303,0.0006150171376275212,5.196443907616979e-05
-0.02313385162757628,0.0006033279537941126,5.22690253490252e-05
-0.022629496270993855,0.00059188711681947,5.256782911667859e-05
-0.02211734242525106,0.0005807004071454088,5.2860975997669814e-05
-0.02160421866402459,0.0005697700168730899,5.314859360367444e-05
-0.021096043629727935,0.0005590949512996518,5.343080984571763e-05
-0.020597648818261833,0.0005486715281876543,5.3707751465589454e-05
-0.020112639364257518,0.0005384939561420245,5.397954283667187e-05
-0.01964329595336007,0.0005285549723126202,5.4246305068785536e-05
-0.019190522723159034,0.0005188465176434904,5.4508155441274565e-05
-0.018753845152031306,0.0005093604256746928,5.476520717710411e-05
-0.018331459106433978,0.0005000890996100765,5.50175695584253e-05
-0.01792032964130029,0.0004910261524231429,5.52653483714336e-05
-0.017516336823909635,0.0004821669858068404,5.5508646655991095e-05
-0.01711446510733322,0.0004735092853240297,5.574756572377381e-05
-0.016709031435415557,0.0004650534111883425,5.59822063979019e-05
-0.016293944729998955,0.0004568026671469889,5.621267041748574e-05
-0.01586298622192017,0.0004487634344090091,5.643906194287474e-05
-0.01541009737886822,0.000440945163508812,5.6661489092354194e-05
-0.014929660818755271,0.0004333602239594061,5.6880065439221246e-05
-0.014416760035883037,0.00042602361874574657,5.7094911399897534e-05
-0.013867405953676387,0.0004189525772483567,5.730615544889606e-05
-0.013278721350001443,0.00041216604542243724,5.751393510456376e-05
-0.012649076989048519,0.0004056840958376747,5.7718397639878786e-05
-0.011978175424155463,0.0003995272827343737,5.79197004845218e-05
-0.011267080028130894,0.00039371596887130214,5.811801129742322e-05
-0.01051818839149708,0.00038826965176639515,5.831350770258264e-05
-0.009735151766117747,0.00038320631672699145,5.8506376694705985e-05
-0.008922746282346053,0.0003785418422148755,5.869681373444145e-05
-0.008086706537503853,0.00037428947900991304,5.888502156474765e-05
-0.0072335360168314785,0.0003704594183713292,5.907120878909296e-05
-0.006370309667990312,0.00036705845695012376,5.9255588257923324e-05
-0.005504481109174272,0.00036408975925583263,5.943837531197481e-05
-0.0046437017472551675,0.0003615527135417253,5.9619785930174205e-05
-0.003795653841966665,0.00035944287464441984,5.980003482722074e-05
-0.002967895983971099,0.0003577519871879354,5.997933354267883e-05
-0.0021677180471365,0.00035646808368015854,6.0157888560395855e-05
-0.0014020029968638758,0.0003555756534191584,6.033589949467069e-05
-0.0006770941916105041,0.0003550558791220398,6.051355737780599e-05
1.3315377116177415e-06,0.0003548869384585651,6.0691043082201135e-05
0.0006283826536467169,0.0003550443670064047,6.086852590856738e-05
0.001200058525638804,0.0003555014773012261,6.104616236964428e-05
0.0017133345422028195,0.00035622982556818647,6.122409519536164e-05
0.0021662187428567433,0.00035719971388945134,6.140245258022606e-05
0.002557773952470536,0.00035838071206328317,6.158134768671424e-05
0.0028881034518728308,0.000359742181414369,6.176087841008365e-05
0.003158302747484794,0.0003612537829642084,6.194112740117829e-05
0.003370383455709859,0.0003628859545150071,6.212216233554809e-05
0.0035271772273837714,0.0003646103446857805,6.230403641034829e-05
0.0036322282147494317,0.0003664001960463138,6.248678904553132e-05
0.003689681802259889,0.0003682306735505661,6.267044676293053e-05
0.0037041751761582556,0.00037007913779517066,6.285502421576697e-05
0.0036807324984396653,0.0003719253647138201,6.304052534139423e-05
0.0036246652565917045,0.00037375171415257797,6.322694461111083e-05
0.0035414778431776175,0.0003755432499275203,6.341426835213085e-05
0.003436779497595812,0.00037728781426271365,6.360247611817842e-05
0.003316205148575684,0.0003789760604242565,6.379154208685015e-05
0.00318534812343258,0.00038060144874225857,6.398143646414178e-05
0.003049706481948015,0.0003821602123936037,6.417212687942574e-05
0.0029146417952128963,0.0003836512994628939,6.436357975738986e-05
0.0027853452932275276,0.000385076296235004,6.455576165631433e-05
0.0026668030305857355,0.00038643933331595733,6.474864056370207e-05
0.002563750560217623,0.00038774697171365817,6.494218713995947e-05
0.002480609397364878,0.0003890080617030538,6.513637589831365e-05
0.0024214020709459045,0.0003902335645701315,6.533118630488195e-05
0.0023896481664244886,0.0003914363271294741,6.552660377780685e-05
0.002388248522853348,0.00039263080130179357,6.572262055991467e-05
0.0024193678514821673,0.00039383270539537746,6.591923643658897e-05
0.002484327369756292,0.0003950586292006871,6.611645927023799e-05
0.002583518342105237,0.0003963255906286525,6.631430532519532e-05
0.002716345021745675,0.0003976505564696152,6.651279936196989e-05
0.00288120248542174,0.0003990499433464071,6.67119744869239e-05
0.0030754918439218257,0.00040053911692874294,6.691187175199269e-05
0.0032956722128331425,0.0004021319079429317,6.711253950821061e-05
0.0035373458429464977,0.0004038401624568766,6.731403252581056e-05
0.003795370449458072,0.00040567334152997775,6.751641090180727e-05
0.00406399132005627,0.00040763818197235633,6.771973878268285e-05
0.0043369854024003975,0.0004097384261529705,6.792408293471419e-05
0.004607810558323452,0.00041197462514315145,6.812951119753822e-05
0.0048697553133651645,0.0004143440166110736,6.833609085797677e-05
0.005116086511502559,0.00041684047706729054,6.854388698139637e-05
0.0053401930580343334,0.00041945454695967475,6.875296073740311e-05
0.005535723300324873,0.00042217352604926456,6.896336775565534e-05
0.00569671239973061,0.00042498163497427845,6.917515654591123e-05
0.005817695650199372,0.00042786023698676096,6.93883670139015e-05
0.005893805505896699,0.00043078811227578495,6.960302910121713e-05
0.005920854021546305,0.0004337417771576457,6.981916157357549e-05
0.005895406488858141,0.00043669584228524683,7.003677097843621e-05
0.005814854065816399,0.00043962340742391545,7.02558507908635e-05
0.005677491908096379,0.00044249649391739365,7.047638076619882e-05
0.005482604610640665,0.0004452865180470779,7.069832651918995e-05
0.005230554260983122,0.0004479648077649839,7.092163935064297e-05
0.004922861014229499,0.00045050316158378703,7.114625634298015e-05
0.0045622637934019765,0.0004528744427856949,7.137210074407253e-05
0.0041527492552678805,0.0004550531960478624,7.159908265378092e-05
0.0036995393567309824,0.0004570162682008621,7.18271000198431e-05
0.003209031337446511,0.0004587434108744065,7.205603993961192e-05
0.0026886892192308624,0.00046021784101357585,7.228578025258391e-05
0.0021468927084837006,0.00046142673649550447,7.251619139696118e-05
0.0015927551407649012,0.00046236164845781663,7.27471384931995e-05
0.0010359235636671076,0.00046301881813392464,7.297848360984744e-05
0.00048637043849332967,0.00046339939163446474,7.321008816228955e-05
-4.581974688548641e-05,0.0004635095293073667,7.3441815392525e-05
-0.0005506707108870397,0.00046336040669292354,7.367353287652508e-05
-0.00101854425963944,0.0004629681029502919,7.390511500393588e-05
-0.0014403789894332413,0.0004623533721380237,7.413644537270796e-05
-0.00180793079015517,0.0004615412946931266,7.436741903941574e-05
-0.0021140029310840356,0.0004605608112628168,7.459794456590473e-05
-0.0023526519389347215,0.0004594441475453121,7.482794580560676e-05
-0.0025193580033851387,0.00045822614505973213,7.505736337875802e-05
-0.0026111537128442244,0.0004569435171306748,7.528615579430562e-05
-0.0026267100159408276,0.0004556340511984785,7.551430018638791e-05
-0.0025663814564861496,0.00045433577833037177,7.574179264377012e-05
-0.002432213460635224,0.0004530861296010914,7.596864812075299e-05
-0.0022279135939654604,0.00045192109783744126,7.619489992761262e-05
-0.001958787442475343,0.00045087442257833103,7.642059880771656e-05
-0.0016316387266720267,0.0004499768160360442,7.664581161737016e-05
-0.0012546323917650586,0.0004492552482564349,7.687061963344328e-05
-0.0008371187173064129,0.00044873231047916703,7.709511652312719e-05
-0.00038941664333745407,0.0004484256766390061,7.731940601990672e-05
7.744335390028917e-05,0.0004483476833166468,7.754359935989564e-05
0.0005520120249532998,0.0004485050471613602,7.776781254251514e-05
0.0010227392083050394,0.0004488987349696748,7.79921634880479e-05
0.001478301080072138,0.0004495239950417691,7.821676917055076e-05
0.0019079178464421862,0.00045037054977339766,7.844174280675456e-05
0.0023016421805194787,0.0004514229397801381,7.866719117914295e-05
0.002650600681762491,0.0004526610004957086,7.88932121642119e-05
0.0029471755520823115,0.0004540604445541698,7.911989252547437e-05
0.0031851208543712795,0.0004555935186557832,7.934730601627686e-05
0.0033596151534509957,0.00045722970265773877,7.957551182160525e-05
0.0034672580775339783,0.00045893642096548503,7.980455335251105e-05
0.0035060216409940124,0.00046067974089511704,8.003445739297621e-05
