frame_number,force
0,650.5983672086307
1,650.7166034031405
2,650.8368472079173
3,650.9582948841296
4,651.0800990459098
5,651.2013867589483
6,651.321278313408
7,651.4389063286817
8,651.5534349513597
9,651.6640789592957
10,651.7701225412677
11,651.8709373653521
12,651.965999338141
13,652.0549033178555
14,652.1373750460101
15,652.2132796599299
16,652.2826262976786
17,652.3455685192399
18,652.402400525178
19,652.4535493894598
20,652.4995636991576
21,652.5410991127058
22,652.5789013969696
23,652.6137874649793
24,652.6466248457044
25,652.6783099420101
26,652.7097454146423
27,652.7418170698824
28,652.7753706925732
29,652.8111893099211
30,652.8499713874475
31,652.8923104755725
32,652.9386768519585
33,652.98940171289
34,653.0446644439642
35,653.1044834776859
36,653.1687112375366
37,653.2370336091184
38,653.308974188961
39,653.3839032733267
40,653.4610512978919
41,653.5395263047227
42,653.6183349477359
43,653.6964064839703
44,653.7726191443154
45,653.8458282701956
46,653.9148956199746
47,653.9787192229011
48,654.0362630668899
49,654.0865857969416
50,654.1288675053228
51,654.162433601739
52,654.186774707112
53,654.2015616255147
54,654.2066547219948
55,654.2021073266834
56,654.1881629907031
57,654.1652466053173
58,654.1339496958631
59,654.0950106109299
60,654.0492906752661
61,653.9977475315427
62,653.9414069191394
63,653.8813341260984
64,653.8186062515017
65,653.7542861443579
66,653.689398542574
67,653.624908724958
68,653.561703953091
69,653.5005779792921
70,653.4422188260091
71,653.3871999286841
72,653.3359746360042
73,653.2888739719282
74,653.2461074468538
75,653.207766564897
76,653.1738305569977
77,653.1441738147045
78,653.1185745149232
79,653.0967240109776
80,653.0782367206614
81,653.062660430027
82,653.0494870667283
83,653.0381640324119
84,653.0281061804363
85,653.0187085574842
86,653.0093600502685
87,652.9994579715135
88,652.988423356271
89,652.9757164388222
90,652.9608515878302
91,652.9434109502345
92,652.9230561529333
93,652.8995375515511
94,652.872700627084
95,652.8424891978724
96,652.808945174555
97,652.7722046973687
98,652.732490691753
99,652.6901021359174
100,652.6454005783991
101,652.5987945960719
102,652.5507229077557
103,652.5016367889662
104,652.4519823699914
105,652.4021834418842
106,652.3526255298108
107,652.3036420729742
108,652.2555034272375
109,652.2084090964416
110,652.1624832858816
111,652.1177737126408
112,652.0742535624439
113,652.0318264226196
114,651.9903339246043
115,651.9495657502234
116,651.909271591257
117,651.869174568447
118,651.8289855248668
119,651.7884175506941
120,651.7472001024902
121,651.7050921436509
122,651.6618937943401
123,651.6174559597299
124,651.57168730169
125,651.5245578677855
126,651.4760988722791
127,651.4263985594017
128,651.3755945836236
129,651.323863707629
130,651.2714097974703
131,651.2184511567399
132,651.1652082261077
133,651.1118925435833
134,651.0586976029247
135,651.0057919496352
136,650.9533146192211
137,650.9013728742342
138,650.850042108011
139,650.7993677376699
140,650.7493689083649
141,650.7000438762657
142,650.6513769928779
143,650.6033471886731
144,650.5559376831561
145,650.5091463824491
146,650.4629962076046
147,650.4175445383873
148,650.3728910535744
149,650.3291834114011
150,650.286620361938
151,650.2454519956677
152,650.2059769267353
153,650.1685363049514
154,650.1335046666242
155,650.1012777963579
156,650.0722580000316
157,650.0468374775486
158,650.025380787262
159,650.0082076280656
160,649.9955772286635
161,649.9876754458085
162,649.9846052435151
163,649.9863807152685
164,649.9929244635777
165,650.004068093999
166,650.0195557291169
167,650.0390506050791
168,650.062144822877
169,650.0883721448313
170,650.1172234308982
171,650.1481640442611
172,650.1806524006984
173,650.2141587437721
174,650.2481831716642
175,650.2822720349202
176,650.316032134458
177,650.3491424946857
178,650.3813636120939
179,650.4125439716156
180,650.4426235077755
181,650.4716337449423
182,650.4996945389215
183,650.5270075132495
184,650.553846371531
185,650.5805443166039
186,650.6074788966131
187,650.6350547662366
188,650.6636850631767
189,650.6937722799605
190,650.7256896017421
191,650.7597636516545
192,650.7962594400052
193,650.8353681121657
194,650.8771979047856
195,650.921768578436
196,650.9690094890091
197,651.0187613549795
198,651.0707816090858
199,651.1247529538906
200,651.1802944171633
201,651.2369739463742
202,651.29432152446
203,651.3518419777597
204,651.4090269927196
205,651.4653662061071
206,651.5203574705203
207,651.5735164904885
208,651.6243860030977
209,651.6725445936808
210,651.7176151276606
211,651.7592726406444
212,651.7972513547475
213,651.8313503329343
214,651.8614372413051
215,651.8874498195685
216,651.9093949290829
217,651.9273453487203
218,651.9414347182023
219,651.9518511554166
220,651.9588301125685
221,651.9626469841231
222,651.963609836905
223,651.9620524460853
224,651.9583276750166
225,651.9528012025069
226,651.9458456727588
227,651.9378354366198
228,651.9291420811893
229,651.9201308645632
230,651.9111579773482
231,651.902568293711
232,651.8946930571958
233,651.8878468695194
234,651.8823234696195
235,651.8783900901766
236,651.8762805513268
237,651.8761875674077
238,651.8782549488435
239,651.8825704693922
240,651.8891601223145
241,651.8979843297692
242,651.908936470287
243,651.9218438892656
244,651.9364713515946
245,651.9525266972091
246,651.9696683035675
247,651.9875138621197
248,652.0056499506152
249,652.0236419486557
250,652.0410439861562
251,652.0574087526385
252,652.0722970466462
253,652.0852869024968
254,652.095982052108
255,652.1040194532052
256,652.1090757352551
257,652.110872676307
258,652.109182094955
259,652.1038306753921
260,652.0947051579928
261,652.0817580155385
262,652.0650133029519
263,652.0445720102152
264,652.0206160949368
265,651.993410406667
266,651.9633018608835
267,651.9307154517969
268,651.8961470442225
269,651.8601533355638
270,651.8233397611431
271,651.7863472129069
272,651.7498382013359
273,651.7144826792837
274,651.6809434110273
275,651.6498607003253
276,651.6218365324595
277,651.5974185966298
278,651.5770850004353
279,651.5612305925721
280,651.5501556421129
281,651.5440572860755
282,651.5430238186567
283,651.5470316860935
284,651.5559450025476
285,651.5695174596123
286,651.5873965859946
287,651.6091303833357
288,651.6341764216766
289,651.6619135245581
290,651.6916561635318
291,651.7226715399538
292,651.7541990344016
293,651.7854713234607
294,651.8157361202306
295,651.8442772799037
296,651.8704339617788
297,651.8936166703761
298,651.9133193249079
299,651.9291269827968
300,651.9407193368247
301,651.947870486697
302,651.9504457052192
303,651.9483959811834
304,651.9417510529576
305,651.9306115151517
306,651.915140461144
307,651.8955550355442
308,651.8721181855814
309,651.8451308069709
310,651.8149243947661
311,651.7818542668442
312,651.7462934543363
313,651.7086274042703
314,651.6692495967533
315,651.628557982416
316,651.5869518890426
317,651.5448289009956
318,651.5025812719101
319,651.4605916244517
320,651.4192278963806
321,651.3788376666104
322,651.3397421495912
323,651.30223024211
324,651.2665529998274
325,651.2329188612142
326,651.201489906728
327,651.1723794429278
328,651.145651176542
329,651.1213201539676
330,651.0993554743064
331,651.079684542707
332,651.0621983798733
333,651.0467573605998
334,651.0331967849118
335,651.0213318489399
336,651.0109617971733
337,651.0018732423608
338,650.9938427924195
339,650.9866392056482
340,650.9800253208631
341,650.9737600070405
342,650.9676003572857
343,650.9613042927776
344,650.9546336358106
345,650.9473576169048
346,650.9392567677735
347,650.9301271870567
348,650.9197851537612
349,650.9080719858088
350,650.8948589654339
351,650.8800521082945
352,650.863596492619
353,650.845479772186
354,650.8257344334519
355,650.8044383630596
356,650.781713335515
357,650.7577211102187
358,650.7326570202873
359,650.7067412619692
360,650.6802084264089
361,650.6532960262443
362,650.6262328579364
363,650.5992280629274
364,650.5724617287809
365,650.5460778022293
366,650.5201799436745
367,650.4948306919958
368,650.4700539327642
369,650.4458402684012
370,650.4221546043432
371,650.398945149198
372,650.3761530413327
373,650.3537219020734
374,650.3316067541787
375,650.3097818980885
376,650.288247430474
377,650.2670340817973
378,650.2462060022162
379,650.2258611324092
380,650.2061289124954
381,650.187165317543
382,650.1691455207888
383,650.1522547801976
384,650.1366783219935
385,650.1225910172375
386,650.1101475482109
387,650.0994736170978
388,650.0906586205405
389,650.0837500944361
390,650.0787500912559
391,650.0756135118132
392,650.074248333692
393,650.0745176569163
394,650.0762434694376
395,650.0792119934165
396,650.0831804203661
397,650.0878848185885
398,650.093049045792
399,650.0983945796946
400,650.1036511428649
401,650.1085677906043
402,650.1129239088058
403,650.1165395120614
404,650.1192843333363
405,650.1210853253444
406,650.1219322770529
407,650.1218813046623
408,650.1210560487041
409,650.1196465250332
410,650.117905714565
411,650.1161440639568
412,650.1147220863438
413,650.1140412807812
414,650.1145337112663
415,650.1166507617811
416,650.1208516851854
417,650.1275925030085
418,650.137315626418
419,650.1504403813683
420,650.1673545383603
421,650.1884069706754
422,650.2139016052972
423,650.2440928152022
424,650.2791823457039
425,650.3193178142511
426,650.3645927622997
427,650.4150481274278
428,650.4706748364422
429,650.531417037728
430,650.5971753536842
431,650.6678095040409
432,650.7431397769037
433,650.8229470910511
434,650.9069717154778
435,650.9949110202151
436,651.086416899744
437,651.181093679356
438,651.2784973045116
439,651.3781364357703
440,651.4794758337345
441,651.5819422016235
442,651.68493248587
443,651.7878245194494
444,651.8899897745399
445,651.990807796729
446,652.0896816531692
447,652.1860535699054
448,652.2794199192662
449,652.3693447654675
450,652.4554711926309
451,652.5375296562338
452,652.615342711439
453,652.6888256942269
454,652.7579832091063
455,652.8229015871201
456,652.8837378065722
457,652.9407056371629
458,652.9940598921546
459,653.0440796721765
460,653.0910514475532
461,653.1352528060579
462,653.176937667381
463,653.2163236717845
464,653.2535822674282
465,653.2888318189196
466,653.322133920538
467,653.3534930181853
468,653.3828593578194
469,653.4101351085164
470,653.4351832098981
471,653.4578381442759
472,653.4779176479683
473,653.4952344944903
474,653.509607782839
475,653.5208734055634
476,653.5288934731915
477,653.533564521676
478,653.5348243673945
479,653.5326574320128
480,653.5270982261803
481,653.5182325827775
482,653.5061962840472
483,653.4911709077953
484,653.4733769399854
485,653.4530644285343
486,653.4305016653951
487,653.4059625501585
488,653.3797134242019
489,653.3520003000635
490,653.3230375074133
491,653.2929987753962
492,653.2620116693237
493,653.2301561030367
494,653.1974673198056
495,653.1639432792157
496,653.1295559128665
497,653.0942653194909
498,653.0580356646284
499,653.0208513366586
500,652.9827318717263
501,652.9437443366112
502,652.9040121657408
503,652.8637197721737
504,652.8231125569666
505,652.7824922532789
506,652.7422078753511
507,652.7026428677758
508,652.6641993239294
509,652.6272803324817
510,652.5922715790764
511,652.559523257591
512,652.5293331826778
513,652.5019318164346
514,652.4774697654339
515,652.4560082073051
516,652.437512695017
517,652.4218507916976
518,652.408793880267
519,652.3980232374198
520,652.3891401563023
521,652.3816796494118
522,652.3751270946016
523,652.3689370908796
524,652.3625537379249
525,652.3554315012474
526,652.3470557560021
527,652.3369620472131
528,652.3247530946227
529,652.3101126207196
530,652.2928152328165
531,652.2727319011228
532,652.2498310295556
533,652.2241755945486
534,652.1959171621887
535,652.1652876759009
536,652.1325897749743
537,652.0981862216873
538,652.0624889129563
539,652.0259479187234
540,651.9890409368104
541,651.9522634599921
542,651.9161198574423
543,651.8811154736644
544,651.8477496894063
545,651.8165096975787
546,651.7878646443912
547,651.7622598336856
548,651.7401108322626
549,651.7217974868228
550,651.7076580725115
551,651.6979840238554
552,651.6930158582506
553,651.692940867667
554,651.6978928960494
555,651.7079541774893
556,651.723158961535
557,651.7434985185021
558,651.7689270153787
559,651.7993676848804
560,651.8347187638667
561,651.874858856295
562,651.9196515522888
563,651.9689491928806
564,652.0225956368934
565,652.0804278863578
566,652.1422765243431
567,652.2079650494736
568,652.277308265613
569,652.3501099120707
570,652.4261597647122
571,652.5052305233788
572,652.5870749147718
573,652.6714235625611
574,652.7579842372621
575,652.8464430115004
576,652.9364676263089
577,653.0277131270392
578,653.1198296180254
579,653.2124717910923
580,653.305309683141
581,653.3980399505457
582,653.4903968517026
583,653.5821620957189
584,653.6731727493097
585,653.7633265374351
586,653.8525841124884
587,653.940968098331
588,654.028558864355
589,654.1154871005257
590,654.2019234518096
591,654.2880657556647
592,654.3741247179732
593,654.4603090337873
594,654.5468109547725
595,654.6337931684774
596,654.7213776559865
597,654.8096369827443
598,654.8985883068739
599,654.9881903035009
600,655.0783431587395
601,655.1688916898152
602,655.259631484263
603,655.3503178022738
604,655.4406769277668
605,655.5304196708481
606,655.6192567021455
607,655.7069152275668
608,655.7931562220217
609,655.8777911766339
610,655.9606971705708
611,656.0418290576138
612,656.1212276615482
613,656.1990231319257
614,656.2754330057578
615,656.3507549726033
616,656.4253547702131
617,656.499650010867
618,656.5740910663559
619,656.6491404273967
620,656.7252521405876
621,656.8028529122496
622,656.8823262110991
623,656.9640002791725
624,657.0481405225594
625,657.1349463960802
626,657.2245526021267
627,657.317034134279
628,657.4124144105097
629,657.5106755441572
630,657.6117697970053
631,657.7156314501149
632,657.8221885653824
633,657.9313742068395
634,658.0431365966182
635,658.1574475345286
636,658.2743084061502
637,658.3937533126059
638,658.5158491863177
639,658.640693081302
640,658.7684070720614
641,658.8991313537998
642,659.0330162348195
643,659.1702137496779
644,659.3108695400205
645,659.4551154215159
646,659.6030627749215
647,659.7547967071021
648,659.9103708761432
649,660.0698029160195
650,660.2330704581602
651,660.4001077927994
652,660.5708032515786
653,660.744997447592
654,660.9224825827042
655,661.1030031033184
656,661.2862580116634
657,661.4719050562244
658,661.6595667966462
659,661.8488382245775
660,662.0392953540298
661,662.2305040755643
662,662.4220285958163
663,662.6134388663788
664,662.8043164785953
665,662.9942586044327
666,663.1828797536141
667,663.3698113557002
668,663.5546994107134
669,663.7372007220685
670,663.9169785743549
671,664.0936990436726
672,664.2670292070002
673,664.436638193925
674,664.6022013623567
675,664.7634071446226
676,664.9199656017412
677,665.0716175842291
678,665.2181435397945
679,665.3593712200816
680,665.495181676988
681,665.6255130222527
682,665.7503615450174
683,665.869779975016
684,665.9838728903666
685,666.0927894245563
686,666.1967135193071
687,666.2958520810619
688,666.3904216034451
689,666.4806340621569
690,666.5666830161961
691,666.6487307554899
692,666.7268970731828
693,666.8012499764831
694,666.8717985111759
695,666.938487848251
696,667.0011967557854
697,667.059737483834
698,667.1138579697638
699,667.1632462183176
700,667.2075367386597
701,667.2463189481351
702,667.2791473968769
703,667.3055535173888
704,667.3250583990659
705,667.3371858816886
706,667.3414751359452
707,667.3374919529818
708,667.3248382090678
709,667.3031592879208
710,667.2721495126087
711,667.2315558327331
712,667.1811801401724
713,667.1208806406954
714,667.0505726927121
715,666.9702294678339
716,666.8798826995375
717,666.7796236506128
718,666.6696042895965
719,666.5500386240972
720,666.421204213155
721,666.2834439327655
722,666.1371679548872
723,665.9828556513985
724,665.8210569235188
725,665.6523924178888
726,665.4775521961318
727,665.2972925290619
728,665.1124304921394
729,664.9238360194287
730,664.7324211852214
731,664.5391267721063
732,664.3449065509253
733,664.1507100116224
734,663.9574644711658
735,663.7660575330491
736,663.577320805488
737,663.3920156234595
738,663.2108212742082
739,663.0343259397313
740,662.8630203217003
741,662.6972937627339
742,662.537432635952
743,662.3836208115065
744,662.2359420592551
745,662.0943842709456
746,661.9588453923006
747,661.8291409468262
748,661.7050130083126
749,661.5861404804638
750,661.4721506029236
751,661.3626316859647
752,661.2571471038247
753,661.1552504835736
754,661.0565018136228
755,660.9604839613272
756,660.8668189551946
757,660.7751834035541
758,660.6853225442125
759,660.5970625401941
760,660.5103206534127
761,660.4251128350163
762,660.3415581503018
763,660.2598793923829
764,660.1803992894589
765,660.1035319169129
766,660.029769284478
767,659.9596634992292
768,659.8938052892886
769,659.8327999502501
770,659.7772419637147
771,659.7276896523139
772,659.684641268927
773,659.6485138898578
774,659.6196264271936
775,659.5981879471849
776,659.5842921563183
777,659.5779183463846
778,659.5789384005357
779,659.587128877904
780,659.6021868823715
781,659.6237483984918
782,659.6514079252095
783,659.684738402937
784,659.7233105266746
785,659.7667105753003
786,659.8145559255789
787,659.8665075213894
788,659.922278769499
789,659.9816406172154
790,660.0444228653383
791,660.1105120157956
792,660.1798461361417
793,660.2524073586114
794,660.32821270891
795,660.4073039590584
796,660.489737144151
797,660.5755723286672
798,660.6648641772289
799,660.757653867958
800,660.8539628635334
801,660.9537889870552
802,661.057105094579
803,661.1638603920212
804,661.2739841660433
805,661.3873914702053
806,661.5039901911852
807,661.6236889209565
808,661.7464051444161
809,661.8720733795832
810,662.0006530440975
811,662.1321359202724
812,662.2665530983871
813,662.4039811750837
814,662.5445473219687
815,662.6884327218551
816,662.8358738854762
817,662.9871615357381
818,663.1426370335064
819,663.3026866077835
820,663.4677338114902
821,663.6382306092894
822,663.8146474248259
823,663.9974624641719
824,664.1871506915095
825,664.3841728774678
826,664.5889651256758
827,664.8019292114077
828,665.0234239268424
829,665.2537574033861
830,665.4931801346396
831,665.741878316274
832,665.9999672654833
833,666.2674850038737
834,666.5443863759236
835,666.8305381686649
836,667.1257155821291
837,667.429600203318
838,667.7417795290568
839,668.0617481222041
840,668.3889105835998
841,668.722586576354
842,669.0620181143495
843,669.4063792140468
844,669.754787815927
845,670.1063196712931
846,670.4600237432991
847,670.8149386196934
848,671.1701094609828
849,671.5246050838905
850,671.8775348630394
851,672.2280651445525
852,672.5754347507219
853,672.9189689820785
854,673.2580914386897
855,673.5923330563925
856,673.921337918603
857,674.2448655613883
858,674.5627896166153
859,674.8750927772522
860,675.1818582629198
861,675.483258217873
862,675.779539726068
863,676.0710092695125
864,676.3580164322408
865,676.6409375141628
866,676.9201595451516
867,677.1960650121339
868,677.4690174394938
869,677.7393478418804
870,678.0073420836349
871,678.2732293658181
872,678.5371723334059
873,678.799259498707
874,679.0595007114571
875,679.3178262775386
876,679.5740901134576
877,679.82807708036
878,680.0795143539121
879,680.3280863269865
880,680.5734521825183
881,680.8152650625022
882,681.0531917583644
883,681.2869319715192
884,681.5162363214956
885,681.7409223598071
886,681.9608878892561
887,682.1761209332317
888,682.3867057993604
889,682.5928248624108
890,682.7947559295882
891,682.9928652864039
892,683.1875967099687
893,683.3794568953742
894,683.5689979066108
895,683.756797433139
896,683.943437765105
897,684.1294844577941
898,684.3154656398658
899,684.5018528500019
900,684.6890441577609
901,684.8773501169111
902,685.0669828440086
903,685.2580483072248
904,685.450541824539
905,685.6443467808956
906,685.8392366048176
907,686.0348800613272
908,686.2308499126875
909,686.426634931505
910,686.6216550768773
911,686.8152793865427
912,687.0068458753303
913,687.1956825205842
914,687.3811282819892
915,687.562553080757
916,687.7393757967053
917,687.9110796296432
