acceleration,velocity,displacement
-0.01686620424785906,0.0,0.0
-0.01552017858411116,-8.096595707992554e-06,-2.0241489269981387e-09
-0.014157565247700314,-1.5516031665945424e-05,-7.927305770482634e-09
-0.012781125241767336,-2.2250704288312337e-05,-1.7368989759047074e-08
-0.011393639325894647,-2.8294395430227832e-05,-3.000526468868212e-08
-0.009997887742869962,-3.3642277197418984e-05,-4.548943284559382e-08
-0.008596630480601667,-3.829090675328689e-05,-6.347272883327028e-08
-0.007192588331483217,-4.223821145630811e-05,-8.360500838566903e-08
-0.005788424969721188,-4.548346478160921e-05,-1.0553542744514836e-07
-0.004386730237106794,-4.80272535833162e-05,-1.289131070363797e-07
-0.0029900048212009867,-4.987143734789315e-05,-1.5338777976918203e-07
-0.0016006465324442706,-5.1019100186304464e-05,-1.7861041415273142e-07
-0.00022093842220133065,-5.147449642496586e-05,-2.0423381330554901e-07
0.0011469610024941546,-5.1242990779892653e-05,-2.2991318510676364e-07
0.0025010252384388646,-5.03309942196594e-05,-2.5530668135665165e-07
0.0038393647452947396,-4.8745896723725997e-05,-2.80075904092498e-07
0.005160229298384843,-4.64959982128061e-05,-3.03886377826631e-07
0.006462007715806557,-4.359043895925825e-05,-3.264079871196471e-07
0.007743225038487133,-4.003913077068483e-05,-3.4731537955213285e-07
0.009002537332408987,-3.58526901779608e-05,-3.6628833478929423e-07
0.010238724354407286,-3.1042374756256726e-05,-3.830121010228486e-07
0.011450680376818833,-2.5620023573450197e-05,-3.971777006052753e-07
0.012637403497665024,-1.9598002604829232e-05,-4.084822071498452e-07
0.013797983766874706,-1.29891557886943e-05,-4.166289967482261e-07
0.014931590444717308,-5.806762235796295e-06,-4.2132797625434874e-07
0.01603745869452071,1.9355000490132086e-06,-4.222957918010445e-07
0.01711487600921914,1.0223583724948173e-05,-4.192560208575542e-07
0.018163168680679763,1.90430948974229e-05,-4.119393512019614e-07
0.01918168863249618,2.8379309225716885e-05,-4.0008375017117643e-07
0.02016980093871672,3.821718161852011e-05,-3.834346274601172e-07
0.02112687234097295,4.854134993844253e-05,-3.617449945708765e-07
0.022052261062905042,5.933613328941203e-05,-3.3477562376391285e-07
0.02294530820640931,7.058552560674062e-05,-3.022952090398747e-07
0.02380533099165781,8.22731854062574e-05,-2.640805312866252e-07
0.02463161806901652,9.438242267142598e-05,-2.1991662926720435e-07
0.025423427095385094,0.00010689618396252638,-1.6959697760871626e-07
0.02617998473458877,0.00011979703692001985,-1.129236723880797e-07
0.0269004891937011,0.00013306715540209232,-4.970762430755165e-08
0.027584115323141856,0.00014668830653130307,2.0231241175797207e-08
0.02823002219761269,0.0001606418409114917,9.70637780364959e-08
0.028837362995933376,0.0001749086872098782,1.8095141006683839e-07
0.029405296933504077,0.00018946935219223758,2.720459199173673e-07
0.02993300295866033,0.0002043039271652787,3.7048923975674635e-07
0.030419694885484967,0.000219392101626315,4.7641324695464476e-07
0.03086463760348101,0.0002347131847485565,5.899395685483626e-07
0.03126716398953068,0.0002502461351468094,7.11179398522204e-07
0.0316266921437872,0.0002659695991801389,8.402333321039411e-07
0.031942742560075676,0.0002818619578561046,9.77191221363002e-07
0.03221495481682579,0.00029790138220032997,1.1221320563771108e-06
0.03244310334976271,0.0003140658967419771,1.2751238761126877e-06
0.03262711185128576,0.0003303334505422392,1.4362237129337417e-06
0.03276706583026244,0.00034668199496262623,1.605477574309958e-06
0.03286322287230249,0.0003630895671382675,1.7829204648351815e-06
0.03291602019374239,0.0003795343779047787,1.968576451095943e-06
0.03292607918394106,0.00039599490274919955,2.1624587712594374e-06
0.03289420673982977,0.00041244997423014226,2.364569990504273e-06
0.0328213932834248,0.0004288788742359559,2.5749022026207975e-06
0.03270880743564646,0.0004452614244157237,2.7934372772837173e-06
0.03255778743460108,0.0004615780731332856,3.0201471516709697e-06
0.03236982953138447,0.00047780997737478196,3.2549941642979864e-06
0.03214657372348538,0.0004939390781884994,3.4979314281888067e-06
0.031889787258052915,0.000509948168433884,3.7489032398444023e-06
0.03160134637020512,0.0005258209518409485,4.0078455199131104e-06
0.03128321674198012,0.0005415420926189948,4.2746862810280965e-06
0.030937433160651794,0.0005570972550946528,4.549346117956509e-06
0.030566078796816526,0.0005724731330840198,4.831738715001177e-06
0.030171264440652695,0.0005876574688933871,5.121771365495529e-06
0.029755107985531153,0.000602639061999933,5.4193454982188585e-06
0.029319714443327444,0.0006174077676071477,5.724357205620629e-06
0.02886715677682175,0.000631954485412185,6.0366977688754624e-06
0.02839945781205895,0.0006462711390594052,6.35625417499336e-06
0.02791857345550616,0.0006603506468762964,6.682909621477285e-06
0.027426377403412288,0.0006741868845910261,7.016544004344116e-06
0.026924647492609283,0.0006877746408150315,7.357034385695631e-06
0.026415053793349505,0.0007011095661365212,7.704255437433518e-06
0.025899148487192426,0.0007141881167066567,8.058079858144313e-06
0.025378357519994704,0.0007270074932084536,8.41837876062309e-06
0.024853973982932907,0.0007395655760841854,8.78502202794625e-06
0.024327153156008186,0.0007518608578689207,9.157878636434526e-06
0.0237989091489406,0.0007638923734451579,9.536816944263046e-06
0.02327011309439503,0.0007756596290059918,9.921704944875833e-06
0.02274149287817295,0.0007871625304991338,1.0312410484752114e-05
0.022213634406897224,0.0007984013123204013,1.0708801445456998e-05
0.021686984403194227,0.0008093764670229242,1.1110745890292829e-05
0.02116185469891526,0.0008200886767984517,1.1518112176248173e-05
0.020638427989199015,0.0008305387474704803,1.1930769032315406e-05
0.02011676500201577,0.000840727545718284,1.2348585605612597e-05
0.01959681299608708,0.0008506559402178097,1.2771431477096621e-05
0.01907841541734273,0.0008603247473211672,1.3199176648981365e-05
0.01856132245353249,0.000869734681788886,1.363169150625888e-05
0.018045202168746503,0.0008788863129444558,1.4068846754942215e-05
0.01752965189022372,0.0008877800264591983,1.4510513339793128e-05
0.01701420954790663,0.0008964159918187309,1.4956562344362611e-05
0.01649836470904304,0.0009047941353829683,1.5406864876163035e-05
0.015981569085989057,0.0009129141188317263,1.5861291939716707e-05
0.015463246320493937,0.000920775322683347,1.6319714300095476e-05
0.014942800872474134,0.000928376834481589,1.678200233938671e-05
0.014419625881488601,0.0009357174411700797,1.7248025908299626e-05
0.01389310993373373,0.0009427956251238853,1.771765417487312e-05
0.013362642749379348,0.0009496095632946636,1.8190755471977755e-05
0.012827619883548535,0.0009561571289528956,1.8667197145039645e-05
0.01228744658696014,0.0009624358955705228,1.91468454011705e-05
0.01174154098891915,0.0009684431424644926,1.9629565160679253e-05
0.011189336755120188,0.0009741758619005024,2.0115219911770502e-05
0.010630285363344818,0.0009796307674301188,2.0603671569103156e-05
0.010063858159029257,0.0009848043033107124,2.1094780336788366e-05
0.009489548396174937,0.0009896926549495134,2.158840457635342e-05
0.008906873495944915,0.0009942917604225433,2.2084400680196433e-05
0.008315377724497985,0.000998597323227654,2.2582622951108983e-05
0.007714635407576226,0.0010026048265106727,2.3082923488543564e-05
0.007104254713419199,0.0010063095490409216,2.3585152082431462e-05
0.00648388199145423,0.00100970658321714,2.4089156115495977e-05
0.005853206640751236,0.0010127908553751912,2.459478047514406e-05
0.0052119664639248995,0.0010155571486513601,2.51018674761507e-05
0.004559953433165882,0.0010180001286256327,2.5610256795469946e-05
0.003897019770566816,0.0010201143719265659,2.6119785420607995e-05
0.0032230842241116253,0.0010218943979252355,2.6630287613070947e-05
0.0025381383947689754,0.0010233347035799557,2.7141594888447246e-05
0.0018422529422178935,0.0010244298014142025,2.7653536014695785e-05
0.0011355834783714947,0.0010251742605193498,2.8165937030179173e-05
0.0004183759577518053,0.0010255627503783806,2.8678621282903605e-05
-0.0003090286098235197,0.0010255900872153626,2.919140949230204e-05
-0.001046190282296961,0.0010252512824923325,2.9704119834728965e-05
-0.001792567307670788,0.0010245415930948405,3.0216568053625758e-05
-0.0025475144372899346,0.0010234565726586003,3.072856759506412e-05
-0.003310282634849782,0.0010219921233905653,3.123992976907641e-05
-0.004080020333727656,0.001020144547648421,3.175046393683616e-05
-0.004855776271729893,0.0010179105984970565,3.225997772337253e-05
-0.005636503789173304,0.0010152875284818307,3.276827725511725e-05
-0.006421066371282099,0.0010122731359417168,3.3275167421223135e-05
-0.007208244162620952,0.0010088658083082412,3.3780452157285624e-05
-0.007996741160328509,0.0010050645619775038,3.4283934749857064e-05
-0.008785192793447841,0.0010008690784890596,3.47854181599737e-05
-0.00957217362819898,0.000996279736883648,3.528470536381688e-05
-0.010356205006990476,0.0009912976422248505,3.5781599708594005e-05
-0.011135762508108691,0.0009859246503460756,3.6275905281736734e-05
-0.011909283174566604,0.0009801633889254067,3.6767427291554606e-05
-0.012675172498231848,0.0009740172750072071,3.7255972457537756e-05
-0.013431811166488143,0.0009674905290910271,3.7741349408562315e-05
-0.014177561587940606,0.0009605881859024198,3.822336908731068e-05
-0.014910774210516398,0.0009533161019528055,3.870184515927448e-05
-0.015629793629546068,0.0009456809599927899,3.9176594424760884e-05
-0.016332964465026648,0.0009376902704691467,3.964743723237637e-05
-0.017018636991194894,0.0009293523701050913,4.011419789251993e-05
-0.017685172546290987,0.0009206764177207198,4.057670508947639e-05
-0.018330948821861384,0.0009116723873786817,4.1034792290751236e-05
-0.018954365189138365,0.0009023510588759318,4.148829815231489e-05
-0.019553848234222196,0.0008927240055200917,4.193706691841389e-05
-0.020127857645250838,0.0008828035790502234,4.2380948814556475e-05
-0.02067489254813367,0.0008726028915018773,4.28198004321945e-05
-0.021193498345423882,0.0008621357937784879,4.3253485103514596e-05
-0.021682274081313752,0.0008514168506718035,4.3681873264627166e-05
-0.02213988032999427,0.0008404613120689765,4.410484280531236e-05
-0.022565047579183914,0.0008292850800916819,4.4522279403352524e-05
-0.022956585050394794,0.0008179046719342872,4.4934076841359014e-05
-0.02331338985533809,0.000806337178207854,4.534013730389455e-05
-0.02363445632826173,0.0007946002166619541,4.5740371652612e-05
-0.02391888529853337,0.0007827118812552554,4.61346996770913e-05
-0.024165892989137922,0.0007706906866833376,4.652305031907595e-05
-0.02437481916812176,0.0007585555086440227,4.690536186790779e-05
-0.024545134169713604,0.0007463255203095638,4.7281582125146186e-05
-0.024676444461992037,0.0007340201256516374,4.7651668536636486e-05
-0.02476849656600777,0.0007216588903946374,4.8015588290648055e-05
-0.024821179281946076,0.0007092614714326489,4.837331838110488e-05
-0.024834524283497493,0.0006968475455412879,4.872484563534836e-05
-0.024808705166363958,0.0006844367381788226,4.907016670627839e-05
-0.02474403500406829,0.0006720485531362145,4.940928802910715e-05
-0.024640962428422886,0.0006597023037780917,4.9742225743335726e-05
-0.024500066256591194,0.0006474170466068382,5.006900558093196e-05
-0.024322048743402935,0.0006352115178568398,5.038966272204788e-05
-0.02410772762498455,0.0006231040737647429,5.070424161995328e-05
-0.023858027197330416,0.0006111126350591641,5.1012795797159255e-05
-0.02357396871895201,0.0005992546360800936,5.131538761494407e-05
-0.023256660453340704,0.0005875469787870204,5.161208801866085e-05
-0.02290728768215047,0.0005760059917531476,5.190297626129589e-05
-0.022527102991958748,0.0005646473940846202,5.218813960775533e-05
-0.022117417047823162,0.0005534862640746747,5.246767302229515e-05
-0.02167958996610153,0.0005425370123211936,5.274167884139412e-05
-0.02121502335835784,0.0005318133589900788,5.301026643422194e-05
-0.02072515314161119,0.0005213283148650865,5.327355185268573e-05
-0.020211443234940254,0.0005110941657709486,5.353165747284474e-05
-0.019675380238846765,0.0005011224599025019,5.3784711629263104e-05
-0.019118469133612877,0.000491423997559387,5.4032848243628577e-05
-0.01854222997763824,0.00048200882278157423,5.427620644871382e-05
-0.01794819555495903,0.0004728862163984249,5.451493020850882e-05
-0.017337909900778197,0.0004640646900344906,5.4749167935117046e-05
-0.016712927603294993,0.0004555519806584723,5.497907210279029e-05
-0.016074813728718107,0.000447355045325469,5.520479885928627e-05
-0.015425144154121094,0.0004394800558547592,5.542650763458133e-05
-0.014765506040754996,0.0004319323933060402,5.564436074687153e-05
-0.014097498154858001,0.00042471664225713696,5.585852300576232e-05
-0.013422730752092308,0.0004178365850303994,5.60691613125842e-05
-0.012742824784722396,0.0004112951961461957,5.627644425787835e-05
-0.012059410250537153,0.0004050946373873808,5.648054171626174e-05
-0.011374123559295282,0.0003992362539349227,5.6681624439092314e-05
-0.010688603838053567,0.00039372057208558547,5.687986364559744e-05
-0.010004488133314586,0.0003885472990927434,5.707543061339202e-05
-0.009323405504998609,0.0003837153256831651,5.7268496269586e-05
-0.008646970062255472,0.00037922273179135155,5.745923078395463e-05
-0.007976773074269842,0.0003750667960072202,5.764780316590427e-05
-0.007314374387268344,0.0003712440091418357,5.783438086719154e-05
-0.006661293457928231,0.00036775009218053655,5.8019129392522136e-05
-0.0060190003361935826,0.0003645800187320061,5.820221192025027e-05
-0.0053889068839204175,0.0003617280419269776,5.838378893541502e-05
-0.004772358424334653,0.00035918772559991383,5.856401787729674e-05
-0.004170625923876285,0.0003569519795128611,5.874305280357493e-05
-0.0035848987439326295,0.0003550130983459089,5.8921044073039625e-05
-0.0030162779742599452,0.00035336280416636075,5.9098138048667694e-05
-0.002465770364499531,0.0003519922920816709,5.92744768227297e-05
-0.0019342828903242608,0.00035089227876796493,5.945019796544211e-05
-0.0014226180166056154,0.00035005305354123245,5.962543429851941e-05
-0.000931469752336307,0.000349464531598997,5.980031369480446e-05
-0.00046142063282180725,0.00034911630900270744,5.997495890495489e-05
-1.2939799083469071e-05,0.0003489977188947311,6.014948741192925e-05
0.00041361765407985627,0.0003490978883584802,6.032401131374255e-05
0.0008180099372452806,0.0003494057952563115,6.049863723464625e-05
0.0012001063952743697,0.0003499103243394414,6.067346626454519e-05
0.0015598839643520513,0.00035060032192934805,6.084859392611238e-05
0.0018974223917639927,0.00035146464851837703,6.102411016872431e-05
0.0022128984005805583,0.0003524922287164632,6.120009938803302e-05
0.002506579004055775,0.00035367209806762224,6.137664046972904e-05
0.002778814171373583,0.0003549934463614796,6.155380685583632e-05
0.003030029017233877,0.00035644565715863143,6.173166663171635e-05
0.0032607156452197097,0.00035801834332424483,6.191028263183706e-05
0.0034714247424444612,0.00035970137842116087,6.208971256227342e-05
0.0036627570200326795,0.0003614849238617801,6.227000913784415e-05
0.003835354618957639,0.0003633594517715277,6.245122023175247e-05
0.003989892630023394,0.00036531576358377293,6.26333890355913e-05
0.004127070886127843,0.00036734500446281075,6.281655422760294e-05
0.0042476061621917836,0.00036943867372489064,6.300075014714987e-05
0.004352224861531294,0.0003715886314808214,6.318600697345129e-05
0.004441656191259202,0.000373787101744019,6.33723509067575e-05
0.004516625762746046,0.0003760266722325203,6.355980435025164e-05
0.004577849523959304,0.0003783002910541966,6.374838609107332e-05
0.0046260279541872696,0.00038060126042373325,6.39381114789428e-05
0.004661840524229591,0.00038292322754333744,6.412899260093457e-05
0.004685940516447322,0.00038526017280350665,6.432103845102128e-05
0.004698950373715015,0.0003876063955260472,6.451425509310366e-05
0.004701457789400748,0.0003899564975668262,6.470864581637688e-05
0.004694012760173872,0.00039230536520421986,6.490421128206964e-05
0.004677125795174955,0.00039464814984305706,6.510094966083146e-05
0.00465126741543381,0.00039698024814570923,6.529885676032864e-05
0.004616869006784727,0.0003992972822512639,6.549792614292788e-05
0.004574325019291755,0.000401595080757783,6.569814923368013e-05
0.004523996435082612,0.00040386966112137656,6.589951541914992e-05
0.004466215358572365,0.0004061172140697903,6.610201213794771e-05
0.004401290528067457,0.00040833409054145026,6.630562496410051e-05
0.0043295135110062825,0.0004105167915512187,6.651033768462368e-05
0.0042511653301666175,0.00041266196126151194,6.671613237282687e-05
0.004166523280544539,0.0004147663834141897,6.69229894589958e-05
0.0040758677325345065,0.0004168269811674595,6.713088780014121e-05
0.003979488754170028,0.00041884082028913563,6.733980475050536e-05
0.0038776924005260367,0.00042080511557780965,6.75497162344721e-05
0.003770806510207562,0.00042271724030549303,6.776059682344292e-05
0.003659185832605767,0.0004245747383911964,6.79724198181171e-05
0.0035432163105350543,0.0004263753389269816,6.818515733744665e-05
0.0034233183866790255,0.0004281169726012851,6.83987804153287e-05
0.003299949287666228,0.0004297977895198714,6.861325910585899e-05
0.0031736043293775556,0.00043141617792413235,6.882856259772e-05
0.003044817340277349,0.00043297078334154606,6.904465933803641e-05
0.0029141602931172525,0.0004344605277498947,6.926151716580927e-05
0.0027822421668197554,0.00043588462836487894,6.947910345483796e-05
0.0026497069591377314,0.0004372426156463683,6.969738526584078e-05
0.0025172306904013278,0.00043853435005875306,6.991632950726705e-05
0.0023855172153301562,0.00043976003703518593,7.013590310404053e-05
0.0022552926886862633,0.00044092023951119004,7.035607317317713e-05
0.002127298589095011,0.0004420158873306354,7.057680720488759e-05
0.002002283286551256,0.00044304828279954694,7.079807324742014e-05
0.0018809922520183246,0.0004440191016841893,7.101984009354107e-05
0.0017641571462989104,0.00044493038903376864,7.124207746622057e-05
0.001652484142782022,0.00044578454935603886,7.146475620081802e-05
0.0015466418741793143,0.0004465843308602792,7.16878484208721e-05
0.001447249332490262,0.0004473328036619466,7.191132770450265e-05
0.0013548639400120836,0.0004480333319800722,7.213516923841316e-05
0.0012699699159024597,0.00044868954044405084,7.235934995651918e-05
0.0011929670403458765,0.00044930527468311295,7.258384866030098e-05
0.0011241599792842312,0.00044988455643802045,7.280864611808126e-05
0.0010637484379883056,0.00045043153354233856,7.303372514057636e-05
0.0010118184957041152,0.0004509504252757617,7.325907063028088e-05
0.0009683354880411321,0.000451445463771698,7.348466960254274e-05
0.0009331387399520952,0.0004519208323286963,7.371051117656784e-05
0.0009059383393067903,0.00045238060159851097,7.393658653504965e-05
0.0008863140260860014,0.00045282866468985915,7.416288885162174e-05
0.0008737161916596243,0.00045326867224429555,7.438941318585528e-05
0.0008674689460068113,0.00045370396852871216,7.461615634604853e-05
0.0008667752030420735,0.00045413752956597437,7.48431167205722e-05
0.0008707237340572547,0.0004545719043002492,7.507029407903876e-05
0.0008782981355227458,0.0004550091597676442,7.529768934505574e-05
0.0008883876514333591,0.0004554508312143832,7.552530434280124e-05
0.0008997997826013514,0.0004558978780728919,7.575314152012306e-05
0.0009112745935948445,0.0004563506466669409,7.598120365130802e-05
0.0009215005718281031,0.00045680884045829666,7.620949352308933e-05
0.0009291317963366804,0.0004572714985503379,7.643801360784149e-05
0.0009328060564138709,0.0004577369830135255,7.666676572823245e-05
0.0009311634563721921,0.000458202975391722,7.689575071783376e-05
0.0009228649774303075,0.0004586664825001726,7.712496808230674e-05
0.0009066104516859106,0.0004591238513574517,7.735441566577115e-05
0.0008811554406584678,0.0004595707928305378,7.758408932681814e-05
0.0008453266058586638,0.00046000241334216707,7.781398262836131e-05
0.0007980352984840536,0.0004604132538182528,7.804408654515142e-05
0.0007382892426427896,0.0004607973349535345,7.827438919234436e-05
0.000665202305022413,0.00046114820784045083,7.850487557804286e-05
0.0005780024197289547,0.0004614590090216387,7.873552738225837e-05
