acceleration,velocity,displacement
-0.01686620424357576,0.0,0.0
-0.015520178580600001,-8.09659570604394e-06,-2.024148926510985e-09
-0.01415756524507418,-1.5516031662462486e-05,-7.927305768637591e-09
-0.012781125240123722,-2.225070428376196e-05,-1.7368989755193702e-08
-0.011393639325313945,-2.829439542512138e-05,-3.000526468241454e-08
-0.00999788774341888,-3.3642277192304585e-05,-4.548943283677103e-08
-0.00859663048233495,-3.829090674874304e-05,-6.347272882203294e-08
-0.007192588334436791,-4.2238211452935976e-05,-8.360500837245268e-08
-0.005788424973915588,-4.548346478002407e-05,-1.055354274306927e-07
-0.0043867302425488735,-4.802725358414018e-05,-1.2891310702173376e-07
-0.0029900048278890517,-4.987143735174966e-05,-1.5338777975570621e-07
-0.0016006465403629463,-5.101910019381266e-05,-1.786104141420968e-07
-0.00022093843132155928,-5.1474496436733785e-05,-2.042338132997334e-07
0.0011469609922168244,-5.124299079650997e-05,-2.2991318510804433e-07
0.002501025227072835,-5.0330994241687556e-05,-2.553066813675937e-07
0.003839364732925519,-4.874589675168797e-05,-2.800759041159376e-07
0.005160229285108202,-4.649599824717954e-05,-3.038863778656545e-07
0.006462007701726816,-4.359043900047078e-05,-3.2640798717756704e-07
0.007743225023717163,-4.003913081910979e-05,-3.4731537963246217e-07
0.0090025373170685,-3.5852690233913375e-05,-3.66288334895718e-07
0.010238724338619413,-3.1042374819991395e-05,-3.8301210115919416e-07
0.011450680360711835,-2.5620023645158584e-05,-3.971777007754817e-07
0.012637403481372291,-1.959800268463755e-05,-4.084822073579307e-07
0.013797983750533049,-1.2989155876661216e-05,-4.166289969982554e-07
0.014931590428465242,-5.806762331911643e-06,-4.213279765503986e-07
0.016037458678486487,1.9354999448262893e-06,-4.2229579214716996e-07
0.017114875993519026,1.0223583612827668e-05,-4.192560212577565e-07
0.01816316866542146,1.9043094777562792e-05,-4.119393516601589e-07
0.01918168861777713,2.837930909836244e-05,-4.000837506911776e-07
0.020169800924625805,3.821718148396317e-05,-3.8343462804559615e-07
0.02112687232758706,4.8541349797016387e-05,-3.6174499522535123e-07
0.0220522610502891,5.933613314148543e-05,-3.347756244907258e-07
0.02294530819462138,7.058552545271305e-05,-3.0229520984217615e-07
0.023805330980745693,8.227318524655482e-05,-2.640805321673592e-07
0.024631618059016033,9.438242250649525e-05,-2.1991663022909666e-07
0.025423427086323495,0.00010689618379283013,-1.6959697865426533e-07
0.026179984726483047,0.00011979703674603177,-1.1292367351954986e-07
0.026900489186566526,0.00013306715522429417,-4.970762552696838e-08
0.027584115316991988,0.0001466883063501838,2.0231239866651115e-08
0.02823002219245082,0.0001606418407275445,9.706377663608319e-08
0.028837362991755943,0.00017490868702359618,1.8095140857386833e-07
0.029405296930298957,0.00018946935200410989,2.7204591833079487e-07
0.029933002956408564,0.00020430392697578676,3.70489238075769e-07
0.030419694884159024,0.00021939210143592867,4.764132451786979e-07
0.030864637603048226,0.00023471318455773048,5.899395666771126e-07
0.03126716398995668,0.0002502461349559817,7.111793965555407e-07
0.03162669214503419,0.0002659695989897294,8.402333300419685e-07
0.03194274256210242,0.0002818619576665136,9.771912192060293e-07
0.03221495481958593,0.0002979013820119357,1.1221320541256415e-06
0.03244310335320647,0.00031406589655513377,1.2751238737674089e-06
0.03262711185535992,0.0003303334503572754,1.436223710495511e-06
0.032767065834915524,0.00034668199477984427,1.605477571779791e-06
0.03286322287748812,0.0003630895669579452,1.7829204622142384e-06
0.032916020199414205,0.0003795343777271708,1.9685764483855175e-06
0.032926079190051014,0.00039599490257453707,2.1624587684609443e-06
0.03289420674632978,0.00041244997405863226,2.364569987619237e-06
0.03282139329027194,0.0004288788740677827,2.5749021996508404e-06
0.03270880744280124,0.00044526142425105103,2.793437274230549e-06
0.03255778744202741,0.0004615780729722582,3.0201471485363764e-06
0.03236982953905313,0.00047780997721752835,3.254994161083823e-06
0.03214657373137401,0.0004939390780351351,3.497931424896989e-06
0.03188978726614598,0.0005099481682845151,3.7489032364769017e-06
0.031601346378495675,0.0005258209516956755,4.007845516471949e-06
0.03128321675046805,0.0005415420924779164,4.2746862775153476e-06
0.030937433169352407,0.0005570972549578715,4.5493461143742945e-06
0.0305660788057554,0.0005724731329516485,4.831738711351675e-06
0.03017126444986568,0.0005876574687655537,5.121771361780975e-06
0.02975510799506267,0.0006026390618767858,5.41934549444156e-06
0.029319714453220208,0.0006174077674888565,5.724357201782971e-06
0.02886715678710992,0.0006319544852989391,6.03669776497992e-06
0.028399457822771573,0.0006462711389514094,6.356254171042507e-06
0.027918573466665427,0.0006603506467737686,6.682909617473801e-06
0.02742637741503185,0.000674186884494193,7.0165440002907915e-06
0.026924647504694248,0.0006877746407241245,7.357034381595371e-06
0.026415053805884436,0.0007011095660517691,7.704255433289345e-06
0.025899148500139656,0.0007141881166282752,8.058079853959357e-06
0.025378357533301164,0.0007270074931366355,8.418378756400585e-06
0.02485397399653698,0.000739565576019095,8.785022023689518e-06
0.02432715316984483,0.0007518608578106905,9.157878632146964e-06
0.023798909162941362,0.0007638923733938871,9.536816939948108e-06
0.023270113108489743,0.0007756596289617448,9.921704940537015e-06
0.02274149289229659,0.0007871625304619414,1.0312410480392937e-05
0.02221363442097792,0.0007984013122902601,1.0708801441080989e-05
0.02168698441715326,0.0008093764669997929,1.1110745885903501e-05
0.02116185471267049,0.0008200886767822488,1.1518112171849011e-05
0.020638428002664893,0.0008305387474610826,1.1930769027909844e-05
0.02011676501511187,0.0008407275457155268,1.2348585601203996e-05
0.01959681300874153,0.0008506559402214901,1.277143147268825e-05
0.019078415429493928,0.000860324747331049,1.3199176644576384e-05
0.018561322465132528,0.0008697346818047056,1.3631691501860322e-05
0.018045202179754312,0.0008788863129659273,1.406884675055298e-05
0.01752965190060337,0.0008877800264860167,1.4510513335415965e-05
0.017014209557623887,0.0008964159918505736,1.4956562340000112e-05
0.016498364718063683,0.0009047941354194955,1.540686487181763e-05
0.015981569094280564,0.0009129141188725815,1.586129193539065e-05
0.015463246328023792,0.0009207753227281575,1.6319714295790835e-05
0.01494280087920639,0.0009283768345299651,1.6782002335105365e-05
0.014419625887385604,0.000935717441221613,1.724802590404326e-05
0.01389310993874926,0.0009427956251781467,1.77176541706432e-05
0.013362642753460342,0.0009496095633511992,1.8190755467775536e-05
0.012827619886638504,0.0009561571290112239,1.866719714086614e-05
0.012287446589002594,0.0009624358956301342,1.914684539702648e-05
0.011741540989862728,0.0009684431425248505,1.9629565156565228e-05
0.011189336754927223,0.000974175861961048,2.0115219907686702e-05
0.010630285361991324,0.0009796307674902777,2.0603671565049534e-05
0.010063858156508364,0.0009848043033699027,2.109478033276458e-05
0.009489548392488329,0.000989692655007152,2.1588404572358844e-05
0.008906873491097695,0.0009942917604780484,2.2084400676230144e-05
0.008315377718503813,0.0009985973232804488,2.2582622947169768e-05
0.007714635400453892,0.0010026048265601882,2.3082923484629926e-05
0.007104254705194338,0.0010063095490866001,2.3585152078541622e-05
0.006483881982150766,0.0010097065832584363,2.4089156111627883e-05
0.005853206630396511,0.0010127908554115731,2.4594780471295385e-05
0.005211966452542836,0.001015557148682308,2.5101867472318857e-05
0.004559953420787244,0.0010180001286506405,2.5610256791652094e-05
0.0038970197572292128,0.0010201143719451445,2.611978541680104e-05
0.0032230842098543776,0.0010218943979369154,2.6630287609271554e-05
0.0025381383796262698,0.0010233347035842855,2.7141594884651854e-05
0.0018422529262136487,0.0010244298014107456,2.765353601090061e-05
0.0011355834615210743,0.0010251742605076792,2.8165937026380216e-05
0.0004183759400654395,0.0010255627503580758,2.8678621279096656e-05
-0.0003090286283355993,0.0010255900871860082,2.9191409488482675e-05
-0.0010461903016176764,0.00102525128245352,2.9704119830892556e-05
-0.0017925673277796365,0.0010245415930461707,3.021656804976748e-05
-0.0025475144581698335,0.0010234565725996832,3.072856759117894e-05
-0.003310282656487069,0.001021992123321019,3.1239929765159113e-05
-0.004080020356112089,0.0010201445475678693,3.1750463932881335e-05
-0.0048557762948529355,0.001017910598405128,3.225997771937458e-05
-0.005636503813028129,0.0010152875283781578,3.2768277251070404e-05
-0.006421066395853319,0.0010122731358259375,3.327516741712143e-05
-0.007208244187882906,0.0010088658081800035,3.378045215312291e-05
-0.00799674118624869,0.0010050645618364705,3.428393474562703e-05
-0.008785192819981752,0.001000869078334913,3.478541815566987e-05
-0.0095721736552833,0.0009962797367160966,3.528470535943263e-05
-0.010356205034549896,0.0009912976420436382,3.5781599704122565e-05
-0.011135762536061055,0.0009859246501509856,3.627590527717122e-05
-0.011909283202824616,0.000980163388716264,3.676742728688803e-05
-0.01267517252670307,0.0009740172747838822,3.7255972452763065e-05
-0.013431811195083555,0.0009674905288534355,3.7741349403672394e-05
-0.01417756161656776,0.0009605881856505227,3.8223369082298384e-05
-0.014910774239075995,0.0009533161016866118,3.870184515413267e-05
-0.015629793657937093,0.0009456809597123585,3.917659441948241e-05
-0.016332964493144655,0.000937690270174588,3.964743722695415e-05
-0.017018637018926874,0.0009293523697965701,4.011419788694694e-05
-0.017685172573522222,0.0009206764173984579,4.0576705083745694e-05
-0.018330948848477135,0.000911672387042958,4.103479228485605e-05
-0.018954365215027327,0.0009023510585270819,4.148829814624856e-05
-0.01955384825927647,0.0008927240051585059,4.193706691216996e-05
-0.02012785766936423,0.0008828035786763457,4.2380948808128674e-05
-0.02067489257120341,0.0008726028911162038,4.281980042557681e-05
-0.021193498367348906,0.0008621357933815657,4.325348509670125e-05
-0.0216822741019947,0.0008514168502642298,4.36818732576127e-05
-0.022139880349335193,0.0008404613116513973,4.410484279809161e-05
-0.02256504759708887,0.0008292850796647913,4.452227939592066e-05
-0.02295658506676954,0.0008179046714988266,4.493407683371156e-05
-0.02331338987009351,0.0008063371777646108,4.534013729602742e-05
-0.023634456341308722,0.0007946002162117603,4.574037164452151e-05
-0.023918885309787943,0.0007827118807989861,4.61346996687742e-05
-0.02416589299852465,0.000770690686221908,4.6523050310529426e-05
-0.024374819175578898,0.000758555508178382,4.69053618591295e-05
-0.024545134175193103,0.000746325519840689,4.7281582116134264e-05
-0.02467644446545953,0.0007340201251805258,4.765166852738957e-05
-0.024768496567446004,0.0007216588899222994,4.801558828116528e-05
-0.0248211792813532,0.0007092614709600996,4.8373318371385874e-05
-0.024834524280885346,0.00069684754506954,4.8724845625393286e-05
-0.024808705161764918,0.0006844367377088773,4.907016669608789e-05
-0.024744034997528423,0.000672048552669054,4.940928801868238e-05
-0.024640962420008794,0.0006597023033146697,4.974222573267831e-05
-0.024500066246384886,0.0006474170461480712,5.0069005570044e-05
-0.024322048731493264,0.0006352115174036016,5.0389662710931916e-05
-0.02410772761146722,0.0006231040733178615,5.070424160861228e-05
-0.02385802718231482,0.000611112634619416,5.1012795785596604e-05
-0.023573968702556108,0.0005992546356481983,5.1315387603163506e-05
-0.023256660435692723,0.0005875469783636361,5.161208800666646e-05
-0.022907287663394046,0.0005760059913388644,5.190297624909209e-05
-0.02252710297225121,0.000564647393679953,5.218813959534679e-05
-0.022117417027328688,0.0005534862636800581,5.2467673009686796e-05
-0.021679589944986016,0.0005425370119369795,5.274167882859106e-05
-0.021215023336790605,0.0005318133586165354,5.3010266421229434e-05
-0.0207251531197667,0.0005213283145023961,5.3273551839509164e-05
-0.020211443212999815,0.0005110941654192044,5.353165745948957e-05
-0.01967538021699341,0.0005011224595617061,5.3784711615734796e-05
-0.019118469112027924,0.0004914239972294508,5.403284822993258e-05
-0.018542229956501306,0.00048200882246231844,5.4276206434855524e-05
-0.017948195534446317,0.0004728862160895815,5.45149301944935e-05
-0.0173379098810642,0.00046406468973570386,5.4749167920949824e-05
-0.016712927584552492,0.0004555519803692997,5.4979072088476075e-05
-0.01607481371111648,0.00044735504504538244,5.5204798844829745e-05
-0.0154251441378126,0.0004394800555831502,5.542650761998688e-05
-0.014765506025873081,0.00043193239304222875,5.5644360732143224e-05
-0.01409749814151216,0.00042471664200038244,5.585852299090388e-05
-0.013422730740373211,0.0004178365847799111,5.606916129759895e-05
-0.012742824774693346,0.0004112951959011445,5.627644424276921e-05
-0.012059410242239206,0.00040509463714691134,5.648054170103123e-05
-0.011374123552754101,0.00039923625369816303,5.66816244237425e-05
-0.010688603833277707,0.0003937205718516551,5.687986363012995e-05
-0.01000448813029892,0.00038854729886076095,5.707543059780805e-05
-0.009323405503720902,0.000383715325452256,5.7268496253886306e-05
-0.008646970062676378,0.0003792227315606567,5.7459230768139535e-05
-0.007976773076338046,0.0003750667957759031,5.764780314997368e-05
-0.0073143743909205566,0.00037124400890908843,5.783438085114493e-05
-0.006661293463087476,0.0003677500919455864,5.80191293763586e-05
-0.006019000342772623,0.0003645800184941214,5.820221190396852e-05
-0.0053889068918234655,0.0003617280416854724,5.838378891901342e-05
-0.004772358433455657,0.0003591877253541526,5.856401786077333e-05
-0.004170625934098929,0.000356951979262264,5.8743052786927434e-05
-0.003584898755128625,0.0003550130980899571,5.8921044056265486e-05
-0.0030162779862890274,0.0003533628039046027,5.909813803176413e-05
-0.0024657703772043263,0.00035199229181372935,5.927447680569371e-05
-0.0019342829035405525,0.0003508922784935431,5.945019794827053e-05
-0.001422618030164057,0.000350053053260117,5.962543428120894e-05
-0.0009314697660607091,0.0003494645313110608,5.9800313677351736e-05
-0.0004614206465291373,0.00034911630870791335,5.997495888735648e-05
-1.2939812590695923e-05,0.0003489977185931334,6.014948739418174e-05
0.0004136176409472058,0.00034909788805022253,6.032401129584258e-05
0.0008180099246565451,0.0003494057949416235,6.049863721659054e-05
0.0012001063833869082,0.00034991032401863434,6.06734662463306e-05
0.0015598839533095324,0.00035060032160280847,6.084859390773596e-05
0.001897422381694684,0.0003514646481865595,6.1024110150183304e-05
0.0022128983916024606,0.0003524922283798838,6.120009936932491e-05
0.002506578996271487,0.00035367209772685224,6.13766404508516e-05
0.0027788141648685933,0.00035499344601713724,6.15538068367876e-05
0.003030029012074851,0.0003564456568113731,6.173166661249473e-05
0.003260715641452779,0.000358018342974755,6.191028261244127e-05
0.00347142474009009,0.0003597013780701407,6.208971254270249e-05
0.0036627570190890884,0.0003614849235099355,6.227000911809751e-05
0.0038353546194093593,0.0003633594514195601,6.245122021182988e-05
0.003989892631848115,0.00036531576323237444,6.263338901549287e-05
0.004127070889298122,0.000367345004112661,6.281655420732913e-05
0.004247606166668203,0.0003694386733766526,6.300075012670146e-05
0.004352224867257324,0.00037158863113513396,6.318600695282941e-05
0.004441656198159492,0.00037378710140148816,6.337235088596357e-05
0.004516625770723001,0.0003760266718937088,6.355980432928737e-05
0.004577849532894797,0.00037830029071961324,6.37483860699407e-05
0.004626027963954619,0.0003806012600938256,6.393811145764407e-05
0.004661840534693561,0.00038292322721848764,6.412899257947215e-05
0.00468594052747268,0.0003852601724840292,6.432103842939778e-05
0.004698950385164818,0.0003876063952121886,6.451425507132182e-05
0.004701457801138056,0.0003899564972587643,6.470864579443956e-05
0.004694012772065169,0.00039230536490206507,6.490421125997977e-05
0.004677125807093573,0.00039464814954685476,6.5100949638592e-05
0.0046512674272582155,0.0003969802478554427,6.529885673794258e-05
0.004616869018401945,0.00039929728196685775,6.549792612039816e-05
0.004574325030593944,0.0004015950804791067,6.569814921100964e-05
0.004523996445967069,0.00040386966084824695,6.589951539634148e-05
0.00446621536894323,0.00040611721380197455,6.610201211500403e-05
0.00440129053783743,0.00040833409027866974,6.630562494102419e-05
0.004329513520101754,0.0004105167912931545,6.651033766141715e-05
0.004251165338524246,0.000412661961007811,6.671613234949238e-05
0.004166523288112964,0.0004147663831644703,6.692298943553545e-05
0.004075867739276058,0.00041682698092131756,6.71308877765569e-05
0.003979488760055594,0.00041884082004615047,6.733980472679877e-05
0.0038776924055350624,0.0004208051153375481,6.75497162106447e-05
0.0037708065143280504,0.0004227172400675139,6.776059679949597e-05
0.0036591858358377013,0.00042457473815505535,6.797241979405162e-05
0.0035432163128869755,0.0004263753386922365,6.818515731326343e-05
0.0034233183881628984,0.000428116972367499,6.839878039102837e-05
0.003299949288292308,0.0004297977892866128,6.86132590814419e-05
0.0031736043291509665,0.0004314161776909736,6.88285625731863e-05
0.0030448173391980815,0.00043297078310806084,6.904465931338606e-05
0.002914160291180166,0.0004344605275156554,6.926151714104198e-05
0.0027822421640145783,0.0004358846281294541,6.947910342995326e-05
0.0026497069554524823,0.00043724261540932085,6.969738524083795e-05
0.002517230685820605,0.0004385343498196391,6.99163294821452e-05
0.002385517209843695,0.00043976003679355516,7.013590307879849e-05
0.0022552926822872236,0.0004409202392665879,7.035607314781352e-05
0.0021272985817834015,0.0004420158870826056,7.057680717940082e-05
0.0020022832783270863,0.0004430482825476332,7.079807322180837e-05
0.001880992242885031,0.00044401910142793623,7.101984006780226e-05
0.0017641571362684877,0.00044493038877272464,7.124207744035242e-05
0.0016524841318698899,0.00044578454908975924,7.146475617481804e-05
0.001546641862404318,0.0004465843305883278,7.168784839473757e-05
0.0014472493198678259,0.0004473328033838958,7.191132767823063e-05
0.0013548639265525,0.0004480333316955009,7.213516921200048e-05
0.001269969901612601,0.00044868954015254216,7.235934992996249e-05
0.0011929670252257703,0.00044930527438425175,7.25838486335967e-05
0.0011241599633321955,0.00044988455613139127,7.28086460912256e-05
0.0010637484211958135,0.0004504315332275233,7.303372511356533e-05
0.0010118184780592181,0.00045095042495233703,7.32590706031103e-05
0.0009683354695284585,0.00045144546343923395,7.348466957520819e-05
0.0009331387205477166,0.000451920831986753,7.371051114906468e-05
0.0009059383189901994,0.0004523806012466375,7.393658650737303e-05
0.0008863140048469576,0.0004528286643275968,7.416288882376658e-05
0.0008737161694964414,0.00045326867187118266,7.438941315781628e-05
0.0008674689229229342,0.0004537039681442875,7.461615631782014e-05
0.0008667751790477897,0.0004541375291697802,7.484311669214866e-05
0.0008707237091645598,0.0004545719038918333,7.507029405041406e-05
0.0008782981097470542,0.0004550091593465612,7.529768931622366e-05
0.00088838762478837,0.00045545083078019506,7.552530431375534e-05
0.0008997997551058937,0.00045589787762516864,7.575314149085667e-05
0.0009112745652780103,0.0004563506462052646,7.598120362181428e-05
0.0009215005427360926,0.0004568088399822681,7.620949349336117e-05
0.000929131766525957,0.0004572714980595836,7.643801357787163e-05
0.0009328060259597169,0.00045773698250770506,7.666676569801346e-05
0.0009311634253687096,0.00045820297487053716,7.689575068735802e-05
0.0009228649459852836,0.00045866648196337567,7.71249680515665e-05
0.0009066104199191073,0.0004591238508048518,7.735441563475855e-05
0.0008811554086999099,0.00045957079226200656,7.758408929552526e-05
0.0008453265738452173,0.00046000241275764283,7.781398259678017e-05
0.0007980352665525807,0.0004604132532177423,7.804408651327402e-05
0.0007382892109198813,0.00046079733433711045,7.827438916016273e-05
0.0006652022736209668,0.00046114820720824566,7.850487554554907e-05
0.0005780023887533088,0.0004614590083738392,7.873552734944459e-05
