acceleration,velocity,displacement
-0.016864585392693882,0.0,0.0
-0.01552581934600109,-8.097601184673743e-06,-2.024400296168436e-09
-0.014170161110012262,-1.552159629867708e-05,-7.929199667006143e-09
-0.012800291164948192,-2.2264209367417198e-05,-1.737565108352971e-08
-0.011418914554095952,-2.8319010797178233e-05,-3.0021456124678566e-08
-0.01002874184811699,-3.368092489773147e-05,-4.5521440048405996e-08
-0.008632470578025237,-3.8346228004267026e-05,-6.352822827390562e-08
-0.007232767377563534,-4.231253749316422e-05,-8.369291964826344e-08
-0.005832251037964344,-4.557879209704619e-05,-1.0566575204581604e-07
-0.004433476650845569,-4.814522401924867e-05,-1.2909675607488975e-07
-0.0030389210089103637,-5.001332343418765e-05,-1.5363639293824885e-07
-0.0016509694541675733,-5.118579604995714e-05,-1.7893617280928505e-07
-0.0002719043949866142,-5.1666514512245684e-05,-2.0464925044983575e-07
0.0010961042745663695,-5.1460464542350745e-05,-2.3043099521348485e-07
0.0024510066440603393,-5.057368681269407e-05,-2.5593953305224605e-07
0.003790877984781188,-4.901321565548369e-05,-2.808362586692905e-07
0.0051139215790339245,-4.678701576452991e-05,-3.047863165242939e-07
0.006418469161043619,-4.390391807951052e-05,-3.27459049985304e-07
0.0077029790383497726,-4.0373556029662174e-05,-3.4852841851259717e-07
0.008966032044395124,-3.6206303258975954e-05,-3.676733833347567e-07
0.010206325538215044,-3.141321386332341e-05,-3.8457826261533155e-07
0.011422665715850572,-2.600596604980701e-05,-3.9893305759361415e-07
0.012613958526611305,-1.999680998919154e-05,-4.104337516033638e-07
0.01377919949100223,-1.3398520484788156e-05,-4.1878258422185873e-07
0.014917462704437633,-6.2243549359281895e-06,-4.236883030770378e-07
0.016027889298359153,1.5119830647710071e-06,-4.2486639604482707e-07
0.017109675628295875,9.796374296434764e-06,-4.2203930670452565e-07
0.018162061466941912,1.861430857024421e-05,-4.149366359878559e-07
0.019184318490989952,2.7950903559727176e-05,-4.0329533295536303e-07
0.020175739352170607,3.779091802051731e-05,-3.868598775603019e-07
0.021135627613949347,4.8118759762047305e-05,-3.6538245811466076e-07
0.022063288823186176,5.891848887133119e-05,-3.3862314595631616e-07
0.02295802297309505,7.01738168204015e-05,-3.0635006953338297e-07
0.02381911859353047,8.186810221205788e-05,-2.683395897752681e-07
0.024645848674193525,9.398434402898888e-05,-2.243764782150064e-07
0.02543746859424922,0.00010650517334609956,-1.742540988712343e-07
0.02619321620215972,0.00011941284454520179,-1.1777459439840895e-07
0.026912314146649685,0.00013268922713240413,-5.474907647900746e-08
0.027593974483887763,0.0001463157992900385,1.500218012660319e-08
0.028237405486451875,0.0001602736442826234,9.164954101976867e-08
0.0288418204904091,0.00017454345077683864,1.7535381478463418e-07
0.029406448558963627,0.00018910551803918182,2.662660569886393e-07
0.029930546702920113,0.00020393976685465276,3.6452737821209796e-07
0.0304134133633233,0.00021902575687121362,4.7026875914356455e-07
0.030854402832757057,0.00023434271092023372,5.836108760914264e-07
0.03125294027823587,0.00024986954669798197,7.046639404959803e-07
0.03160853702532755,0.0002655849160238728,8.33527556176444e-07
0.03192080575318815,0.00028146725171850176,9.702905981120377e-07
0.032189475228213506,0.00029749482196385216,1.1150311165326263e-06
0.032414404181816646,0.0003136457918163597,1.2678162699776793e-06
0.032595593923251405,0.0003298982913426267,1.4287022907674258e-06
0.03273319926855767,0.00034623048964057895,1.5977344860132272e-06
0.03282753737247244,0.0003626206738008365,1.774947276873581e-06
0.03287909409823797,0.0003790473316685141,1.9603642782409187e-06
0.03288852765156104,0.00039548923710596383,2.1539984204345383e-06
0.0328566693035356,0.000411925536344738,2.355852113797214e-06
0.03278452110560831,0.00042833583394702397,2.5659174563701543e-06
0.03267325057417956,0.00044470027686697094,2.784176484073653e-06
0.03252418242600943,0.0004609996351170182,3.0106014620696503e-06
0.03233878757607391,0.00047721537761753904,3.2451552152532897e-06
0.03211866972400129,0.0004933297419425579,3.4877914951433138e-06
0.03186554992040868,0.0005093257968536603,3.7384553798423682e-06
0.03158124953419542,0.0005251874967173114,3.997083703235111e-06
0.03126767206049144,0.000540899727115983,4.263605509193435e-06
0.030926784202907183,0.0005564483411818328,4.537942526267889e-06
0.030560596611460777,0.0005718201863854248,4.8200096581597035e-06
0.03017114458396414,0.000587003121684281,5.10971548517713e-06
0.02976046899444368,0.000601986025078883,5.4069627718679214e-06
0.029330597707947943,0.0006167587917544809,5.711648976076262e-06
0.028883527742039148,0.0006313123231169777,6.023666754794126e-06
0.028421208415036304,0.0006456385071562466,6.342904462362432e-06
0.027945525686828145,0.0006597301906817127,6.669246636821922e-06
0.02745828786439754,0.0006735811440695191,7.00257447050973e-06
0.026961212809757724,0.000687186019238058,7.342766261336624e-06
0.026455916744099427,0.0007005403016265223,7.68969784155277e-06
0.025943904690070237,0.0007136402569850647,8.043242981205666e-06
0.02542656254623267,0.0007264828737941404,8.403273763900467e-06
0.024905150754171903,0.0007390658021192416,8.769660932878814e-06
0.024380799501856055,0.0007513872896832486,9.142274205829436e-06
0.0238545054069973,0.0007634461159104619,9.520982557227863e-06
0.023327129641894487,0.0007752415246726848,9.905654467373649e-06
0.022799397487622514,0.0007867731564550641,1.0296158137655586e-05
0.022271899319387566,0.0007980409806568167,1.0692361671933557e-05
0.021745093015131813,0.0008090452287404465,1.1094133224282872e-05
0.021219307761545413,0.0008197863289346158,1.1501341113701637e-05
0.020694749224367325,0.000830264843181094,1.1913853906730565e-05
0.020171506042205207,0.0008404814069977372,1.2331540469275272e-05
0.019649557565107358,0.0008504366728995654,1.2754269989249597e-05
0.01912878268447841,0.0008601312579619618,1.318191197196498e-05
0.01860896951910192,0.0008695656960128568,1.3614336210458685e-05
0.018089825669669435,0.0008787403948100497,1.4051412733164411e-05
0.01757098874549302,0.0008876555984138403,1.4493011731470384e-05
0.01705203689199987,0.0008963113548232135,1.4939003469779647e-05
0.016532499084959778,0.0009047074888174533,1.5389258180689814e-05
0.016011864989381876,0.0009128435798360388,1.5843645947853187e-05
0.015489594203328884,0.0009207189446342165,1.630203657897075e-05
0.014965124728957242,0.000928332624367288,1.6764299471221124e-05
0.014437880549013108,0.0009356833756867806,1.7230303471234642e-05
0.013907278244946412,0.0009427696653852705,1.7699916731502654e-05
0.013372732666376778,0.0009495896681131013,1.8173006564877247e-05
0.01283366173215349,0.0009561412667127339,1.8649439298583706e-05
0.012289490490466147,0.0009624220547683888,1.9129080128953988e-05
0.011739654580436333,0.0009684293410361144,1.9611792977905113e-05
0.011183603228386603,0.0009741601554883202,2.009744035203622e-05
0.010620801903440249,0.000979611256771277,2.058588320510112e-05
0.010050734774170367,0.0009847791409406796,2.107698080452911e-05
0.009472907147110984,0.000989660051421,2.157059060261953e-05
0.008886848092190284,0.0009942499902308253,2.2066568113032487e-05
0.008292113432501828,0.0009985447306119983,2.2564766793243192e-05
0.007688289200296904,0.001002539831270198,2.306503793371374e-05
0.007074995583980857,0.0010062306524662675,2.3567230554647856e-05
0.006451891351321051,0.001009612374200093,2.4071191311314447e-05
0.00581867872212075,0.0010126800167184534,2.4576764409044082e-05
0.005175108647316667,0.0010154284635608129,2.50837915291139e-05
0.004520986425600342,0.0010178524873290422,2.5592111766836364e-05
0.0038561775667591116,0.001019946778327132,2.610156158325041e-05
0.003180613792498383,0.0010217059761669465,2.661197477187393e-05
0.0024942990424542473,0.0010231247043756846,2.7123182442009587e-05
0.0017973153282113503,0.001024197607968351,2.7635013020095597e-05
0.00108982826191796,0.0010249193938658833,2.8147292270554157e-05
0.0003720920861996837,0.0010252848739529126,2.8659843337508857e-05
-0.000355545952778397,0.0010252890104862679,2.9172486808618652e-05
-0.0010926420322468562,0.0010249269634900115,2.968504080211272e-05
-0.0018386531274466138,0.001024194139700088,3.0197321077910247e-05
-0.002592935506708344,0.0010230862425415492,3.070914117347065e-05
-0.00335474453119946,0.0010215993225320722,3.122031256473906e-05
-0.0041232358963528195,0.0010197298274251842,3.1730644852228374e-05
-0.0048974683405951,0.0010174746513659473,3.223994597192616e-05
-0.005676407717970369,0.0010148311823513058,3.274802243035547e-05
-0.006458932236570626,0.0010117973473626706,3.3254679562783965e-05
-0.007243838616538007,0.0010083716546493934,3.3759721813286984e-05
-0.008029848902284932,0.0010045532327696877,3.4262953035141756e-05
-0.00881561766374094,0.0010003418661281812,3.476417680986622e-05
-0.009599739350552618,0.0009957380268746077,3.526319678311692e-05
-0.01038075562400426,0.0009907429031309684,3.5759817015618314e-05
-0.011157162562330743,0.0009853584235843846,3.625384234729715e-05
-0.011927417690318938,0.0009795872785212222,3.674507877282355e-05
-0.0126899468177379,0.000973432937394208,3.723333382680241e-05
-0.013443150689962236,0.000966899663017283,3.771841697690528e-05
-0.014185411462355222,0.0009599925224792037,3.82001400232794e-05
-0.014915099007012612,0.0009527173948618617,3.867831750261467e-05
-0.015630577046177086,0.0009450809758485642,3.9152767095292276e-05
-0.016330209090021874,0.0009370907793145145,3.9623310034083045e-05
-0.01701236415999481,0.0009287551360020103,4.008977151291218e-05
-0.017675422319101908,0.0009200831893822362,4.055198109425824e-05
-0.01831778009478032,0.0009110848887787656,4.100977311379849e-05
-0.01893785593233319,0.0009017709797719872,4.146298708093618e-05
-0.01953409582970605,0.0008921529918314773,4.191146807383704e-05
-0.020104979278754667,0.0008822432230543621,4.23550671275585e-05
-0.02064902559633528,0.0008720547218355896,4.279364161378099e-05
-0.021164800690840244,0.0008616012652637958,4.322705561055583e-05
-0.021650924281514352,0.0008508973340207071,4.365518026037696e-05
-0.022106077564863547,0.0008399580835591127,4.407789411477191e-05
-0.022529011299772576,0.0008287993113429537,4.4495083463497425e-05
-0.02291855425589114,0.0008174374199540378,4.4906642646321676e-05
-0.023273621932131113,0.0008058893759070322,4.531247434528694e-05
-0.023593225398696467,0.0007941726640743254,4.571248985528228e-05
-0.02387648004843037,0.0007823052377125436,4.6106609330728996e-05
-0.024122613972728323,0.0007703054642072539,4.6494762006208945e-05
-0.024330975624806652,0.0007581920668078702,4.687688638896273e-05
-0.02450104042404756,0.0007459840627956567,4.7252930421363605e-05
-0.02463241600956085,0.0007337006986872545,4.762285161173433e-05
-0.024724845966436308,0.0007213613831932552,4.798661713220446e-05
-0.024778211983939286,0.0007089856187056613,4.834420388267919e-05
-0.024792534500177925,0.000696592932084632,4.869559852037676e-05
-0.024767971910244782,0.0006842028054820263,4.904079745476842e-05
-0.024704818385618783,0.0006718346079080604,4.9379806808115945e-05
-0.02460350032073565,0.0006595075282314718,4.9712642342150825e-05
-0.024464571426942222,0.0006472405102945524,5.003932935178233e-05
-0.024288706545349332,0.0006350521908014795,5.0359902527056335e-05
-0.02407669432892484,0.000622960840582911,5.0674405784902434e-05
-0.02382942901412076,0.0006109843097471496,5.098289207248495e-05
-0.02354790154346595,0.0005991399771077528,5.128542314419867e-05
-0.02323319032476887,0.0005874447041406941,5.1582069314510784e-05
-0.02288645192625832,0.0005759147935779373,5.1872909188940444e-05
-0.022508911982022463,0.0005645659526008671,5.215802937548514e-05
-0.022101856501658804,0.0005534132604799467,5.2437524178755346e-05
-0.021666623687532745,0.0005424711404326489,5.271149527898349e-05
-0.02120459632662965,0.0005317533354291083,5.298005139794893e-05
-0.02071719484516068,0.0005212728876361607,5.324330795371525e-05
-0.02020587113642878,0.0005110421211407633,5.3501386705909476e-05
-0.019672103251299346,0.0005010726275438312,5.3754415393080624e-05
-0.019117390986618722,0.0004913752539843517,5.400252736346267e-05
-0.018543252357186985,0.0004819600931484003,5.4245861200245855e-05
-0.017951220908420638,0.0004728364748319984,5.448456034224095e-05
-0.01734284380846345,0.00046401295865277736,5.471877270061215e-05
-0.01671968063106828,0.0004554973275428944,5.4948650272161065e-05
-0.01608330269434409,0.0004472965817115413,5.5174348749474677e-05
-0.015435292764410746,0.0004394169328468526,5.539602712811427e-05
-0.014777244886274323,0.00043186379843418134,5.561384731093453e-05
-0.014110764081064616,0.0004246417961923466,5.582797370959116e-05
-0.01343746565694634,0.00041775473875784385,5.603857284332871e-05
-0.012758973919589594,0.00041120562886370985,5.62458129352341e-05
-0.012076920121901676,0.00040499665535333705,5.644986350628836e-05
-0.011392939543609168,0.00039912919043695935,5.6650894967735935e-05
-0.010708667632208029,0.00039360378864300503,5.684907821250593e-05
-0.010025735169645873,0.0003884201879425416,5.704458420665231e-05
-0.009345762462203722,0.0003835773135345792,5.723758358202159e-05
-0.008670352600475047,0.00037907328476890947,5.742824623159746e-05
-0.008001083910948547,0.0003749054256410536,5.761674090919995e-05
-0.007339501808724573,0.0003710702792111353,5.7803234835413e-05
-0.006687110331790259,0.0003675636261760066,5.798789331175978e-05
-0.006045363657654708,0.00036438050767864536,5.817087934522345e-05
-0.005415657861063364,0.0003615152522989658,5.835235328521785e-05
-0.0047993230891395875,0.0003589615070614151,5.8532472475057946e-05
-0.004197616246102832,0.00035671227222760447,5.87113909198802e-05
-0.0036117142219294204,0.0003547599396105964,5.888925897283975e-05
-0.0030427076760433844,0.00035309633413610323,5.906622304127643e-05
-0.0024915953910521747,0.00035171275836932937,5.924242531440278e-05
-0.001959279229522557,0.00035060003971418567,5.941800351392366e-05
-0.001446559749812231,0.000349748579969352,5.959309066884455e-05
-0.0009541325659259566,0.00034914840689041744,5.976781491555949e-05
-0.00048258557284960635,0.00034878922735572356,5.994229932412103e-05
-3.23971896306833e-05,0.0003486604816651035,6.0116661751376236e-05
0.00039606422636589435,0.00034875139842428733,6.029101472139858e-05
0.0008025396832654473,0.00034905104940169515,6.046546533335508e-05
0.0011868775438776155,0.0003495484037084809,6.0640115196632624e-05
0.0015490302539564937,0.00035023238065793943,6.081506039272423e-05
0.00188904993183759,0.00035109190070438796,6.099039146306481e-05
0.0022070829846711675,0.00035211593393351517,6.116619342172428e-05
0.002503363936873485,0.00035329354566390135,6.134254579162363e-05
0.002778208653694793,0.0003546139388115434,6.151952266274249e-05
0.003032007116644232,0.0003560664927541282,6.16971927706339e-05
0.0032652158692662147,0.0003576407985006058,6.187561959344759e-05
0.0034783502226522173,0.0003593266900235854,6.205486146557864e-05
0.00367197630739542,0.0003611142716560973,6.223497170599856e-05
0.003846703081181967,0.0003629939415032417,6.241599875928839e-05
0.004003174427496239,0.00036495641088041123,6.25979863473843e-05
0.004142061489285739,0.0003669927198596067,6.27809736300693e-05
0.004264055360950514,0.00036909424907216577,6.296499537230224e-05
0.004369860211037665,0.0003712527279651628,6.315008211656157e-05
0.004460186839417771,0.00037346023972777663,6.33362603584848e-05
0.00453574661279078,0.00037570922309082875,6.352355272418945e-05
0.004597245696009985,0.0003779924711680289,6.371197814775416e-05
0.004645379517932654,0.0003803031274715146,6.390155204741405e-05
0.004680827475604941,0.000382634679219899,6.40922864990869e-05
0.004704247962696177,0.0003849809480794743,6.428419040591175e-05
0.0047162738750398,0.0003873360785389083,6.447726966256635e-05
0.004717508784802938,0.00038969452420386895,6.467152731325204e-05
0.004708523983419584,0.00039205103239592457,6.486696370240199e-05
0.004689856567862527,0.0003944006275337451,6.506357661738441e-05
0.004662008691101655,0.00039673859384848617,6.526136142272997e-05
0.004625448033996292,0.0003990604580297607,6.546031118569954e-05
0.004580609492625221,0.0004013619724114161,6.566041679330983e-05
0.0045278980109840624,0.0004036390992873184,6.586166706123451e-05
0.00446769242792441,0.0004058879968970455,6.60640488352806e-05
0.00440035015765026,0.00040810500754343915,6.626754708639072e-05
0.004326212490054331,0.0004102866482053653,6.647214500032793e-05
0.004245610283715871,0.0004124296038988079,6.667782406335397e-05
0.004158869835525458,0.0004145307239286182,6.688456414531082e-05
0.004066318743219946,0.00041658702107330456,6.70923435815613e-05
0.003968291610533828,0.000418595673661743,6.730113925524507e-05
0.0038651354585158932,0.0004205540304290054,6.751092668126775e-05
0.003757214699254569,0.00042245961796844804,6.772168009336712e-05
0.0036449155137316565,0.0004243101505216946,6.793337253548965e-05
0.0035286494764071898,0.00042610354176922936,6.814597595856238e-05
0.0034088563086568753,0.00042783791821549537,6.835946132355856e-05
0.0032860057200682583,0.00042951163372267664,6.857379871154311e-05
0.0031605983774343543,0.0004311232847470523,6.878895744116054e-05
0.003033166089216625,0.0004326717258637151,6.900490619381323e-05
0.0029042712875454522,0.0004341560852079056,6.922161314658114e-05
0.0027745058282969753,0.0004355757794868662,6.943904611275483e-05
0.002644489038813163,0.0004369305282036438,6.965717268967746e-05
0.0025148648707782905,0.00043822036668104167,6.987596041339863e-05
0.0023862979947846144,0.0004394456573974324,7.009537691941826e-05
0.002259468699097378,0.0004406070990709029,7.031539010853534e-05
0.002135066507845433,0.0004417057328726386,7.053596831652122e-05
0.0020137825068655473,0.00044274294512631633,7.075708048602095e-05
0.001896300467000149,0.00044372046586978273,7.097869633876998e-05
0.0017832869793907513,0.00044464036273138047,7.120078654592027e-05
0.0016753809228512015,0.00044550502970694097,7.142332289402984e-05
0.0015731826153597157,0.0004463171705914937,7.164627844410446e-05
0.0014772429468003518,0.0004470797769820337,7.186962768099783e-05
0.0013880526898031834,0.0004477961008911846,7.209334665046613e-05
0.0013060321014740563,0.0004484696220890039,7.231741308121118e-05
0.0012315209084661706,0.000449104010341489,7.25418064893188e-05
0.0011647688224254986,0.0004497030827742119,7.276650826259773e-05
0.0011059268273581025,0.0004502707566866578,7.299150172246294e-05
0.0010550395557999497,0.0004508109982824473,7.321677216120521e-05
0.0010120390833795504,0.0004513277679422422,7.344230685276139e-05
0.0009767404137276158,0.000451824962816519,7.366809503545108e-05
0.00094883882398448,0.000452306357625947,7.389412786556169e-05
0.0009279091374418059,0.0004527755446163036,7.412039834112226e-05
0.0009134069172075774,0.0004532358736299659,7.434690119568383e-05
0.0009046715415690126,0.00045369039324466006,7.457363276240249e-05
0.0009009311145697304,0.0004541417939086947,7.480059080919082e-05
0.0009013091648999467,0.00045459235397856215,7.502777434616264e-05
0.000904833082606484,0.00045504388954043873,7.52551834070424e-05
0.0009104442374359334,0.00045549770887044934,7.548281880664512e-05
0.0009170097154796819,0.00045595457235867825,7.57106818769524e-05
0.0009233355910019198,0.00045641465868529867,7.593877418471338e-05
0.0009281815997255791,0.00045687753798298055,7.616709723388046e-05
0.0009302769924557654,0.0004573421526310259,7.639565215653397e-05
0.0009283372423372989,0.00045780680618972414,7.662443939623915e-05
0.0009210811854647137,0.00045826916079667467,7.685345838798575e-05
0.0009072481159070119,0.0004587262431220176,7.708270723896542e-05
0.0008856143417354099,0.0004591744587364282,7.731218241443003e-05
0.0008550087424487775,0.00045960961450747424,7.754187843274101e-05
0.0008143269536787759,0.0004600269484315061,7.777178757347575e-05
0.0007625439307113226,0.00046042116615260364,7.800189960212179e-05
0.0006987247750199271,0.00046078648332903644,7.823220151449219e-05
0.0006220338147342339,0.00046111667297647497,7.846267730356857e-05
0.000531741998343268,0.00046140511692974433,7.869330775104512e-05
