frame_number,force
0,650.5928221879686
1,650.6817611787711
2,650.7718223777982
3,650.8628277112138
4,650.9545974733696
5,651.0469515914147
6,651.1397108587678
7,651.2326981214636
8,651.3257394038849
9,651.4186649622063
10,651.5113102542781
11,651.6035168133453
12,651.6951330109009
13,651.7860146931632
14,651.8760256772903
15,651.9650380967068
16,652.0529325890651
17,652.1395983255352
18,652.2249328860028
19,652.3088419901851
20,652.3912390990091
21,652.4720449038311
22,652.551186722972
23,652.6285978252857
24,652.704216699637
25,652.7779862883322
26,652.8498532024104
27,652.9197669372674
28,652.987679107795
29,653.0535427223315
30,653.1173115141205
31,653.1789393481696
32,653.2383797205379
33,653.2955853657327
34,653.3505079858737
35,653.4030981131501
36,653.4533051151241
37,653.5010773495851
38,653.5463624706216
39,653.5891078809645
40,653.6292613197305
41,653.6667715708458
42,653.701589274895
43,653.7336678248213
44,653.762964323984
45,653.789440584183
46,653.8130641410376
47,653.8338092634461
48,653.8516579323956
49,653.8666007629112
50,653.8786378419712
51,653.887779454556
52,653.894046670383
53,653.8974717670756
54,653.8980984715803
55,653.895982008193
56,653.8911889467557
57,653.8837968495362
58,653.8738937221812
59,653.8615772828048
60,653.8469540708782
61,653.830138421916
62,653.8112513359333
63,653.7904192688828
64,653.7677728758814
65,653.7434457315621
66,653.7175730479987
67,653.6902904077126
68,653.6617325289926
69,653.6320320808193
70,653.6013185633427
71,653.5697172675872
72,653.5373483258181
73,653.50432586172
74,653.4707572466157
75,653.4367424645135
76,653.4023735855849
77,653.3677343454481
78,653.3328998265101
79,653.2979362376309
80,653.2629007895496
81,653.227841665268
82,653.1927980855112
83,653.1578004687397
84,653.1228706839962
85,653.0880223943875
86,653.0532614884916
87,653.0185865944586
88,652.9839896666139
89,652.9494566289344
90,652.914968056294
91,652.8804998737902
92,652.846024056123
93,652.8115093114774
94,652.7769217364844
95,652.742225430321
96,652.7073830574714
97,652.6723563510602
98,652.6371065525179
99,652.6015947882232
100,652.5657823884546
101,652.5296311571182
102,652.4931036017131
103,652.4561631323847
104,652.4187742383456
105,652.3809026510789
106,652.3425155063381
107,652.3035815185633
108,652.2640711795025
109,652.2239569878055
110,652.1832137112372
111,652.1418186805263
112,652.0997521130752
113,652.0569974636686
114,652.0135417976061
115,651.9693761802243
116,651.9244960755534
117,651.8789017453173
118,651.8325986378373
119,651.7855977553177
120,651.7379159880003
121,651.6895764046832
122,651.6406084900917
123,651.5910483192923
124,651.5409386576697
125,651.4903289742304
126,651.4392753591301
127,651.3878403437235
128,651.3360926300052
129,651.284106742602
130,651.2319626196754
131,651.179745160361
132,651.1275437463644
133,651.0754517533954
134,651.0235660640827
135,650.9719865892989
136,650.9208158011594
137,650.870158278721
138,650.8201202661573
139,650.7708092426428
140,650.7223335033729
141,650.6748017520995
142,650.6283227066633
143,650.5830047187713
144,650.5389554066006
145,650.4962812945374
146,650.4550874508863
147,650.4154771135316
148,650.3775512952382
149,650.3414083630545
150,650.3071435887874
151,650.2748486693976
152,650.2446112176923
153,650.2165142252028
154,650.1906355009276
155,650.1670470921317
156,650.1458146969395
157,650.1269970829511
158,650.110645530801
159,650.0968033250597
160,650.0855053154837
161,650.0767775680027
162,650.0706371171714
163,650.0670918227926
164,650.0661403270901
165,650.0677721073146
166,650.0719676206081
167,650.0786985400716
168,650.0879280806906
169,650.0996114103696
170,650.1136961360863
171,650.1301228505324
172,650.1488257218706
173,650.169733107634
174,650.192768172881
175,650.2178494943792
176,650.2448916379363
177,650.2738057020091
178,650.304499823139
179,650.3368796373602
180,650.3708486902357
181,650.4063087895887
182,650.4431602985796
183,650.4813023700854
184,650.5206331252286
185,650.561049780126
186,650.6024487267454
187,650.6447255768351
188,650.6877751816115
189,650.7314916429946
190,650.7757683337211
191,650.8204979431237
192,650.8655725627985
193,650.9108838228124
194,650.9563230857158
195,651.001781702914
196,651.047151335761
197,651.0923243415468
198,651.1371942212608
199,651.1816561210596
200,651.2256073735209
201,651.2689480600509
202,651.3115815744648
203,651.353415170551
204,651.3943604819045
205,651.434334007907
206,651.4732575635707
207,651.5110586925103
208,651.5476710420445
209,651.5830346982347
210,651.6170964771413
211,651.6498101666517
212,651.6811367108106
213,651.7110443265389
214,651.7395085425463
215,651.7665121530815
216,651.7920450843465
217,651.8161041771434
218,651.8386928938788
219,651.8598209609005
220,651.8795039584996
221,651.8977628707285
222,651.9146236054459
223,651.9301164924635
224,651.9442757657304
225,651.9571390353155
226,651.9687467564444
227,651.9791417045872
228,651.9883684661573
229,651.9964729530143
230,652.0035019455795
231,652.0095026648169
232,652.0145223693468
233,652.0186079722124
234,652.0218056732266
235,652.0241606071519
236,652.0257165134218
237,652.0265154375579
238,652.0265974770064
239,652.0260005846893
240,652.0247604418693
241,652.0229104083543
242,652.0204815538475
243,652.0175027700425
244,652.0140009588093
245,652.0100012877606
246,652.0055275011932
247,652.0006022722089
248,651.9952475809199
249,651.9894851043895
250,651.9833366061006
251,651.9768243149696
252,651.9699712848392
253,651.9628017249007
254,651.9553412905306
255,651.9476173240841
256,651.9396590378167
257,651.9314976362069
258,651.9231663803309
259,651.9147006001166
260,651.906137659931
261,651.8975168788654
262,651.8888794010383
263,651.8802680064506
264,651.8717268515343
265,651.8633011302587
266,651.8550366501646
267,651.8469793225424
268,651.8391745727216
269,651.8316666847229
270,651.8244981015386
271,651.8177087044273
272,651.8113350909639
273,651.8054098649199
274,651.7999609454697
275,651.7950109018635
276,651.7905763233342
277,651.7866672402864
278,651.7832866178182
279,651.7804299434721
280,651.778084927281
281,651.7762313254216
282,651.7748408918925
283,651.7738774578144
284,651.7732971357368
285,651.7730486458656
286,651.7730737610939
287,651.7733078674826
288,651.7736806364582
289,651.7741168045196
290,651.7745370549333
291,651.7748589925312
292,651.7749981969241
293,651.7748693324236
294,651.774387286754
295,651.7734683067356
296,651.7720310981607
297,651.7699978593284
298,651.7672952233853
299,651.7638550929646
300,651.7596153594316
301,651.7545205061311
302,651.748522099578
303,651.7415791745702
304,651.7336585191887
305,651.7247348646445
306,651.7147909841902
307,651.7038177051112
308,651.6918138376769
309,651.6787860246524
310,651.664748514787
311,651.6497228641729
312,651.6337375709195
313,651.6168276504671
314,651.5990341590747
315,651.5804036705699
316,651.5609877078792
317,651.540842129008
318,651.5200264685246
319,651.498603239116
320,651.4766372013589
321,651.4541946127812
322,651.4313424697508
323,651.4081477570943
324,651.3846767198802
325,651.3609941703528
326,651.3371628419417
327,651.3132428016563
328,651.2892909310355
329,651.2653604835494
330,651.2415007227337
331,651.2177566404557
332,651.1941687496616
333,651.1707729426843
334,651.1476004058323
335,651.1246775828382
336,651.1020261824998
337,651.0796632284836
338,651.0576011510927
339,651.0358479215272
340,651.014407229019
341,650.9932787007091
342,650.97245816341
343,650.9519379451043
344,650.931707212048
345,650.9117523356568
346,650.8920572831026
347,650.8726040261844
348,650.853372962977
349,650.8343433456912
350,650.8154937072046
351,650.796802278333
352,650.7782473873062
353,650.7598078318318
354,650.7414632135569
355,650.7231942253496
356,650.7049828830656
357,650.6868126953146
358,650.6686687684703
359,650.6505378500874
360,650.632408319901
361,650.6142701415168
362,650.5961147897722
363,650.5779351694597
364,650.5597255410402
365,650.5414814680636
366,650.5231997988393
367,650.5048786907001
368,650.4865176790407
369,650.468117786787
370,650.4496816652073
371,650.4312137549905
372,650.4127204566562
373,650.3942103006817
374,650.3756941098676
375,650.3571851488175
376,650.3386992567123
377,650.3202549591749
378,650.3018735539657
379,650.2835791650675
380,650.2653987613465
381,650.2473621395554
382,650.2295018762926
383,650.2118532580695
384,650.1944542012284
385,650.1773451734551
386,650.160569126607
387,650.1441714478116
388,650.1281999332963
389,650.1127047870934
390,650.0977386440934
391,650.0833566143191
392,650.0696163437399
393,650.0565780864135
394,650.0443047823342
395,650.0328621346302
396,650.0223186789117
397,650.0127458372749
398,650.004217950496
399,649.996812283564
400,649.9906089994753
401,649.9856910932317
402,649.9821442748478
403,649.9800567898577
404,649.9795191681908
405,649.9806238951816
406,649.9834650006716
407,649.9881375639277
408,649.9947371341641
409,650.0033590692472
410,650.0140977982903
411,650.0270460161192
412,650.0422938186441
413,650.0599277893781
414,650.0800300500115
415,650.1026772914106
416,650.1279398035438
417,650.1558805221539
418,650.1865541071041
419,650.2200060642947
420,650.2562719216335
421,650.2953764697534
422,650.3373330785386
423,650.3821430998315
424,650.4297953652153
425,650.4802657862188
426,650.5335170625208
427,650.5894985010436
428,650.6481459451103
429,650.7093818088194
430,650.7731152084597
431,650.8392421812125
432,650.9076459823912
433,650.9781974557957
434,651.0507554760392
435,651.1251674657591
436,651.2012699940567
437,651.2788894643551
438,651.3578428988111
439,651.4379388226597
440,651.5189782472055
441,651.6007557459653
442,651.6830606151991
443,651.7656781077739
444,651.8483907270952
445,651.9309795644941
446,652.0132256594799
447,652.0949113597918
448,652.1758216581964
449,652.2557454841264
450,652.3344769289928
451,652.4118163848359
452,652.4875715784856
453,652.5615584877921
454,652.6336021318485
455,652.7035372330475
456,652.7712087550628
457,652.8364723260875
458,652.899194559483
459,652.9592532847187
460,653.0165377015595
461,653.0709484707793
462,653.1223977548387
463,653.1708092209377
464,653.216118016277
465,653.2582707224138
466,653.2972252936315
467,653.332950983214
468,653.3654282603214
469,653.3946487175463
470,653.4206149644314
471,653.4433404965628
472,653.4628495268746
473,653.4791767678759
474,653.4923671585952
475,653.5024755341504
476,653.50956623764
477,653.5137126749877
478,653.5149968141081
479,653.5135086291727
480,653.5093454886603
481,653.5026114843612
482,653.4934166995191
483,653.4818764174124
484,653.4681102754764
485,653.4522413739442
486,653.4343953515856
487,653.4146994439415
488,653.3932815417345
489,653.370269269402
490,653.3457891052714
491,653.3199655648223
492,653.2929204667008
493,653.2647722977704
494,653.2356356878847
495,653.2056209973318
496,653.1748340118168
497,653.1433757331166
498,653.1113422482271
499,653.0788246560097
500,653.0459090294144
501,653.0126763939733
502,652.9792027080329
503,652.9455588352001
504,652.9118105041443
505,652.8780182556449
506,652.8442373818506
507,652.810517867608
508,652.7769043477058
509,652.7434360964423
510,652.7101470664275
511,652.6770659916459
512,652.6442165664151
513,652.6116177081744
514,652.5792839087185
515,652.5472256761516
516,652.5154500689534
517,652.4839613229531
518,652.4527615695827
519,652.4218516389975
520,652.3912319360998
521,652.360903372929
522,652.3308683378175
523,652.3011316799692
524,652.2717016872368
525,652.2425910341432
526,652.213817676325
527,652.1854056670793
528,652.1573858720976
529,652.1297965600063
530,652.1026838496831
531,652.0761020014255
532,652.0501135476349
533,652.0247892677414
534,652.0002080188378
535,651.9764564360564
536,651.9536285157645
537,651.9318250928443
538,651.9111532228393
539,651.8917254803523
540,651.8736591853097
541,651.8570755681751
542,651.84209888457
543,651.8288554889464
544,651.8174728750332
545,651.8080786881844
546,651.8007997135111
547,651.7957608447977
548,651.793084041715
549,651.792887285774
550,651.7952835488659
551,651.8003797918684
552,651.8082760131205
553,651.8190643655635
554,651.8328283565144
555,651.8496421377187
556,651.869569888486
557,651.8926652917153
558,651.9189711000877
559,651.9485187876966
560,651.981328282372
561,652.0174077760106
562,652.0567536122215
563,652.0993502506426
564,652.1451703058204
565,652.1941746576639
566,652.2463126312475
567,652.3015222451027
568,652.3597305276035
569,652.4208539007958
570,652.484798631118
571,652.5514613472931
572,652.620729627054
573,652.6924826559541
574,652.7665919621655
575,652.8429222294322
576,652.9213321864796
577,653.0016755669403
578,653.0838021303222
579,653.167558731338
580,653.252790421683
581,653.3393415657218
582,653.4270569501634
583,653.5157828675174
584,653.6053681540182
585,653.6956651654408
586,653.7865306785984
587,653.877826710562
588,653.9694212505349
589,654.0611889016528
590,654.1530114334992
591,654.2447782512572
592,654.3363867926346
593,654.4277428668719
594,654.5187609503793
595,654.6093644515412
596,654.6994859541726
597,654.7890674457927
598,654.8780605342345
599,654.9664266548385
600,655.0541372698822
601,655.1411740604119
602,655.2275291080714
603,655.3132050621823
604,655.3982152865221
605,655.4825839807077
606,655.5663462709268
607,655.6495482621394
608,655.7322470393153
609,655.8145106011854
610,655.8964177079263
611,655.9780576242048
612,656.0595297411083
613,656.1409430651579
614,656.2224155695369
615,656.3040734105748
616,656.3860500200384
617,656.4684850903418
618,656.5515234755533
619,656.6353140361517
620,656.7200084588372
621,656.8057600826648
622,656.8927227586344
623,656.9810497629296
624,657.0708927767652
625,657.1624009398386
626,657.2557199794453
627,657.3509914123965
628,657.4483518119944
629,657.547932128887
630,657.6498570543704
631,657.7542444176745
632,657.8612046124994
633,657.970840049429
634,658.0832446290515
635,658.1985032279462
636,658.3166911893877
637,658.4378738138296
638,658.5621058494796
639,658.6894309884107
640,658.8198813774611
641,658.9534771555387
642,659.0902260302811
643,659.2301229073432
644,659.3731495839066
645,659.5192745138645
646,659.6684526471186
647,659.820625341859
648,659.9757203474502
649,660.1336518558338
650,660.294320619989
651,660.4576141383336
652,660.623406904194
653,660.7915607199826
654,660.9619250765754
655,661.1343375992083
656,661.3086245613242
657,661.4846014661282
658,661.6620736915735
659,661.8408371890945
660,662.0206792218146
661,662.2013791258972
662,662.3827090791489
663,662.5644348624022
664,662.7463166005306
665,662.9281094718474
666,663.109564378047
667,663.2904285711049
668,663.4704462378223
669,663.6493590475973
670,663.8269066752507
671,664.002827316635
672,664.1768582165756
673,664.3487362238706
674,664.5181983776306
675,664.68498251758
676,664.8488279030445
677,665.0094758235712
678,665.1666701870038
679,665.3201580748362
680,665.4696902574015
681,665.6150216632155
682,665.7559117991186
683,665.8921251212976
684,666.0234313609408
685,666.1496058109195
686,666.2704295813845
687,666.3856898338651
688,666.4951800066139
689,666.5987000476445
690,666.6960566735656
691,666.7870636702086
692,666.8715422460405
693,666.9493214442398
694,667.0202386162044
695,667.0841399579745
696,667.1408811097392
697,667.1903278161062
698,667.2323566418987
699,667.2668557364756
700,667.2937256391737
701,667.3128801181331
702,667.3242470331129
703,667.3277692097834
704,667.3234053090584
705,667.3111306712058
706,667.2909381121021
707,667.2628386497697
708,667.2268621433942
709,667.183057832452
710,667.131494768365
711,667.0722621347832
712,667.0054694553222
713,666.9312466892248
714,666.849744216015
715,666.7611327102591
716,666.6656029071623
717,666.5633652586473
718,666.4546494784638
719,666.3397039754691
720,666.2187951767721
721,666.0922067446331
722,665.960238690443
723,665.8232063862694
724,665.6814394721978
725,665.5352806582182
726,665.3850844222552
727,665.2312156086555
728,665.0740479323964
729,664.9139623946767
730,664.75134561798
731,664.5865881139208
732,664.4200825035122
733,664.2522217147618
734,664.0833971855042
735,663.9139970998806
736,663.744404685303
737,663.5749965934164
738,663.4061413837236
739,663.2381981228725
740,663.0715151074538
741,662.9064287145188
742,662.7432623821261
743,662.5823257215878
744,662.4239137626423
745,662.2683063318946
746,662.1157675637235
747,661.9665455414844
748,661.8208720652686
749,661.6789625414365
750,661.5410159891809
751,661.4072151599131
752,661.2777267650043
753,661.1527018052964
754,661.0322759918262
755,660.9165702430307
756,660.8056912413368
757,660.6997320323205
758,660.5987726517961
759,660.5028807684618
760,660.4121123303688
761,660.3265122023897
762,660.2461147803689
763,660.170944567153
764,660.1010166971287
765,660.0363373999216
766,659.9769044004568
767,659.9227072602695
768,659.8737276718255
769,659.8299397226178
770,659.7913101492484
771,659.7577986038336
772,659.7293579557561
773,659.7059346513345
774,659.6874691529993
775,659.6738964772459
776,659.6651468449635
777,659.6611464479147
778,659.6618183232754
779,659.6670833179727
780,659.6768611188869
781,659.6910713240993
782,659.7096345323249
783,659.732473429917
784,659.7595138559938
785,659.7906858264483
786,659.8259244978861
787,659.8651710539342
788,659.9083734994858
789,659.9554873530125
790,660.0064762319596
791,660.0613123303407
792,660.1199767907655
793,660.182459975551
794,660.2487616430877
795,660.3188910359224
796,660.3928668864838
797,660.4707173459166
798,660.5524798414641
799,660.6382008681184
800,660.7279357204746
801,660.8217481702508
802,660.9197100930543
803,661.0219010446647
804,661.1284077832629
805,661.2393237310702
806,661.3547483677746
807,661.4747865490272
808,661.5995477455806
809,661.7291452016883
810,661.8636950145738
811,662.0033151393387
812,662.148124324714
813,662.2982409842264
814,662.4537820055131
815,662.6148614993507
816,662.7815894909508
817,662.9540705596156
818,663.1324024381743
819,663.3166745888642
820,663.5069667752855
821,663.7033476500069
822,663.9058733761428
823,664.1145863009517
824,664.3295137002406
825,664.5506666126893
826,664.7780387823908
827,665.011605725985
828,665.2513239375597
829,665.4971302397385
830,665.7489412840966
831,666.0066532009704
832,666.2701413997414
833,666.5392605245155
834,666.8138445733247
835,667.0937071888993
836,667.37864212546
837,667.6684238910308
838,667.9628085613252
839,668.2615347602872
840,668.5643248024325
841,668.8708859915668
842,669.1809120686833
843,669.4940847987342
844,669.8100756816882
845,670.1285477688684
846,670.4491575623935
847,670.771556974148
848,671.0953953208015
849,671.420321332521
850,671.7459851544713
851,672.0720403206356
852,672.3981456780443
853,672.7239672372677
854,673.0491799244264
855,673.3734692121631
856,673.6965326108451
857,674.0180810050782
858,674.3378398240039
859,674.6555500375184
860,674.9709689751539
861,675.2838709699867
862,675.5940478355152
863,675.9013091871635
864,676.2054826209662
865,676.5064137609343
866,676.8039661848583
867,677.0980212364088
868,677.3884777294774
869,677.6752515495285
870,677.9582751577112
871,678.237497007202
872,678.5128808862748
873,678.7844052063858
874,679.05206225445
875,679.3158574265888
876,679.5758084572178
877,679.8319446534081
878,680.0843061397333
879,680.3329431128676
880,680.577915099221
881,680.8192902053662
882,681.0571443509795
883,681.2915604760375
884,681.522627716128
885,681.7504405410423
886,681.9750978524821
887,682.1967020374211
888,682.4153579752708
889,682.6311719999361
890,682.8442508217006
891,683.0547004176519
892,683.2626249023041
893,683.4681253924626
894,683.6712988828181
895,683.8722371511782
896,684.0710257139718
897,684.2677428530577
898,684.4624587339661
899,684.6552346338241
900,684.8461222942854
901,685.0351634104783
902,685.2223892618399
903,685.4078204862996
904,685.5914669968878
905,685.773328039052
906,685.9533923865168
907,686.1316386728839
908,686.3080358552121
909,686.4825438039185
910,686.6551140097488
911,686.8256903936928
912,686.9942102008793
913,687.1606049556617
914,687.3248014526829
915,687.4867227582681
916,687.6462891987943
