frame_number,force
0,642.867920000028
1,642.5818495107626
2,642.2968332531432
3,642.0141018201717
4,641.735166493555
5,641.4618041955882
6,641.1959181685576
7,640.9393100783507
8,640.6934199535658
9,640.4590919435506
10,640.236414828634
11,640.0246654281366
12,639.822349408041
13,639.6273033983571
14,639.4368165963368
15,639.2477515037442
16,639.0566723693998
17,638.8600039129205
18,638.6542347462204
19,638.4361611406217
20,638.2031550633012
21,637.9534417783627
22,637.6863775001316
23,637.4027142001095
24,637.104824538371
25,636.7968424772928
26,636.4846612604873
27,636.1757267295676
28,635.8785825591281
29,635.6021717239441
30,635.3549622022165
31,635.1440184648411
32,634.9741653938539
33,634.8473853722937
34,634.7625559935423
35,634.7155796503442
36,634.6998877159793
37,634.7072346790228
38,634.7286433072281
39,634.7553393943668
40,634.7795441289023
41,634.7950633166523
42,634.7976767722141
43,634.7853452477791
44,634.7582244435715
45,634.7184565526339
46,634.669738035645
47,634.6167223669037
48,634.5643599603169
49,634.5172783314939
50,634.4792749328594
51,634.4529551637921
52,634.4395166659584
53,634.438670241035
54,634.4486967277213
55,634.4666538397319
56,634.4887493570653
57,634.5108724609424
58,634.5292236077462
59,634.5409294639344
60,634.5445063967517
61,634.5400620948203
62,634.5291947411511
63,634.514636119992
64,634.4997522403424
65,634.4880376425209
66,634.4827175183582
67,634.4865216897576
68,634.501638445016
69,634.5298146068185
70,634.5725470936419
71,634.6312994037434
72,634.7076669686945
73,634.8034218668677
74,634.9204032042609
75,635.0602704914152
76,635.2241770551318
77,635.4124401895816
78,635.6242867572558
79,635.8577327102907
80,636.1096150219674
81,636.3757559173246
82,636.651218632883
83,636.9306075616888
84,637.2083663120736
85,637.479038318274
86,637.7374809631368
87,637.9790546493151
88,638.1998167753873
89,638.3967260451362
90,638.5678315189073
91,638.7124183256387
92,638.8311053234085
93,638.9259043428042
94,639.0002351574705
95,639.0588611164418
96,639.107698786644
97,639.1534746706247
98,639.2032423045711
99,639.2638147888985
100,639.3411941501879
101,639.4400779790544
102,639.5634972021528
103,639.7126034664326
104,639.8865990129415
105,640.0827944491631
106,640.296784264444
107,640.5227295604117
108,640.7537262087517
109,640.9822327627252
110,641.2005508440719
111,641.4013708844844
112,641.5783831823068
113,641.726904879124
114,641.8444204591864
115,641.9309105591434
116,641.9888619445784
117,642.022906394192
118,642.0391215982329
119,642.0441248587186
120,642.0441603930885
121,642.0443817341402
122,642.0484554120218
123,642.0585021008849
124,642.0753037576093
125,642.0986654849471
126,642.1278183856075
127,642.1617707941216
128,642.1995520537464
129,642.2403301428991
130,642.2834100964049
131,642.3281396930007
132,642.3737658292363
133,642.4192883550423
134,642.4633455556011
135,642.5041552483333
136,642.5395389690098
137,642.5670562833744
138,642.584247895797
139,642.5889386530117
140,642.5795256330085
141,642.5551997789469
142,642.5161032200742
143,642.4634622817887
144,642.3997261016391
145,642.3286873618915
146,642.2555013464323
147,642.1864962155265
148,642.1287035163059
149,642.0891215468517
150,642.0738190322506
151,642.0870518150807
152,642.1305740917825
153,642.2032811497472
154,642.3012518403864
155,642.4181930697754
156,642.5462325538796
157,642.6769589233983
158,642.8025716561915
159,642.9169808084071
160,643.0166943347541
161,643.1013567818735
162,643.1738605090296
163,643.2400309134136
164,643.3079632795403
165,643.3871267837875
166,643.4873457735612
167,643.6177517580342
168,643.7857994262976
169,643.9964495979817
170,644.2516162037153
171,644.5499386099314
172,644.8868834602158
173,645.2551295265157
174,645.6451703492233
175,646.0460804258308
176,646.4464035307396
177,646.8351141426228
178,647.2025777340567
179,647.5414092269581
180,647.8471169631463
181,648.1184339116944
182,648.3572790090359
183,648.5683474861854
184,648.7583904200904
185,648.9353042016784
186,649.1071898125697
187,649.2815337602135
188,649.4646041687324
189,649.6610720272397
190,649.8737978671476
191,650.1037051953629
192,650.349701477599
193,650.608666892029
194,650.8755631964553
195,651.1437115382234
196,651.4052662740105
197,651.6518773065745
198,651.8754843608971
199,652.0691365142624
200,652.227702719477
201,652.3483488614761
202,652.4307035143019
203,652.476705134369
204,652.4901965209664
205,652.4763825249933
206,652.4412738110266
207,652.3912025280906
208,652.332441733399
209,652.2709233131542
210,652.212038034974
211,652.1604989197924
212,652.1202431436773
213,652.0943486147698
214,652.0849608072583
215,652.0932499912394
216,652.1194220352774
217,652.1627823629032
218,652.2218274819495
219,652.2943401141798
220,652.3774950526619
221,652.468015973709
222,652.5624231841193
223,652.6573672447162
224,652.7499781161104
225,652.8381186923326
226,652.9204523524411
227,652.9963168534453
228,653.0654936825135
229,653.1280077612118
230,653.1840580376803
231,653.234091264858
232,653.27894399838
233,653.3199400722401
234,653.358860825996
235,653.397777640988
236,653.4387974876772
237,653.4837874094837
238,653.5341236816522
239,653.5904869322331
240,653.6527108779972
241,653.7196878355451
242,653.7893389255522
243,653.8586687537545
244,653.92392799363
245,653.9808906027093
246,654.0252252848327
247,654.0529221809709
248,654.0607300495615
249,654.046556870515
250,654.0097847867805
251,653.9514581578497
252,653.874323503868
253,653.7827176336235
254,653.6823053322114
255,653.579670662041
256,653.4817812403151
257,653.3953730465996
258,653.3263295859516
259,653.2791395715001
260,653.2565085550148
261,653.2591749691309
262,653.2859465850867
263,653.3339424444421
264,653.399006858376
265,653.4762517126705
266,653.5606735753922
267,653.6477819834146
268,653.7341653021854
269,653.8179105811311
270,653.8987911608726
271,653.9781573930567
272,654.0585211884754
273,654.1428964881053
274,654.2340117941026
275,654.3335302918772
276,654.4414020908914
277,654.5554413139581
278,654.6711816166204
279,654.7820342457151
280,654.8797547705306
281,654.9552011613825
282,654.9993264193996
283,655.0043004653181
284,654.9646092842825
285,654.8779476166868
286,654.7457284444123
287,654.5730950991754
288,654.3684228844137
289,654.1423929337994
290,653.9067815781183
291,653.6731382662525
292,653.4515362923321
293,653.2495658516933
294,653.0716904310702
295,652.9190196497927
296,652.7894860573583
297,652.6783645168014
298,652.5790490942264
299,652.4839978300099
300,652.3857532454208
301,652.2779400520823
302,652.1561379019158
303,652.0185326213366
304,651.8662700128369
305,651.7034716988785
306,651.5369107615181
307,651.3753767786434
308,651.2287874876259
309,651.1071297902042
310,651.0193318911405
311,650.9721818086216
312,650.9694260396197
313,651.0112031368452
314,651.0939540729457
315,651.2108684755739
316,651.3527924867093
317,651.509408996702
318,651.6704580287823
319,651.8267923549163
320,651.9711281643314
321,652.0984279929063
322,652.2059294836913
323,652.292894688826
324,652.3601895575792
325,652.4098087013749
326,652.4444372234406
327,652.4670968376606
328,652.4808790980301
329,652.488749572462
330,652.4934160538996
331,652.4972686421237
332,652.502401836477
333,652.5107208745663
334,652.524121857806
335,652.5447177555943
336,652.575063298381
337,652.618316826088
338,652.6782702479469
339,652.7591875970083
340,652.8654301955148
341,653.0009087145538
342,653.168461814737
343,653.3692881553424
344,653.6025457999191
345,653.8651925076632
346,654.1520911570692
347,654.4563656987882
348,654.7699736635033
349,655.0844507312017
350,655.3917633427131
351,655.6851764198163
352,655.9600208445398
353,656.2142407386285
354,656.448618632281
355,656.6666226418173
356,656.8738884950158
357,657.0774174155468
358,657.2846122161803
359,657.5022771422737
360,657.7356827307399
361,657.9877708856918
362,658.2585691639216
363,658.5448956826287
364,658.8404382770814
365,659.1362520926529
366,659.4216436531431
367,659.6853340520958
368,659.9167457135366
369,660.1072392588582
370,660.2511387208326
371,660.3464196455432
372,660.3949805714847
373,660.4024680892418
374,660.3776872005576
375,660.331695493377
376,660.2767233761658
377,660.2250649843686
378,660.1880549606623
379,660.1752067920104
380,660.1935560214458
381,660.2472339417398
382,660.3372883973917
383,660.4617557663657
384,660.6159718862875
385,660.7931006786054
386,660.9848552790542
387,661.1823662261138
388,661.3771040716819
389,661.5617167359027
390,661.7306398622596
391,661.8803929210167
392,662.009550511844
393,662.1184404445793
394,662.2086605878254
395,662.2825306323377
396,662.3425958394422
397,662.391265580383
398,662.4306113718553
399,662.4623031724359
400,662.4876498064419
401,662.5077134064817
402,662.5234673395361
403,662.5359659627213
404,662.5465036390988
405,662.556750226773
406,662.5688447647942
407,662.585416051262
408,662.6095022442431
409,662.644368221379
410,662.693249868882
411,662.7590677404912
412,662.8441461938405
413,662.9499590542471
414,663.0769121027133
415,663.224175400473
416,663.3895914845441
417,663.5696950849077
418,663.7598756953305
419,663.9546924781305
420,664.1483152770663
421,664.3350316370662
422,664.5097458723968
423,664.6684073833111
424,664.8083335635324
425,664.9284233546563
426,665.0292731201437
427,665.1131960724581
428,665.1841202364393
429,665.2473252625051
430,665.3089960376602
431,665.3756197491786
432,665.4533112272137
433,665.5471856220078
434,665.6608836529273
435,665.7963029831745
436,665.9535374079286
437,666.1309983420575
438,666.3256822531853
439,666.5335397700209
440,666.7499027754557
441,666.9699385344877
442,667.1891081194824
443,667.4035956177537
444,667.6106556737105
445,667.8088245249791
446,667.9979649708955
447,668.1791528842982
448,668.3544351874791
449,668.5264905146138
450,668.6982248684961
451,668.872351135197
452,669.0510190732941
453,669.235557082976
454,669.4263578944567
455,669.6229078188431
456,669.8239362744013
457,670.0276444897582
458,670.2319588085156
459,670.434761113054
460,670.6340860198459
461,670.8283164457856
462,671.0164137058705
463,671.1981733032902
464,671.3744363378839
465,671.5471540290195
466,671.7192199410451
467,671.8940470877533
468,672.0749561903413
469,672.264520717383
470,672.46404009028
471,672.6732634078517
472,672.8903879898776
473,673.1122704298122
474,673.3347578090851
475,673.5530669910773
476,673.7621726677581
477,673.9571832143012
478,674.1336854232642
479,674.2880339186486
480,674.4175578880973
481,674.5206648606955
482,674.5968390962402
483,674.6465507994571
484,674.6711051613357
485,674.6724702810285
486,674.6531264184086
487,674.6159611924086
488,674.5641974304203
489,674.5013072736465
490,674.430858888927
491,674.3562618275669
492,674.2804144974003
493,674.2053001746316
494,674.1316117389024
495,674.0584965096175
496,673.9834960206216
497,673.9027183205577
498,673.8112358487797
499,673.7036592115171
500,673.5748006496168
501,673.4203172442408
502,673.23722134111
503,673.0241685875357
504,672.7814801020322
505,672.5109151064642
506,672.2152662099029
507,671.8978805712197
508,671.5622055572196
509,671.2114268453361
510,670.8482327606915
511,670.474716043079
512,670.092410415032
513,669.7024437072085
514,669.3057670619676
515,668.903394250872
516,668.4965694037459
517,668.0867977788364
518,667.675730507056
519,667.2649595590665
520,666.8558096939006
521,666.4491993539572
522,666.045604342026
523,665.6451213090954
524,665.2476052651723
525,664.8528440230286
526,664.4607232687334
527,664.071330415093
528,663.6849563691833
529,663.301986642381
530,662.922712816551
531,662.5471209554149
532,662.1747173645231
533,661.8044406251682
534,661.4346859199183
535,661.0634366070514
536,660.6884740453459
537,660.3076336343703
538,659.9190848330129
539,659.5216160791126
540,659.1148947751922
541,658.6996533908198
542,658.2777345604774
543,657.8519281385766
544,657.4255708586302
545,657.001949714851
546,656.5836195049849
547,656.1717786349828
548,655.7658347874045
549,655.3632471798072
550,654.9596773881301
551,654.549429863816
552,654.1261189495972
553,653.6834657260133
554,653.2161146605641
555,652.7203684709874
556,652.1947612323212
557,651.6404175809156
558,651.0611772905407
559,650.4634912271043
560,649.8561039895354
561,649.2495319190583
562,648.6553445910388
563,648.0852822135495
564,647.5502834184554
565,647.0595326202113
566,646.6196454293032
567,646.234096380058
568,645.902966178308
569,645.6230505782594
570,645.3883308312475
571,645.1907573482932
572,645.0212439090208
573,644.8707198992028
574,644.7310654311143
575,644.5957713254983
576,644.4602180657452
577,644.3215477564365
578,644.178197704265
579,644.0292426319711
580,643.8737233912057
581,643.7101196815244
582,643.5360741921568
583,643.3484170259346
584,643.1434825298935
585,642.9176618785739
586,642.6680963228001
587,642.3933840412851
588,642.0941515375895
589,641.7733499367272
590,641.4361938143007
591,641.0897468562497
592,640.7422314779157
593,640.4021717726687
594,640.0774818915365
595,639.7746117906056
596,639.4978663805133
597,639.249005335014
598,639.0271910845388
599,638.8292840292979
600,638.6504126505226
601,638.4847033197614
602,638.3260490468904
603,638.1688107056775
604,638.0083620947472
605,637.841414728046
606,637.6660972447567
607,637.4818103537847
608,637.2889145217745
609,637.0883253104047
610,636.8810921263549
611,636.6680255620934
612,636.4494218645593
613,636.2249124546267
614,635.9934416677762
615,635.75335338034
616,635.5025558342526
617,635.2387310456036
618,634.9595558652322
619,634.6629152413382
620,634.3471169212556
621,634.0111345513598
622,633.6548892859778
623,633.2795438008461
624,632.887757755469
625,632.4838477263586
626,632.0738000003552
627,631.665102514969
628,631.2663953748224
629,630.8869771416115
630,630.5362273547361
631,630.223001803816
632,629.9550314477648
633,629.7383311354586
634,629.5766227892908
635,629.4708057644816
636,629.4185526316
637,629.4141453181777
638,629.448666822671
639,629.5106184185323
640,629.5869522776266
641,629.6644120879474
642,629.7309842042428
643,629.7772164153553
644,629.7971886151819
645,629.7890073689398
646,629.7547967634
647,629.7002291926196
648,629.6336783284623
649,629.5651046889722
650,629.5048139185727
651,629.4622498455701
652,629.4449849737549
653,629.4580408292595
654,629.5036036925733
655,629.5811103805014
656,629.6876024798811
657,629.8182198564901
658,629.9667248458843
659,630.1259935574518
660,630.2884588457933
661,630.4465269751515
662,630.5930042133408
663,630.7215531051271
664,630.8271629445485
665,630.9065907782457
666,630.958718877793
667,630.9847745271973
668,630.9883684614141
669,630.9753354867457
670,630.9533930972308
671,630.9316508664932
672,630.9200026406975
673,630.9284301121133
674,630.9662542478673
675,631.0413937977462
676,631.1597178232754
677,631.3245893429364
678,631.5366702809541
679,631.794000791867
680,632.0923115209007
681,632.4255027666205
682,632.7862253321192
683,633.1664998757986
684,633.5583062105515
685,633.9540780750187
686,634.3470650178986
687,634.7315583331389
688,635.1030018787671
689,635.458014695151
690,635.7943471024973
691,636.1107878163409
692,636.4070479440916
693,636.6836616680192
694,636.9419361260603
695,637.1839439962076
696,637.412510753379
697,637.6311391788877
698,637.8438394571998
699,638.054874945068
700,638.2684715521093
701,638.4885569298289
702,638.7185851166082
703,638.9614627516625
704,639.2195366928622
705,639.4945615395592
706,639.7875756843202
707,640.0986766157255
708,640.42675563208
709,640.7692857217535
710,641.1222491887294
711,641.4802628825759
712,641.836925435865
713,642.185376201072
714,642.5190123041091
715,642.8322584946479
716,643.1212457307422
717,643.3842557885026
718,643.6218379358112
719,643.8365837184103
720,644.0326313158092
721,644.2150345539521
722,644.389147134775
723,644.5601295174899
724,644.7326098166302
725,644.9104704795914
726,645.0967186581794
727,645.2934151552524
728,645.5016499402651
729,645.7215483609054
730,645.9522885449666
731,646.1921262984409
732,646.4384546515705
733,646.6879467873325
734,646.9368221618694
735,647.1812360455153
736,647.4177422857846
737,647.643743559147
738,647.8578382150549
739,648.0599934737859
740,648.2515076783254
741,648.4347658922968
742,648.6128424777231
743,648.7890453239571
744,648.9665071447253
745,649.1479030559964
746,649.3353231573011
747,649.5302762369112
748,649.7337637858628
749,649.946347928568
750,650.1681438764625
751,650.3987009335643
752,650.6367932420975
753,650.880200781751
754,651.1255869825967
755,651.36855019008
756,651.6038619375392
757,651.825851556004
758,652.0288788459065
759,652.2078397756025
760,652.3586514920045
761,652.4786600672695
762,652.5669178026692
763,652.6242913900833
764,652.6533854507811
765,652.6582932070545
766,652.6442104481316
767,652.6169642269629
768,652.5825138629693
769,652.5464817431771
770,652.5137633654978
771,652.4882505186123
772,652.4726881561803
773,652.4686774432337
774,652.4768204425258
775,652.4969686667632
776,652.5285068871539
777,652.5705953955791
778,652.6223061242193
779,652.6826142197542
780,652.7502527807259
781,652.8235002458953
782,652.9000158920738
783,652.9768336584847
784,653.050561342858
785,653.1177422816827
786,653.1752718569587
787,653.2207581569128
788,653.2527650168533
789,653.2709282358569
790,653.2759532289277
791,653.2694949079113
792,653.2539276880188
793,653.2320457790988
794,653.2067588861573
795,653.1808381539345
796,653.1567309589052
797,653.1364297153306
798,653.1213677326808
799,653.1123216806533
800,653.1093137154273
801,653.1115239277611
802,653.117245573849
803,653.1239289262886
804,653.1283488374445
805,653.1268960546544
806,653.1159489573117
807,653.0922554698634
808,653.0532619900587
809,652.9973548830991
810,652.9239986687887
811,652.8337552705702
812,652.7281755861055
813,652.609584818937
814,652.4808161541343
815,652.3449525705985
816,652.2051126624452
817,652.0642899623786
818,651.9252479094989
819,651.7904830962125
820,651.6622798891025
821,651.5428686310604
822,651.4346610217676
823,651.3404892587995
824,651.2637512215406
825,651.2083816753463
826,651.1786230597446
827,651.178629158951
828,651.2119704498595
829,651.2811172347851
830,651.386973411975
831,651.528530811855
832,651.702705967844
833,651.9043995378548
834,652.1267831282997
835,652.3617785386114
836,652.6006640492582
837,652.8347291353438
838,653.0559032572862
839,653.2573044233252
840,653.4336813646028
841,653.5817413005952
842,653.700348684453
843,653.790557328927
844,653.8554288820163
845,653.8996191289956
846,653.9287720773485
847,653.9488157919632
848,653.9652754502403
849,653.9827076116567
850,654.0043307929924
851,654.0318885265484
852,654.0657315067679
853,654.1050575598495
854,654.1482248936051
855,654.1930634428438
856,654.2371398163823
857,654.2779662789823
858,654.3131687480687
859,654.3406378599329
860,654.3586826472214
861,654.3661857176498
862,654.3627253263767
863,654.3486086364276
864,654.3247777671739
865,654.2925992759025
866,654.2535943156388
867,654.2091820403011
868,654.1604899475166
869,654.1082519824921
870,654.0527922093355
871,653.9940836389159
872,653.9318663886846
873,653.8658021672036
874,653.7956400868009
875,653.7213701499167
876,653.643335441524
877,653.56226592877
878,653.4792017466036
879,653.3952990384296
880,653.3115505592895
881,653.2284916391598
882,653.1459783864758
883,653.0631059744932
884,652.978293871224
885,652.8895292927795
886,652.7947398241405
887,652.6922490321704
888,652.5812448393707
889,652.4621669096471
890,652.3369157046767
891,652.2088166147074
892,652.082331861286
893,651.9625744789737
894,651.8547133821511
895,651.7633549075307
896,651.69196066588
897,651.6423471317044
898,651.6143240495335
899,651.6055398850758
900,651.6115766160318
901,651.6262785463215
902,651.6422557903632
903,651.6515016432229
904,651.6460815355247
905,651.6188480319825
906,651.564108653334
907,651.4781585115842
908,651.3596109854593
909,651.2095015287425
910,651.0311785465375
911,650.8300211112605
912,650.6130317316242
913,650.388344009202
914,650.1646740976081
915,649.9507481202693
916,649.7547525363821
917,649.583864556196
