frame_number,force
0,594.3854400000401
1,594.3752442560447
2,594.3693498561214
3,594.3711538033482
4,594.3824738816518
5,594.4032568314278
6,594.4317152426368
7,594.4648334397608
8,594.4990944418
9,594.5312348265121
10,594.5588567526326
11,594.5807991029228
12,594.5972442196061
13,594.6095819047189
14,594.6200714889234
15,594.6313547355985
16,594.6458895125375
17,594.6653922745065
18,594.6903837340143
19,594.7199217699826
20,594.7515826759775
21,594.7817164568323
22,594.8059497949266
23,594.8198499956844
24,594.8196211812448
25,594.8027011311716
26,594.7681584732632
27,594.7168372089162
28,594.6512480944823
29,594.57525806124
30,594.4936649624452
31,594.4117471790919
32,594.3348435126359
33,594.2679697276584
34,594.2154472403818
35,594.1805287452547
36,594.1650468750519
37,594.1691519840047
38,594.1912130483348
39,594.2279264809855
40,594.2746332687318
41,594.3258127372522
42,594.3757054098526
43,594.418996562742
44,594.4514564254135
45,594.4704104023331
46,594.4749385192304
47,594.4657725648814
48,594.4449331614477
49,594.4151988363114
50,594.379519297837
51,594.3404761219668
52,594.2998635239727
53,594.2584273454281
54,594.2157742415787
55,594.1704458605391
56,594.1201409158673
57,594.0620557467885
58,593.9932964061022
59,593.9112984272451
60,593.8141896287018
61,593.7010539496521
62,593.5720858016084
63,593.4286412373967
64,593.2731909579796
65,593.1091788814933
66,592.9407986812151
67,592.7727102072362
68,592.6097196739858
69,592.4564458053898
70,592.3169939203618
71,592.194659774529
72,592.0916829109018
73,592.0090667303781
74,591.9464804639525
75,591.9022562823494
76,591.8734918294501
77,591.8562618537941
78,591.8459332268386
79,591.8375719233459
80,591.826426289265
81,591.8084540413399
82,591.7808295965247
83,591.7423441679465
84,591.6936108230185
85,591.6370108028774
86,591.5763619823258
87,591.5163467450826
88,591.4617823280148
89,591.4168361175005
90,591.3842957619149
91,591.3650166371249
92,591.3576680112218
93,591.3588522570885
94,591.3635875348773
95,591.3660657838716
96,591.3605484996614
97,591.3422393733694
98,591.307977521744
99,591.2566384673798
100,591.1892042399478
101,591.1085384607549
102,591.0189487156844
103,590.9256283261792
104,590.8340531661343
105,590.7493864144701
106,590.6759312437894
107,590.6166687848877
108,590.5729149468023
109,590.5441223432678
110,590.5278548830182
111,590.519973805833
112,590.5150685593455
113,590.5071184891328
114,590.4902953988161
115,590.4597580225511
116,590.4122843316485
117,590.3466378252235
118,590.2636412957457
119,590.166001868445
120,590.0579695207763
121,589.9449078601921
122,589.8328246476433
123,589.7278834317337
124,589.635917923232
125,589.5619861726497
126,589.5100056781719
127,589.482491668202
128,589.4803938342891
129,589.5030176669144
130,589.548032928446
131,589.6115921078152
132,589.6885796986822
133,589.7729875761252
134,589.8583856633105
135,589.9384522749463
136,590.0075409356742
137,590.061261207604
138,590.0970213751852
139,590.1144408988433
140,590.115527183937
141,590.1045375971587
142,590.0875034070615
143,590.0714657925738
144,590.0635507963635
145,590.0700620025292
146,590.095768818416
147,590.1435119088379
148,590.21416109921
149,590.3068768390808
150,590.4195641350854
151,590.5493763881326
152,590.6931300250221
153,590.8475303647474
154,591.0091795647126
155,591.1744233934264
156,591.3391678882674
157,591.4988239422829
158,591.6484910138735
159,591.7833846405013
160,591.8994064379813
161,591.9937075492043
162,592.0651117256715
163,592.1143066590378
164,592.1437562844923
165,592.1573341197483
166,592.1597346894114
167,592.1557796865494
168,592.1497763123507
169,592.1450797096126
170,592.143946734706
171,592.1476697805311
172,592.1569006791153
173,592.1720477787883
174,592.1936372382263
175,592.2225463798737
176,592.2600447902402
177,592.3076260053177
178,592.3666693582056
179,592.4380230221374
180,592.5216327780804
181,592.6163382554063
182,592.7199055157698
183,592.8292767739417
184,592.9409401921648
185,593.0512972951967
186,593.1569371087912
187,593.2547856901128
188,593.3421552769835
189,593.4167510625897
190,593.4767008807077
191,593.5206564258228
192,593.5479789154548
193,593.5589765274253
194,593.5551247768593
195,593.5391931399145
196,593.5152186259653
197,593.4882891865245
198,593.4641207302624
199,593.4484476224127
200,593.4463058365577
201,593.461346359252
202,593.4953346756844
203,593.5479513923992
204,593.616928104997
205,593.6984699373289
206,593.7878600533857
207,593.8801210422838
208,593.9706198832507
209,594.0555332554992
210,594.1321207185755
211,594.1987817624895
212,594.2549126665193
213,594.3006319581024
214,594.3364786473203
215,594.3631737879897
216,594.381482886003
217,594.3921630562992
218,594.395949113444
219,594.3935313244302
220,594.3855057163547
221,594.372322308791
222,594.3542802528369
223,594.3315960943593
224,594.3045215665715
225,594.2734547911876
226,594.2389989708188
227,594.2019629963038
228,594.1633340092671
229,594.1242564821356
230,594.0860269988832
231,594.0500839385935
232,594.0179642588234
233,593.991217323022
234,593.9712825642966
235,593.9593379283834
236,593.9561252802456
237,593.9617736171888
238,593.9756586587923
239,593.9963379714283
240,594.0215851880321
241,594.0485290182655
242,594.0738891737665
243,594.0942911407325
244,594.1066338556769
245,594.1084755851309
246,594.0983876151927
247,594.0762049078693
248,594.043095572415
249,594.0013955062672
250,593.9542074062929
251,593.9048199670813
252,593.8560433249212
253,593.8095797928962
254,593.7655579104797
255,593.7223435131626
256,593.6766948326506
257,593.6242593850683
258,593.5603389876718
259,593.4807923555379
260,593.3829156869738
261,593.2661466314717
262,593.1324684610612
263,592.9864363561987
264,592.8348002322516
265,592.6857575501967
266,592.5479328025738
267,592.4292403422008
268,592.3358267109254
269,592.2712833501641
270,592.2362612935715
271,592.228528353657
272,592.2434204911779
273,592.274571086398
274,592.3147617359808
275,592.3567362935642
276,592.3938605331722
277,592.4205760853888
278,592.4326605692222
279,592.4273450523766
280,592.4033469004443
281,592.360854946225
282,592.3014716341343
283,592.228094057572
284,592.1447114842364
285,592.0561066275216
286,591.9674664654751
287,591.8839316263833
288,591.8101330777654
289,591.7497762712444
290,591.7053364879124
291,591.6779196701564
292,591.6673119568338
293,591.6721920385334
294,591.6904330404526
295,591.7194004697672
296,591.7561746718352
297,591.7976795953316
298,591.8407522311011
299,591.8822097543699
300,591.9189587591445
301,591.9481589108441
302,591.9674232003167
303,591.9750228734036
304,591.9700674170313
305,591.9526370670746
306,591.9238462423458
307,591.8858123699342
308,591.8415072318745
309,591.7944866205061
310,591.7485230290167
311,591.7071882041415
312,591.6734424402504
313,591.6492961194626
314,591.6356115325144
315,591.632083838621
316,591.6373784369855
317,591.6493506137937
318,591.6652705151155
319,591.6820185972682
320,591.6962708626982
321,591.7047218019466
322,591.7043754946008
323,591.6928877478721
324,591.6689032418368
325,591.6323229593702
326,591.5844503606961
327,591.5279855965315
328,591.4668610278924
329,591.4059329715793
330,591.3505550910521
331,591.3060629320454
332,591.277212577626
333,591.2676405092628
334,591.2794281551326
335,591.3128468216037
336,591.3663272046998
337,591.4366555190381
338,591.5193587528767
339,591.6092129905909
340,591.7007963039989
341,591.7890104633653
342,591.8695061662187
343,591.9389614489396
344,591.9951859585736
345,592.0370528031553
346,592.0642877223145
347,592.0771720989203
348,592.0762402493641
349,592.0620554163327
350,592.0351181028561
351,591.995910276625
352,591.9450450093194
353,591.8834871119177
354,591.8128116320848
355,591.7354465386923
356,591.6548152224566
357,591.5752923322138
358,591.5019331973502
359,591.4400130575299
360,591.394474295792
361,591.3693946359231
362,591.3675600489371
363,591.3901852649369
364,591.4367972437709
365,591.505279038267
366,591.5920500687907
367,591.6923399664549
368,591.8005144218381
369,591.9104291092392
370,592.0157987721074
371,592.1105676910888
372,592.1892698078518
373,592.2473734288653
374,592.2816010777308
375,592.2901933512561
376,592.2730617625531
377,592.2317745326814
378,592.1693537805384
379,592.0899176312428
380,591.998244811556
381,591.8993511062637
382,591.7981470443295
383,591.6992088010206
384,591.6066597304895
385,591.524143943767
386,591.4548718821504
387,591.401709812121
388,591.3672625856525
389,591.3538839527478
390,591.3635662663717
391,591.3977067656122
392,591.4567945157854
393,591.5400915439701
394,591.6453885776862
395,591.7689010335848
396,591.9053413472762
397,592.0481707683693
398,592.1900058644526
399,592.3231370355876
400,592.4401122046531
401,592.5343451500077
402,592.6007112893109
403,592.6360848684126
404,592.6397570007952
405,592.6136672007052
406,592.5623887604828
407,592.4928307967074
408,592.4136554178418
409,592.3344526698435
410,592.2647607717976
411,592.213055100856
412,592.1858445141003
413,592.1869981508803
414,592.2173820829651
415,592.2748291603173
416,592.3544190776709
417,592.4490224066783
418,592.550053244707
419,592.6483600565633
420,592.7351618982556
421,592.8029259844818
422,592.8460915935251
423,592.8615670614358
424,592.8489530656939
425,592.8104738517122
426,592.7506295710573
427,592.6756208035692
428,592.5926364745943
429,592.5091181526201
430,592.4320932180708
431,592.3676121589324
432,592.3202773688209
433,592.2928577223436
434,592.2860379745501
435,592.2983979282559
436,592.3266995679447
437,592.3664781549097
438,592.412833515122
439,592.4612541493054
440,592.5083013117272
441,592.5520246803793
442,592.5920536401193
443,592.6293848796871
444,592.665950251715
445,592.7040838845744
446,592.7460043787071
447,592.7933937120737
448,592.8471077332679
449,592.9070081501131
450,592.9718780420765
451,593.0393892096372
452,593.1061248260937
453,593.1676924944185
454,593.2189646769159
455,593.2544585645934
456,593.2688349115248
457,593.2574683867816
458,593.2170230580864
459,593.1459560003407
460,593.044872640342
461,592.9166715233764
462,592.7664431389564
463,592.6011239322148
464,592.4289435693541
465,592.2587279412837
466,592.0991277933715
467,591.9578431258152
468,591.8409174677965
469,591.7521809951595
470,591.692914424391
471,591.6617795595009
472,591.6550246449395
473,591.6669364864422
474,591.6904826893415
475,591.7180673810602
476,591.7423173264933
477,591.7568260961405
478,591.7568023167977
479,591.7395754170835
480,591.7049015274948
481,591.6550002087849
482,591.5942708029182
483,591.5287033565331
484,591.465089196757
485,591.4101912946674
486,591.3700146694517
487,591.3492441094689
488,591.3508493464772
489,591.3758345204833
490,591.4231230035292
491,591.4895930115031
492,591.5702935276215
493,591.6588617313148
494,591.7481239242303
495,591.830803360279
496,591.9002184731673
497,591.9508650695776
498,591.9788261632572
499,591.9820033141458
500,591.9601840681017
501,591.9149556505364
502,591.849472745443
503,591.768106112309
504,591.6760275492786
505,591.5787963674713
506,591.4819922582045
507,591.3909094816462
508,591.3103126144754
509,591.2442537144271
510,591.1959463504478
511,591.1676816335952
512,591.160772626055
513,591.1755309026321
514,591.2112913947096
515,591.266489478244
516,591.3387685755039
517,591.425086260726
518,591.5218020198379
519,591.6247558329136
520,591.729368629017
521,591.8308040743876
522,591.9242150644578
523,592.0050574807697
524,592.0694115800893
525,592.1142376076
526,592.1375164119171
527,592.1382717447987
528,592.1165127613614
529,592.0731563389264
530,592.0099846342187
531,591.9296638656109
532,591.8358027916713
533,591.7329863017807
534,591.6267097984706
535,591.523170965358
536,591.4289186572323
537,591.3503805658725
538,591.2932969156004
539,591.2621072752138
540,591.2593762280958
541,591.2853713909052
542,591.3378978844886
543,591.4124466044427
544,591.5026473573658
545,591.6009551170474
546,591.6994593866875
547,591.7907047027211
548,591.8684363853197
549,591.928211878259
550,591.9678222227233
551,591.9874591228858
552,591.9895717403425
553,591.9784051491473
554,591.9592889154769
555,591.9378111445255
556,591.9190337827389
557,591.9068770805193
558,591.9037534293665
559,591.9104817798479
560,591.9264582492958
561,591.9500006665287
562,591.9787534216374
563,592.0100537509829
564,592.0412077783786
565,592.0696741491527
566,592.0931825391401
567,592.1098169863907
568,592.1180784485389
569,592.1169240108602
570,592.1057729041885
571,592.0844725737879
572,592.0532304435685
573,592.0125376847574
574,591.963130381887
575,591.9060356020614
576,591.8427281330862
577,591.7753832285969
578,591.7071617836855
579,591.6424206837769
580,591.58672384914
581,591.5465590866562
582,591.5287407482094
583,591.5395692001052
584,591.5838890811975
585,591.6642191282932
586,591.7801170977156
587,591.9279036387583
588,592.1008064135855
589,592.2895074978167
590,592.4830023033908
591,592.6696348620395
592,592.8381731781901
593,592.9788099696639
594,593.083992497911
595,593.1489997925539
596,593.1722167484401
597,593.1551095094795
598,593.101961596277
599,593.0194508362058
600,592.9161233623341
601,592.8017802282361
602,592.6867737831631
603,592.5812306957172
604,592.4942602522223
605,592.4332387482041
606,592.4032599178215
607,592.4068089253304
608,592.4436749559643
609,592.5110829370055
610,592.6040035580529
611,592.7155965087221
612,592.8377573313064
613,592.961758561467
614,593.0789741418226
615,593.1816442163617
616,593.2635968492334
617,593.3208225950835
618,593.3518097689124
619,593.3575874731024
620,593.3414750662688
621,593.3085853362439
622,593.2651650619213
623,593.2178753160435
624,593.1731091199903
625,593.13641719431
626,593.1120751916121
627,593.102793678216
628,593.109558740876
629,593.1315977821159
630,593.1664745824319
631,593.2103123767184
632,593.2581294633135
633,593.3042662526393
634,593.3428827093113
635,593.3684937592051
636,593.3764917528731
637,593.3636021238231
638,593.3282351712768
639,593.2707145087079
640,593.1933668932577
641,593.1004528377148
642,592.9979167860184
643,592.8929519360249
644,592.7934066287926
645,592.7070887277049
646,592.6410332411759
647,592.6007884482461
648,592.5897691806823
649,592.6087394137718
650,592.6555073244797
651,592.7249156461716
652,592.8091769306754
653,592.8985495331643
654,592.9822918184913
655,593.049781150257
656,593.0916560283687
657,593.1008442096842
658,593.0733649183904
659,593.0088204933368
660,592.9105204374185
661,592.785216396217
662,592.6424692692015
663,592.4937118377693
664,592.3511046775616
665,592.2263057548382
666,592.1292849046937
667,592.0673142365184
668,592.0442558356983
669,592.0602494454137
670,592.1118662354315
671,592.1927270619722
672,592.2944919611007
673,592.4080458362114
674,592.5246666483533
675,592.6369761896088
676,592.7395300864155
677,592.8289889542348
678,592.9039095981597
679,592.9642779418117
680,593.0109436677949
681,593.0450940892159
682,593.0678376350422
683,593.0799005414833
684,593.0814161317718
685,593.0718102081834
686,593.0498236350973
687,593.0137187174718
688,592.961674993638
689,592.8923197429369
690,592.8052934541595
691,592.7017321782971
692,592.5845572606084
693,592.4585029611058
694,592.3298756931392
695,592.2060927649258
696,592.095066164318
697,592.0044861282554
698,591.941052133037
699,591.9097143110009
700,591.9130150689384
701,591.9506360339798
702,592.0192457720375
703,592.1127073826686
704,592.222648739154
705,592.339334770842
706,592.4527261127517
707,592.5535731492674
708,592.6343838533904
709,592.6901208816469
710,592.7185291978647
711,592.7200616181391
712,592.697443231929
713,592.6549876003941
714,592.5978298575016
715,592.5312428786552
716,592.460141956502
717,592.3887982618534
718,592.320724677175
719,592.2586843202608
720,592.2047783053715
721,592.1605738514683
722,592.1272365559319
723,592.1056369982105
724,592.0964105060249
725,592.0999563724376
726,592.1163725137504
727,592.145341176617
728,592.186008969699
729,592.2369246688729
730,592.2960937700334
731,592.3611733588607
732,592.4297729840872
733,592.499770584144
734,592.569531247644
735,592.6379524727224
736,592.7043349109598
737,592.7681434347234
738,592.8287441826113
739,592.8851860030371
740,592.9360705242156
741,592.9795389135434
742,593.0133831421219
743,593.0352565406833
744,593.0429299464646
745,593.0345375476853
746,593.0087778764911
747,592.9650600940015
748,592.9036008865238
749,592.8254823074449
750,592.7326765015881
751,592.6280318588254
752,592.5152056572764
753,592.3985260504484
754,592.2827697129741
755,592.1728543185528
756,592.073470085893
757,591.9886986535624
758,591.9216752721752
759,591.8743416359872
760,591.8473188198047
761,591.8399102235942
762,591.8502319377865
763,591.8754644511803
764,591.91221328328
765,591.9569427138464
766,592.0064112306954
767,592.0580176653165
768,592.1099861481825
769,592.1613669473796
770,592.2118812418558
771,592.2616732330814
772,592.311047000574
773,592.3602520348537
774,592.409339926637
775,592.4580687892364
776,592.5058210039224
777,592.551534898349
778,592.5936938028696
779,592.630421176042
780,592.6596936391729
781,592.6796354682128
782,592.6888279214578
783,592.6865640040529
784,592.6730000391459
785,592.6491910276505
786,592.6170284558712
787,592.5791067544205
788,592.5385328242741
789,592.4986853640426
790,592.4629347311813
791,592.4343416144989
792,592.415362230164
793,592.4075977599667
794,592.4116254938563
795,592.4269341001902
796,592.4519658675864
797,592.4842550621781
798,592.5206463730347
799,592.5575800366676
800,592.5914339215132
801,592.6189040278081
802,592.6373810314998
803,592.6452631699447
804,592.6421571577679
805,592.6289509246122
806,592.6077669983171
807,592.5818107891412
808,592.5551244878284
809,592.5322583466594
810,592.5178795461218
811,592.5163488853576
812,592.5312998762238
813,592.5652521146521
814,592.6192886345108
815,592.6928324081939
816,592.7835629526904
817,592.8875017878041
818,592.9992609035481
819,593.1124154023588
820,593.2199570847599
821,593.3148055932276
822,593.3903684843729
823,593.4411321049553
824,593.4632374590883
825,593.4549662247879
826,593.4170461858014
827,593.352695854646
828,593.2673724864312
829,593.1682541635672
830,593.0635464663337
831,592.9617317329258
832,592.8708656786195
833,592.7979844207093
834,592.7486417948381
835,592.7265760771186
836,592.7335085830681
837,592.7690863743262
838,592.8309831930675
839,592.9151667974293
840,593.0163278294734
841,593.1284406370826
842,593.2453940875911
843,593.3616048788695
844,593.4725180554711
845,593.574915189617
846,593.6669942903078
847,593.7482469837478
848,593.8192080358656
849,593.8811638553057
850,593.9358819153015
851,593.9853843990536
852,594.0317578113992
853,594.0769765766061
854,594.122724345998
855,594.170215137946
856,594.2200382499271
857,594.272069736884
858,594.325500210988
859,594.3790109784555
860,594.4310848827884
861,594.4803813964365
862,594.526069505248
863,594.5680224442353
864,594.6068267751325
865,594.6436088474271
866,594.6797149518725
867,594.7163076355034
868,594.7539656276696
869,594.7923827477221
870,594.8302388122154
871,594.8652742273304
872,594.8945622335381
873,594.9149468538592
874,594.9235920833333
875,594.9185633057378
876,594.8993421342082
877,594.8671706674871
878,594.8251378524459
879,594.77796213304
880,594.7314802159839
881,594.6919027952146
882,594.6649384867278
883,594.6549206340225
884,594.6640882906099
885,594.692152917262
886,594.7362239479103
887,594.7910932510764
888,594.849818260207
889,594.9045043066398
890,594.9471623356251
891,594.9705100758906
892,594.9686056299465
893,594.9372566629607
894,594.8742159115554
895,594.7792225532086
896,594.6539598033175
897,594.5019707007782
898,594.3285192066321
899,594.1403357391011
900,593.9451853384373
901,593.7512498751261
902,593.5663892320978
903,593.3974024442831
904,593.2494275763886
905,593.1255861803306
906,593.0268998626312
907,592.9524259822241
908,592.8995277780726
909,592.8642133972264
910,592.8415092798664
911,592.8258541118234
912,592.8115151618239
913,592.7930361342999
914,592.7657119885869
915,592.7260560365154
916,592.67219706586
917,592.604132773713
