frame_number,force
0,610.5816600000325
1,610.8303219699404
2,611.0571722539738
3,611.2427348591472
4,611.3718619991264
5,611.4351191139109
6,611.4294266140225
7,611.3579591873648
8,611.2294121030878
9,611.0568021298318
10,610.8559765588946
11,610.6439778716592
12,610.4373819240475
13,610.2507148452169
14,610.0950667037483
15,609.9770467429364
16,609.89823370306
17,609.8552376873874
18,609.8404071690771
19,609.8431080391692
20,609.8513948268313
21,609.8538085257146
22,609.8409987412227
23,609.8069092804309
24,609.7493847656102
25,609.6701976013629
26,609.5745905961551
27,609.4704647049031
28,609.3673489598433
29,609.275289312695
30,609.2037707905279
31,609.1607480097306
32,609.1518416888483
33,609.179782629747
34,609.2442096270131
35,609.3418940452337
36,609.4673638881086
37,609.6137913108382
38,609.7739536606156
39,609.9410955752306
40,610.1095787580957
41,610.2752684649818
42,610.4356520203308
43,610.5897158263282
44,610.7376302922363
45,610.8803073597504
46,611.0189003173551
47,611.1543142863816
48,611.2867970644077
49,611.4156878827321
50,611.5394031869417
51,611.6557054282242
52,611.7622209623348
53,611.8570805596488
54,611.9395089364854
55,612.0102174905802
56,612.0715355109279
57,612.1273001142765
58,612.1825735073998
59,612.2432593632104
60,612.3156692992997
61,612.4060698964289
62,612.5202261035665
63,612.6629478140258
64,612.8376532191422
65,613.0459888331346
66,613.287570784983
67,613.5599112261765
68,613.8585663967642
69,614.1775028490706
70,614.5096369319756
71,614.8474681210879
72,615.183711131745
73,615.5118465177952
74,615.8265483874635
75,616.1239836086329
76,616.4019895277518
77,616.6601339288756
78,616.8996540191021
79,617.1232626154977
80,617.3348100035787
81,617.5388153257271
82,617.7399211823788
83,617.9423494370011
84,618.1494348698386
85,618.3632958414063
86,618.5846722987246
87,618.8129265508512
88,619.0461781181881
89,619.281540250676
90,619.5154301896175
91,619.7439237202453
92,619.9631201862228
93,620.1694862412531
94,620.3601533249313
95,620.533146926604
96,620.6875272723787
97,620.8234332306897
98,620.942044685827
99,621.0454929758679
100,621.1367365638791
101,621.2193915636525
102,621.2974930890913
103,621.3751762670039
104,621.4562929753832
105,621.5440056004468
106,621.640418076409
107,621.7463184019067
108,621.861106854851
109,621.9829530834005
110,622.1091597455098
111,622.2366361199182
112,622.3623459187934
113,622.4836201938051
114,622.5983051738331
115,622.7047883917172
116,622.8019617420309
117,622.8891423846131
118,622.9659358559417
119,623.0320317529125
120,623.0869624145677
121,623.1298941360035
122,623.1595346963315
123,623.1742251012327
124,623.1722419606405
125,623.1522803105219
126,623.1140290813524
127,623.0587086985388
128,622.9894291540137
129,622.9112576984186
130,622.8309513797948
131,622.7563850357865
132,622.695759360204
133,622.6566960741347
134,622.6453338345635
135,622.6655431278582
136,622.7183735292468
137,622.8018211133074
138,622.9109602982611
139,623.038434709354
140,623.1752571273405
141,623.3118344572289
142,623.4391069389087
143,623.5496673545847
144,623.6387074173174
145,623.7046353648677
146,623.7492401009108
147,623.7773538245891
148,623.7960689374335
149,623.8136577922068
150,623.8383932865655
151,623.8774626471483
152,623.9361185103605
153,624.0171507104616
154,624.1207129426233
155,624.2445021844204
156,624.384256752259
157,624.5345047525661
158,624.6894538324109
159,624.8438739844123
160,624.9938152629893
161,625.1370401621684
162,625.2731219599714
163,625.4032345839199
164,625.5297150972386
165,625.6555096296734
166,625.7836143074743
167,625.9165949167694
168,626.0562275716655
169,626.2032714657358
170,626.3573740162844
171,626.5171077259374
172,626.6801325908049
173,626.8434651892067
174,627.0038213875545
175,627.157988761386
176,627.3031807208314
177,627.4373288077762
178,627.5592784293835
179,627.6688613950965
180,627.7668309187255
181,627.8546676489875
182,627.9342915215005
183,628.0077300680582
184,628.0767947147606
185,628.1428066895933
186,628.2064003951602
187,628.2674233292514
188,628.3249535377813
189,628.377461622719
190,628.4231359058423
191,628.4603515689058
192,628.4882067503621
193,628.5070051500812
194,628.5185663850583
195,628.5262898731789
196,628.5349581033394
197,628.5503198242626
198,628.5785355359815
199,628.6255855704405
200,628.6967259778139
201,628.7960463088243
202,628.926161979751
203,629.0880584118084
204,629.2810782859253
205,629.5030198123017
206,629.7503167213597
207,630.0182932171144
208,630.3015017459871
209,630.5941415197884
210,630.8905233384801
211,631.1855092778864
212,631.4748432147226
213,631.7553166555576
214,632.0247663941536
215,632.2819396658842
216,632.5262706635202
217,632.7576044349123
218,632.9759048091828
219,633.180995430833
220,633.3723903269271
221,633.5492605585429
222,633.7105599378702
223,633.8553040400402
224,633.9829641430671
225,634.0939009512741
226,634.189736846059
227,634.2735716335058
228,634.3499835299577
229,634.4247991491645
230,634.5046459840501
231,634.5963235243223
232,634.7060589080319
233,634.8387503304762
234,634.9973243852805
235,635.1823189856766
236,635.3917553100038
237,635.6213052366777
238,635.8647140875397
239,636.1144081413833
240,636.3622027585214
241,636.6000267502034
242,636.8205865983615
243,637.0179068696941
244,637.1876972900529
245,637.3275105347155
246,637.4366733590018
247,637.5160041534692
248,637.5673684416118
249,637.5931584467068
250,637.5958037705115
251,637.5774184464402
252,637.5396570333196
253,637.4837939382002
254,637.4109785941712
255,637.3225798462871
256,637.220526182713
257,637.1075645515137
258,636.9873786703137
259,636.864517796381
260,636.7441023854033
261,636.6313104281488
262,636.5306999475863
263,636.445468752712
264,636.3767832973888
265,636.3233193108608
266,636.281133305509
267,636.2439205248727
268,636.2036327525686
269,636.1513635992313
270,636.078381284189
271,635.9771929279258
272,635.8425327469465
273,635.6721616833155
274,635.4673599771064
275,635.2330115627026
276,634.9772313849235
277,634.7105692161041
278,634.4449162442909
279,634.1923048006063
280,633.9637919222348
281,633.7685585583223
282,633.6132806873077
283,633.5017761475499
284,633.4349095626036
285,633.4107323308432
286,633.4248307666679
287,633.4708477682711
288,633.5411285965101
289,633.6274183134982
290,633.7215197084187
291,633.8158288977195
292,633.9037072559244
293,633.9796999445496
294,634.0396446939588
295,634.080719370446
296,634.101458752851
297,634.101743617609
298,634.0827468133526
299,634.0468215086023
300,633.9973285297499
301,633.938409049916
302,633.8747129218586
303,633.8110962239793
304,633.7523041662191
305,633.7026539231347
306,633.6657277363929
307,633.644087756497
308,633.6390357066944
309,633.650453787298
310,633.6767630068616
311,633.7150191544098
312,633.7611459490089
313,633.810287844472
314,633.8572509558478
315,633.896984245612
316,633.9250349501385
317,633.9379086389446
318,633.9332925956032
319,633.9101486487101
320,633.8687101043823
321,633.8104096222322
322,633.7377455448325
323,633.6540940874385
324,633.5634892979263
325,633.47039074238
326,633.3794261565616
327,633.2950599873686
328,633.2211455357716
329,633.1603825289776
330,633.1137793521142
331,633.0802503758212
332,633.0564510742346
333,633.0369001881178
334,633.0143904253832
335,632.9806532470332
336,632.9272117890383
337,632.8463238007422
338,632.731888519026
339,632.5801833142556
340,632.3903232338444
341,632.1643927839635
342,631.9072541903413
343,631.6260723402708
344,631.3296281357233
345,631.0275276779338
346,630.7294281967667
347,630.4443676847491
348,630.180223670929
349,629.9432853516705
350,629.7379245325308
351,629.5663735297079
352,629.4286316054166
353,629.3225152257578
354,629.2438486946247
355,629.186774670541
356,629.1441606850715
357,629.1080829075883
358,629.0703626863965
359,629.0231134417011
360,628.9592522151445
361,628.8729576280165
362,628.7600907367032
363,628.6186008752735
364,628.44890321446
365,628.2541575633401
366,628.0403346892087
367,627.8159583955432
368,627.5914676228205
369,627.3782377531905
370,627.1874005977083
371,627.0286633741648
372,626.9093163908967
373,626.833547573331
374,626.8020962896381
375,626.8122222835657
376,626.8579493927996
377,626.930552530771
378,627.0192642769273
379,627.112165374413
380,627.1971932096652
381,627.2631715259314
382,627.3007479547172
383,627.3031279579848
384,627.2665139641417
385,627.1901957645586
386,627.0762906858731
387,626.9291920237229
388,626.7548354381419
389,626.5599179191013
390,626.3511940732244
391,626.1349324181609
392,625.9165542221176
393,625.7004276126961
394,625.4897755365837
395,625.2866703817728
396,625.0921010347777
397,624.9060993823094
398,624.7279151816484
399,624.5562340417846
400,624.389431743706
401,624.2258466734644
402,624.0640427741757
403,623.9030367775335
404,623.7424683438986
405,623.5826900984855
406,623.424752924554
407,623.270274921768
408,623.1212102846663
409,622.9795631151657
410,622.8471090985275
411,622.725190694557
412,622.614636867244
413,622.5158242672801
414,622.4288481054738
415,622.3537269756571
416,622.2905525413306
417,622.2395251504526
418,622.2008772459367
419,622.1747419020281
420,622.1610335304197
421,622.1593627246892
422,622.1689494223755
423,622.1884859159919
424,622.2159500006709
425,622.2484392562814
426,622.2821327686808
427,622.3124594504492
428,622.3344803820984
429,622.3434159872613
430,622.3352034025055
431,622.3069726380149
432,622.2573712024822
433,622.1867164321983
434,622.096989175347
435,621.9916928417945
436,621.8755933962767
437,621.7543482564961
438,621.634042013913
439,621.520665917205
440,621.4195832419199
441,621.3350091201961
442,621.2695227882456
443,621.2236459444495
444,621.1955583551751
445,621.1810467718906
446,621.1737656413915
447,621.1658324360543
448,621.1487134680561
449,621.1142959929786
450,621.055994331466
451,620.9697099275264
452,620.8544730875483
453,620.7126454921611
454,620.5496466060262
455,620.3732602954008
456,620.1926550248071
457,620.0172904221708
458,619.8558765426317
459,619.7155144594255
460,619.6011048017991
461,619.5150781356024
462,619.4574674286023
463,619.4262937102008
464,619.4181786049204
465,619.4290584006076
466,619.4548725032353
467,619.4921276811732
468,619.5382748531206
469,619.5918614393892
470,619.6524463474909
471,619.7203000359398
472,619.7959521399237
473,619.8796750137387
474,619.971000493488
475,620.068367557121
476,620.1689852864645
477,620.2689574351612
478,620.3636589751628
479,620.4483019043511
480,620.5185914877052
481,620.5713599450243
482,620.6050725573723
483,620.6201258192702
484,620.6188923468493
485,620.6055088402055
486,620.5854426898961
487,620.5648983674482
488,620.5501380735408
489,620.5468033919608
490,620.5593332688107
491,620.5905629241495
492,620.6415552049308
493,620.7116727281385
494,620.798856744697
495,620.9000455783469
496,621.0116537110965
497,621.1300451977946
498,621.251955273364
499,621.3748205185208
500,621.496970981298
501,621.6176398822721
502,621.7367743409804
503,621.8546731609828
504,621.9715145019793
505,622.0868623336277
506,622.1992593367851
507,622.3060179495827
508,622.4032958480007
509,622.4864818770283
510,622.5508369316332
511,622.5922614615467
512,622.6080271370322
513,622.5973253287502
514,622.5615341151129
515,622.5041627589046
516,622.4304860066997
517,622.3469321452064
518,622.2603317957432
519,622.1771507630572
520,622.1028143167081
521,622.041201026784
522,621.9943653166487
523,621.9625376802642
524,621.9444202303574
525,621.9377245064593
526,621.9398215366743
527,621.94834716852
528,621.9616364933257
529,621.9789098450307
530,622.0001825305915
531,622.0259386659179
532,622.056685351139
533,622.0925357255247
534,622.132931291199
535,622.1765379395445
536,622.2212902623323
537,622.2645403943976
538,622.3032791416402
539,622.3344125881293
540,622.3550769662145
541,622.3629530433867
542,622.3565155154292
543,622.3351556139362
544,622.2991601686349
545,622.2495900292569
546,622.1881325218559
547,622.1169890113368
548,622.0388151128284
549,621.9566887789684
550,621.874064729647
551,621.7946818607406
552,621.7224026959477
553,621.6609712745893
554,621.6136943701163
555,621.583089828676
556,621.5705778483208
557,621.5762820362403
558,621.5989642662101
559,621.6360819504275
560,621.6839525400153
561,621.7380226642907
562,621.7932416518249
563,621.8445249208113
564,621.8872743248232
565,621.9179093660468
566,621.934352585764
567,621.9364021407191
568,621.9259221462557
569,621.9067955831752
570,621.8846160778068
571,621.8661388390864
572,621.858559423257
573,621.8687262535508
574,621.9023997705785
575,621.9636441551097
576,622.054399377453
577,622.1742583121012
578,622.3204665945364
579,622.4881526940038
580,622.670768813307
581,622.8606815627134
582,623.0498137957703
583,623.2302368183578
584,623.3946590862984
585,623.5368231390603
586,623.6518559224917
587,623.7365963442965
588,623.7898701138016
589,623.8126402929171
590,623.8079676707883
591,623.780767846163
592,623.7374141193782
593,623.6852640963361
594,623.6321699228656
595,623.5859877878185
596,623.5540676527911
597,623.5427062364541
598,623.5565837826097
599,623.5982486899599
600,623.667733099226
601,623.7623723170205
602,623.8768753129858
603,624.0036597970866
604,624.1334273095629
605,624.2559256033854
606,624.3608369381692
607,624.438729553359
608,624.4819972690918
609,624.4856870261686
610,624.4480927421635
611,624.3709983800736
612,624.2594952951155
613,624.1213703591313
614,623.9661405276544
615,623.8038758560048
616,623.6439914311475
617,623.494189700548
618,623.3597013904233
619,623.2429230763126
620,623.1434950757982
621,623.0587968826784
622,622.9847522549895
623,622.9167587254984
624,622.8505334887518
625,622.782719795726
626,622.7111970873952
627,622.6351296554969
628,622.5548326960419
629,622.471530897983
630,622.3870601849451
631,622.3035422845696
632,622.2230554704852
633,622.1473333011697
634,622.0775335871571
635,622.0141152552403
636,621.9568403769648
637,621.9048956597252
638,621.857109053085
639,621.8122212717288
640,621.7691638136038
641,621.7273035880312
642,621.6866342188982
643,621.6479054537464
644,621.6126763329435
645,621.5832695925848
646,621.5626112467689
647,621.5539625792928
648,621.5605820275591
649,621.5853742986752
650,621.6305802863454
651,621.6975415209873
652,621.7865558792727
653,621.8968322767876
654,622.0265422510934
655,622.1729514736589
656,622.332600661356
657,622.5015027738369
658,622.6753375591944
659,622.8496487195589
660,623.0200620880623
661,623.1825311494886
662,623.3335928126194
663,623.4706063276243
664,623.5919557612746
665,623.6972060041367
666,623.7872026163421
667,623.864097720903
668,623.9312732871037
669,623.9931280117254
670,624.0547052166313
671,624.1211720316784
672,624.1972077569067
673,624.286403074804
674,624.3907892690929
675,624.5105943485227
676,624.6442656397228
677,624.7887264752143
678,624.939774867189
679,625.0925085779187
680,625.241684268992
681,625.3819748592875
682,625.5081467689276
683,625.6152106484485
684,625.6986002397085
685,625.7544119482468
686,625.7797000109158
687,625.7727799529283
688,625.733468949801
689,625.6632060771085
690,625.5650407000904
691,625.4435182974834
692,625.3045003972633
693,625.1549317519698
694,625.002538876977
695,624.8554315189451
696,624.7215889011895
697,624.6082423667127
698,624.5212075978837
699,624.4642573538556
700,624.4386404890474
701,624.4428401799499
702,624.4726349455627
703,624.5214872774487
704,624.581235967423
705,624.6430147656673
706,624.6982737872337
707,624.7397541000912
708,624.7622724088586
709,624.7632153226231
710,624.7427074611699
711,624.7034786816149
712,624.6504915982702
713,624.590396803298
714,624.5308720113698
715,624.4798907957834
716,624.4449663185852
717,624.4324221867737
718,624.4467492065903
719,624.4901092123052
720,624.5620407836939
721,624.6594026536603
722,624.7765622708469
723,624.9058095252366
724,625.0379607367411
725,625.1631209585761
726,625.271581590218
727,625.3548184793218
728,625.4065070709976
729,625.4234061741945
730,625.4059304897193
731,625.3582702935781
732,625.2880094656028
733,625.2052890740825
734,625.121626275132
735,625.0485314911826
736,624.9960937298796
737,624.9717282647376
738,624.9792784283942
739,625.0186112948768
740,625.0857533434896
741,625.1735107007881
742,625.2724437821541
743,625.3720328731719
744,625.4618733234105
745,625.5327642004044
746,625.5775928716479
747,625.5919598610553
748,625.5745245417119
749,625.5270810361496
750,625.454393647866
751,625.3638248448567
752,625.2647752735545
753,625.1679410161258
754,625.0844000884217
755,625.0245744427094
756,624.997163480859
757,625.0081903510161
758,625.060320445308
759,625.1525819551138
760,625.2805394013831
761,625.4368745956176
762,625.6122638193754
763,625.7964245972448
764,625.9792144826341
765,626.1516683150819
766,626.3068620258834
767,626.4405056527254
768,626.5511963592525
769,626.6402957053364
770,626.7114333368663
771,626.7696887407238
772,626.8205659961513
773,626.8689385513337
774,626.9181723702835
775,626.9696125573901
776,627.0225423780064
777,627.074617980096
778,627.1226735983578
779,627.1637051720658
780,627.1958039044333
781,627.2188434369856
782,627.2348068255255
783,627.2477269471216
784,627.2632726467466
785,627.2880407422679
786,627.328628961627
787,627.390587720821
788,627.4773896242998
789,627.5896010079698
790,627.7244498167727
791,627.8759203939619
792,628.0353744394289
793,628.1925583354031
794,628.336781093677
795,628.4580589532876
796,628.5480874264789
797,628.6009681133651
798,628.6136614738281
799,628.5861608037465
800,628.5213969608228
801,628.4248958321117
802,628.3042245793538
803,628.1682760942391
804,628.0264512330058
805,627.8878072447372
806,627.7602498644699
807,627.6498511463105
808,627.5603675465873
809,627.4930081672032
810,627.4464640264805
811,627.4171704324184
812,627.3997566513009
813,627.3876444420293
814,627.3737667002732
815,627.3513623099295
816,627.3147642326492
817,627.2600655827813
818,627.1855538998315
819,627.0918506147705
820,626.981757763117
821,626.8598692157029
822,626.7320311944115
823,626.6047327141217
824,626.484483320894
825,626.3772132404744
826,626.2877201294024
827,626.2191881609257
828,626.172818905481
829,626.1476298251642
830,626.1404777122226
831,626.1463428961177
832,626.1588682592542
833,626.1710937703058
834,626.176283961818
835,626.168735614263
836,626.1444712807565
837,626.1017452888761
838,626.0413020644387
839,625.9663447773528
840,625.8822063752335
841,625.7957602004417
842,625.7146505547743
843,625.6464517761472
844,625.5978678693198
845,625.5740646111476
846,625.5781954868405
847,625.6111525670916
848,625.6715451573849
849,625.7558839179877
850,625.8589291137768
851,625.9741505938485
852,626.0942464275306
853,626.2116755094182
854,626.3191696570619
855,626.4102008836967
856,626.4793926530003
857,626.5228712948058
858,626.5385401281452
859,626.5262290106206
860,626.4876560347888
861,626.4261636121831
862,626.3462538087659
863,626.2530124170877
864,626.1515429588505
865,626.0465184355227
866,625.9419092591365
867,625.8408838682761
868,625.745832513978
869,625.658451065183
870,625.579836409437
871,625.510573451432
872,625.4508230094025
873,625.4004382175708
874,625.3591306360228
875,625.3266724502489
876,625.3030772224282
877,625.2886824093029
878,625.2840818463018
879,625.2899096155727
880,625.3065241727516
881,625.3336698372312
882,625.3702104580124
883,625.4140329275606
884,625.4621814053413
885,625.5112005867559
886,625.5575771686309
887,625.5981288676977
888,625.6302252247451
889,625.6518094462751
890,625.6612722263133
891,625.657267874315
892,625.6385600791932
893,625.6039600567735
894,625.552389324288
895,625.4830677453987
896,625.395790570525
897,625.2912155125067
898,625.1710563664259
899,625.0381031304216
900,624.8960501201733
901,624.749171004879
902,624.6019088882775
903,624.4584566154191
904,624.3223983310572
905,624.196468927577
906,624.0824589074487
907,623.9812523146151
908,623.8929554171411
909,623.8170761540783
910,623.7527448865841
911,623.6989888539545
912,623.6550513764572
913,623.6206920207106
914,623.5963646084351
915,623.5831869689496
916,623.5826862444554
917,623.5963831354786
