frame_number,force
0,650.4622800092219
1,650.4317804367709
2,650.4013289430699
3,650.3709735881633
4,650.3407623931746
5,650.3107433166815
6,650.2809642250115
7,650.2514728533253
8,650.2223167547598
9,650.1935432363989
10,650.1651992830124
11,650.1373314716245
12,650.1099858812883
13,650.0832080023679
14,650.0570426480571
15,650.0315338686897
16,650.0067248680843
17,649.9826579212818
18,649.9593742937441
19,649.9369141620685
20,649.9153165352441
21,649.8946191742031
22,649.874858506686
23,649.856069534437
24,649.8382857303154
25,649.8215389239302
26,649.8058591759725
27,649.7912746433784
28,649.7778114389707
29,649.7654934892824
30,649.7543423928205
31,649.7443772791272
32,649.7356146678494
33,649.7280683270421
34,649.72174913077
35,649.716664917268
36,649.7128203502947
37,649.7102167875511
38,649.7088521605383
39,649.7087208697722
40,649.7098136983416
41,649.7121177461369
42,649.715616386932
43,649.7202892505111
44,649.726112231661
45,649.7330575268812
46,649.7410936982866
47,649.7501857628088
48,649.7602953039018
49,649.7713806028129
50,649.7833967869253
51,649.7962959932966
52,649.8100275460978
53,649.8245381471955
54,649.8397720795034
55,649.8556714229392
56,649.8721762829732
57,649.8892250320082
58,649.9067545641431
59,649.9247005641981
60,649.9429977921145
61,649.9615803837343
62,649.9803821683994
63,649.9993370031951
64,650.0183791235439
65,650.0374435101651
66,650.0564662726537
67,650.0753850497191
68,650.0941394253612
69,650.1126713590304
70,650.1309256265957
71,650.1488502684539
72,650.1663970414079
73,650.1835218711508
74,650.2001853016429
75,650.216352936725
76,650.2319958687907
77,650.2470910894881
78,650.2616218776913
79,650.2755781598537
80,650.288956837312
81,650.3017620743541
82,650.314005540031
83,650.3257065960361
84,650.3368924228282
85,650.347598076532
86,650.3578664696784
87,650.3677482692538
88,650.3773017059337
89,650.3865922892799
90,650.3956924254604
91,650.4046809366997
92,650.4136424848309
93,650.4226669045067
94,650.431848454332
95,650.4412849962457
96,650.4510771148728
97,650.4613271891576
98,650.4721384283494
99,650.4836138837762
100,650.4958554475376
101,650.5089628494885
102,650.5230326644142
103,650.5381573416373
104,650.5544242691851
105,650.5719148839902
106,650.5907038385499
107,650.6108582332665
108,650.6324369224417
109,650.6554899007901
110,650.6800577765732
111,650.7061713370065
112,650.7338512111123
113,650.7631076341693
114,650.7939403161336
115,650.8263384141762
116,650.8602806073145
117,650.8957352692912
118,650.9326607343528
119,650.97100564937
120,651.0107094047198
121,651.051702635363
122,651.093907782836
123,651.1372397088813
124,651.18160635225
125,651.2269094214759
126,651.2730451177871
127,651.3199048837791
128,651.3673761750226
129,651.4153432528203
130,651.4636879956761
131,651.5122907240732
132,651.5610310288309
133,651.6097885896795
134,651.6584439693307
135,651.7068793693105
136,651.754979336189
137,651.8026314096754
138,651.849726707144
139,651.896160442512
140,651.9418323803432
141,651.9866472275054
142,652.030514964508
143,652.0733511178979
144,652.1150769748942
145,652.1556197415391
146,652.1949126451768
147,652.2328949812154
148,652.2695121039472
149,652.3047153620838
150,652.3384619807807
151,652.3707148925495
152,652.401442519756
153,652.4306185118448
154,652.4582214410639
155,652.4842344611683
156,652.5086449344805
157,652.5314440337822
158,652.5526263263762
159,652.5721893475704
160,652.5901331696227
161,652.6064599702282
162,652.6211736028412
163,652.6342791705634
164,652.645782606432
165,652.6556902650103
166,652.6640085321537
167,652.6707434612606
168,652.6759004453612
169,652.679483935015
170,652.6814972120725
171,652.6819422288223
172,652.6808195204469
173,652.6781281954086
174,652.6738660035036
175,652.6680294760478
176,652.6606141283289
177,652.6516147117492
178,652.6410255021087
179,652.6288406110684
180,652.6150543096824
181,652.599661355514
182,652.5826573174658
183,652.5640388943399
184,652.5438042241386
185,652.5219531816039
186,652.4984876617625
187,652.4734118472858
188,652.4467324572782
189,652.4184589748602
190,652.3886038506967
191,652.3571826794539
192,652.3242143460052
193,652.2897211382307
194,652.2537288239878
195,652.2162666915237
196,652.1773675546958
197,652.137067725925
198,652.0954069604933
199,652.0524283758664
200,652.0081783495909
201,651.9627063991626
202,651.9160650469353
203,651.8683096723362
204,651.8194983524332
205,651.7696916908297
206,651.7189526344264
207,651.6673462777914
208,651.6149396555038
209,651.5618015236581
210,651.5080021324128
211,651.4536129916811
212,651.3987066314388
213,651.3433563564855
214,651.2876359932068
215,651.231619623949
216,651.1753813039118
217,651.1189947560772
218,651.0625330411284
219,651.0060682012132
220,650.9496708787158
221,650.8934099137899
222,650.83735192695
223,650.781560895127
224,650.7260977310434
225,650.6710198765461
226,650.6163809208336
227,650.5622302543693
228,650.5086127684871
229,650.455568609179
230,650.4031329914544
231,650.3513360782689
232,650.3002029256877
233,650.249753494226
234,650.2000027253617
235,650.1509606816472
236,650.1026327482296
237,650.0550198930111
238,650.0081189821816
239,649.9619231470875
240,649.9164221971018
241,649.8716030717517
242,649.8274503246911
243,649.7839466322696
244,649.7410733195183
245,649.6988108953507
246,649.6571395867846
247,649.6160398599878
248,649.5754929146843
249,649.5354811381686
250,649.4959885060335
251,649.457000919055
252,649.4185064693836
253,649.3804956334363
254,649.3429613925796
255,649.3058992852787
256,649.2693073959407
257,649.2331862865824
258,649.1975388779423
259,649.1623702866985
260,649.127687625164
261,649.0934997696254
262,649.0598171037118
263,649.0266512436184
264,648.99401475207
265,648.9619208471719
266,648.9303831112024
267,648.8994152039244
268,648.8690305854772
269,648.8392422546253
270,648.8100625079692
271,648.78150272429
272,648.7535731761193
273,648.72628286891
274,648.6996394074907
275,648.6736488895751
276,648.6483158262513
277,648.6236430890923
278,648.5996318828168
279,648.5762817416917
280,648.5535905474025
281,648.5315545657502
282,648.510168498893
283,648.4894255489678
284,648.4693174885161
285,648.4498347338775
286,648.4309664194479
287,648.4127004724721
288,648.3950236892148
289,648.3779218140921
290,648.3613796238321
291,648.3453810187906
292,648.3299091230277
293,648.3149463936618
294,648.3004747386908
295,648.2864756416938
296,648.2729302922552
297,648.2598197221548
298,648.2471249482281
299,648.2348271228259
300,648.2229076922433
301,648.2113485626646
302,648.2001322721701
303,648.1892421664495
304,648.1786625753056
305,648.1683789865913
306,648.1583782136628
307,648.1486485520684
308,648.1391799212972
309,648.12996398767
310,648.1209942645429
311,648.1122661862339
312,648.1037771529645
313,648.0955265456274
314,648.087515710873
315,648.0797479182323
316,648.0722282909925
317,648.0649637111416
318,648.0579626971056
319,648.0512352529951
320,648.0447926899726
321,648.0386474229146
322,648.0328127476637
323,648.0273026055698
324,648.0221313424643
325,648.0173134685733
326,648.0128634245484
327,648.0087953573997
328,648.0051229089327
329,648.001859018343
330,647.9990157400988
331,647.9966040783306
332,647.994633839445
333,647.9931135052478
334,647.9920501293861
335,647.9914492603292
336,647.9913148942951
337,647.9916494614572
338,647.9924538484388
339,647.9937274595648
340,647.9954683186996
341,647.9976732126547
342,648.0003378757244
343,648.0034572128569
344,648.0070255567516
345,648.0110369523884
346,648.0154854614028
347,648.0203654783543
348,648.0256720511271
349,648.0314011982454
350,648.0375502165347
351,648.0441179731023
352,648.0511051758576
353,648.0585146167062
354,648.0663513811394
355,648.0746230176381
356,648.083339660883
357,648.0925141043172
358,648.1021618193872
359,648.1123009202689
360,648.1229520745156
361,648.1341383623319
362,648.1458850898939
363,648.158219564652
364,648.1711708420221
365,648.1847694527415
366,648.1990471187349
367,648.2140364636388
368,648.2297707230039
369,648.2462834586103
370,648.2636082808691
371,648.2817785827623
372,648.3008272883201
373,648.320786618277
374,648.3416878752981
375,648.3635612510718
376,648.3864356573685
377,648.4103385822696
378,648.4352959710942
379,648.4613321298713
380,648.4884696482441
381,648.5167293384526
382,648.5461301872048
383,648.576689317571
384,648.608421958278
385,648.6413414179278
386,648.6754590620866
387,648.7107842921308
388,648.7473245258926
389,648.7850851809815
390,648.8240696621316
391,648.8642793542866
392,648.9057136234122
393,648.9483698269191
394,648.9922433348842
395,649.0373275620677
396,649.0836140094449
397,649.1310923130101
398,649.1797502969446
399,649.2295740273637
400,649.2805478616517
401,649.3326544873746
402,649.3858749446102
403,649.4401886264816
404,649.4955732544995
405,649.5520048274691
406,649.6094575444702
407,649.6679037032739
408,649.7273135755896
409,649.7876552604292
410,649.848894517366
411,649.9109945827565
412,649.973915973588
413,650.0376162847032
414,650.1020499851965
415,650.1671682190463
416,650.2329186143468
417,650.2992451053004
418,650.3660877713744
419,650.4333826984814
420,650.501061867576
421,650.5690530765524
422,650.6372799015849
423,650.7056617038021
424,650.7741136864735
425,650.8425470069386
426,650.9108689463179
427,650.9789831385469
428,651.046789858812
429,651.1141863702139
430,651.181067326013
431,651.2473252228058
432,651.3128508980594
433,651.3775340643789
434,651.4412638725885
435,651.5039294952709
436,651.5654207214867
437,651.6256285528207
438,651.684445791626
439,651.7417676142459
440,651.7974921239789
441,651.851520879716
442,651.9037593962857
443,651.9541176118845
444,652.0025103171363
445,652.0488575400648
446,652.0930848818257
447,652.1351237991743
448,652.1749118309773
449,652.2123927674669
450,652.2475167624071
451,652.2802403899839
452,652.310526649887
453,652.3383449253347
454,652.3636708995679
455,652.3864864368984
456,652.4067794348166
457,652.4245436537119
458,652.439778530273
459,652.4524889799656
460,652.4626851936017
461,652.4703824328597
462,652.4756008291823
463,652.4783651894617
464,652.4787048106177
465,652.47665330412
466,652.472248430644
467,652.4655319439597
468,652.4565494417682
469,652.4453502202526
470,652.4319871291328
471,652.4165164245757
472,652.3989976176476
473,652.3794933158428
474,652.3580690547394
475,652.3347931160724
476,652.3097363278165
477,652.2829718420327
478,652.254574887539
479,652.2246224964855
480,652.1931932059322
481,652.1603667370326
482,652.1262236551131
483,652.0908450137266
484,652.0543119849724
485,652.0167054776566
486,651.9781057448387
487,651.9385919830934
488,651.8982419272585
489,651.8571314463625
490,651.8153341484724
491,651.77292100376
492,651.729959995769
493,651.686515810833
494,651.6426495751783
495,651.5984186484845
496,651.5538764813183
497,651.5090725419095
498,651.4640523155493
499,651.4188573778454
500,651.3735255412835
501,651.3280910726978
502,651.2825849768677
503,651.2370353385822
504,651.1914677129314
505,651.1459055520668
506,651.1003706562733
507,651.0548836374718
508,651.0094643838837
509,650.9641325152882
510,650.9189078188095
511,650.8738106553232
512,650.8288623265778
513,650.7840853934667
514,650.7395039369042
515,650.6951437547
516,650.6510324906483
517,650.6071996951679
518,650.5636768194632
519,650.5204971469592
520,650.4776956668669
521,650.4353088954151
522,650.3933746507355
523,650.3519317879287
524,650.3110199016133
525,650.2706790040031
526,650.230949186821
527,650.1918702749251
528,650.1534814785349
529,650.1158210498144
530,650.0789259486315
531,650.0428315216687
532,650.0075711986163
533,649.9731762087856
534,649.939675320915
535,649.9070946080742
536,649.8754572384381
537,649.8447832914173
538,649.81508959739
539,649.7863895985554
540,649.7586932287205
541,649.7320068110312
542,649.7063329742092
543,649.6816705892965
544,649.6580147299437
545,649.6353566596891
546,649.6136838492332
547,649.592980025473
548,649.5732252524699
549,649.5543960433591
550,649.5364655019858
551,649.5194034935845
552,649.5031768442939
553,649.4877495690838
554,649.4730831269209
555,649.4591367013869
556,649.4458675048668
557,649.4332311046909
558,649.4211817698322
559,649.4096728365828
560,649.3986570909718
561,649.3880871645998
562,649.3779159391592
563,649.3680969534141
564,649.3585848052095
565,649.3493355405141
566,649.3403070216267
567,649.3314592672285
568,649.3227547577638
569,649.3141587007431
570,649.305639251934
571,649.2971676895355
572,649.2887185388569
573,649.2802696450889
574,649.2718021923635
575,649.2633006689819
576,649.2547527811382
577,649.2461493199845
578,649.2374839890442
579,649.2287532006959
580,649.2199558516721
581,649.2110930881564
582,649.2021680710108
583,649.1931857508222
584,649.1841526608029
585,649.1750767334998
586,649.1659671453053
587,649.156834190821
588,649.1476891867007
589,649.1385444018222
590,649.129413008516
591,649.1203090489462
592,649.1112474114442
593,649.1022438128489
594,649.0933147839536
595,649.0844776557889
596,649.0757505448655
597,649.0671523360231
598,649.058702662378
599,649.050421882986
600,649.0423310602216
601,649.034451940646
602,649.0268069451315
603,649.0194191754092
604,649.0123124440779
605,649.0055113332775
606,648.9990412846042
607,648.9929287204121
608,648.9872011945475
609,648.9818875685041
610,648.9770182070841
611,648.9726251862918
612,648.9687425054261
613,648.9654062950212
614,648.9626550124434
615,648.9605296176312
616,648.9590737224631
617,648.9583337085242
618,648.9583588096981
619,648.9592011577682
620,648.9609157905703
621,648.9635606231658
622,648.9671963834106
623,648.9718865143565
624,648.9776970465141
625,648.9846964423418
626,648.992955413503
627,649.0025467096029
628,649.0135448764678
629,649.0260259829208
630,649.040067316858
631,649.0557470530402
632,649.0731438954612
633,649.0923366962576
634,649.1134040516879
635,649.136423874636
636,649.1614729429159
637,649.1886264232809
638,649.2179573720563
639,649.2495362142633
640,649.2834302037265
641,649.3197028669975
642,649.3584134341653
643,649.3996162597176
644,649.4433602364155
645,649.4896882048774
646,649.5386363618616
647,649.5902336713139
648,649.6445012835842
649,649.7014519689744
650,649.7610895716393
651,649.8234084893188
652,649.8883931844499
653,649.9560177334602
654,650.0262454228218
655,650.0990284013291
656,650.1743073972566
657,650.252011507129
658,650.3320580607873
659,650.4143525657967
660,650.498788733054
661,650.5852485844806
662,650.6736026425617
663,650.7637102001434
664,650.85541966778
665,650.9485689953611
666,651.0429861644815
667,651.1384897476804
668,651.2348895303967
669,651.3319871914713
670,651.4295770381548
671,651.5274467915104
672,651.6253784178031
673,651.7231490012512
674,651.8205316537302
675,651.9172964575065
676,652.0132114374429
677,652.1080435592243
678,652.201559750087
679,652.2935279383171
680,652.3837181073618
681,652.4719033598416
682,652.557860986072
683,652.641373530882
684,652.7222298516242
685,652.8002261594337
686,652.8751670351121
687,652.9468664107898
688,653.0151485091377
689,653.0798487332947
690,653.1408145020878
691,653.1979060259441
692,653.2509970191338
693,653.2999753437731
694,653.3447435803117
695,653.3852195182508
696,653.4213365603266
697,653.4530440339066
698,653.4803074045741
699,653.5031083882424
700,653.5214449594822
701,653.5353312551603
702,653.5447973736486
703,653.5498890704214
704,653.5506673510887
705,653.5472079636331
706,653.5396007931207
707,653.5279491638559
708,653.5123690550889
709,653.4929882369919
710,653.4699453341742
711,653.443388824681
712,653.4134759832028
713,653.3803717782147
714,653.3442477338934
715,653.3052807685815
716,653.2636520219278
717,653.2195456824121
718,653.1731478258041
719,653.1246452736392
720,653.0742244794421
721,653.0220704493537
722,652.9683657030952
723,652.9132892810932
724,652.8570158042519
725,652.7997145940215
726,652.741548861216
727,652.6826749715224
728,652.623241793627
729,652.5633901332048
730,652.5032522538116
731,652.4429514846782
732,652.3826019155679
733,652.3223081796613
734,652.2621653260347
735,652.2022587832325
736,652.1426644149228
737,652.0834486679558
738,652.0246688122368
739,651.9663732704959
740,651.9086020343238
741,651.8513871606569
742,651.7947533398984
743,651.738718523008
744,651.6832945908667
745,651.6284880462279
746,651.5743007077648
747,651.5207303875733
748,651.467771537149
749,651.4154158508031
750,651.3636528188998
751,651.312470226546
752,651.2618545966593
753,651.2117915789428
754,651.1622662874294
755,651.113263589252
756,651.0647683471607
757,651.0167656188179
758,650.9692408172634
759,650.9221798387147
760,650.8755691651738
761,650.8293959494772
762,650.7836480896866
763,650.738314298711
764,650.6933841739852
765,650.6488482706311
766,650.6046981794974
767,650.5609266089078
768,650.5175274662002
769,650.4744959326375
770,650.4318285234403
771,650.3895231240288
772,650.3475789942262
773,650.3059967339508
774,650.2647782065725
775,650.2239264193927
776,650.1834453639468
777,650.1433398214755
778,650.103615141146
779,650.0642770006914
780,650.0253311606641
781,649.9867832238322
782,649.9486384102819
783,649.9109013568109
784,649.8735759467378
785,649.8366651740054
786,649.8001710438697
787,649.7640945114048
788,649.7284354580545
789,649.6931927053291
790,649.6583640637682
791,649.6239464148226
792,649.5899358231442
793,649.5563276764186
794,649.5231168493812
795,649.4902978884164
796,649.4578652130947
797,649.4258133305408
798,649.3941370575935
799,649.3628317448358
800,649.3318934961076
801,649.3013193768534
802,649.2711076044914
803,649.2412577141079
804,649.2117706934188
805,649.1826490822756
806,649.1538970341428
807,649.1255203395294
808,649.0975264133889
809,649.0699242494175
810,649.0427243443564
811,649.0159385956201
812,648.9895801761963
813,648.9636633915976
814,648.9382035240681
815,648.9132166686973
816,648.8887195646246
817,648.8647294230607
818,648.8412637534367
819,648.8183401899473
820,648.7959763224602
821,648.7741895371942
822,648.7529968730423
823,648.7324148988793
824,648.712459615961
825,648.6931463880037
826,648.6744899000186
827,648.6565041455115
828,648.6392024402498
829,648.6225974599487
830,648.6067012993844
831,648.5915255511385
832,648.5770814025437
833,648.5633797493387
834,648.5504313245289
835,648.538246840961
836,648.52683714544
837,648.5162133806426
838,648.5063871492916
839,648.4973706739274
840,648.4891769453716
841,648.4818198532672
842,648.4753142925179
843,648.4696762400126
844,648.4649227970743
845,648.4610721948521
846,648.4581437622041
847,648.4561578577028
848,648.4551357684509
849,648.4550995783345
850,648.456072007744
851,648.4580762261058
852,648.4611356379761
853,648.4652736433922
854,648.4705133740435
855,648.4768774082246
856,648.4843874689094
857,648.4930641104137
858,648.502926399841
859,648.5139915994109
860,648.5262748547078
861,648.5397888924753
862,648.554543730477
863,648.5705464011032
864,648.587800689396
865,648.6063068851637
866,648.6260615486822
867,648.6470572905937
868,648.6692825684662
869,648.6927215041029
870,648.7173537267007
871,648.7431542474853
872,648.7700933714599
873,648.7981366509624
874,648.827244883649
875,648.8573741548563
876,648.8884759219077
877,648.920497136354
878,648.9533803995865
879,648.9870641476946
880,649.0214828624819
881,649.056567306376
882,649.092244778956
883,649.1284393920944
884,649.165072359948
885,649.2020622997921
886,649.2393255399681
887,649.2767764315387
888,649.3143276604104
889,649.3518905570347
890,649.389375401768
891,649.4266917253362
892,649.4637486047416
893,649.5004549549755
894,649.5367198166193
895,649.5724526394683
896,649.6075635624751
897,649.6419636900077
898,649.675565363645
899,649.7082824281028
900,649.7400304899857
901,649.7707271690172
902,649.8002923430174
903,649.8286483896769
904,649.8557204295435
905,649.8814365750836
906,649.9057281902535
907,649.928530164199
908,649.9497812017997
909,649.9694241326647
910,649.987406238811
911,650.0036795999032
912,650.0182014538319
913,650.0309345694358
914,650.0418476269236
915,650.0509155998992
916,650.0581201311451
917,650.0634498930206
