frame_number,force
0,710.877172581175
1,710.8727825972961
2,710.8686180008309
3,710.8646810138567
4,710.8609709655501
5,710.8574843390991
6,710.8542148510558
7,710.8511535610091
8,710.848289009147
9,710.845607379163
10,710.8430926836917
11,710.8407269687865
12,710.8384905331006
13,710.8363621568125
14,710.834319335174
15,710.8323385119102
16,710.830395308485
17,710.8284647462801
18,710.8265214599119
19,710.8245399011726
20,710.82249453418
21,710.8203600229979
22,710.8181114133089
23,710.8157243098749
24,710.8131750514601
25,710.8104408843561
26,710.807500134575
27,710.8043323775173
28,710.8009186030044
29,710.7972413732741
30,710.7932849719125
31,710.7890355425702
32,710.784481217328
33,710.7796122352861
34,710.7744210522321
35,710.7689024422436
36,710.7630535918564
37,710.7568741869229
38,710.7503664916426
39,710.7435354186588
40,710.7363885885861
41,710.7289363767068
42,710.7211919438731
43,710.7131712479942
44,710.7048930319094
45,710.696378783034
46,710.6876526602423
47,710.6787413843219
48,710.6696740898622
49,710.6604821381783
50,710.6511988924367
51,710.6418594571452
52,710.6325003844003
53,710.623159348914
54,710.6138747934357
55,710.6046855461169
56,710.5956304115736
57,710.5867477377907
58,710.5780749618339
59,710.5696481387938
60,710.56150146031
61,710.5536667709487
62,710.5461730920382
63,710.5390461629054
64,710.532308009229
65,710.525976548418
66,710.5200652428111
67,710.51458281199
68,710.5095330143205
69,710.5049145049061
70,710.500720773324
71,710.4969401607233
72,710.4935559526042
73,710.4905465412219
74,710.4878856503807
75,710.4855426154244
76,710.4834827119967
77,710.4816675280694
78,710.4800553745062
79,710.4786017298321
80,710.4772597146952
81,710.4759805908176
82,710.4747142785055
83,710.4734098866372
84,710.4720162498141
85,710.4704824686444
86,710.4687584501573
87,710.4667954456226
88,710.464546582597
89,710.4619673872403
90,710.4590162923829
91,710.4556551266513
92,710.4518495797232
93,710.4475696382433
94,710.4427899865184
95,710.437490366381
96,710.431655891419
97,710.4252773113824
98,710.4183512224964
99,710.4108802190077
100,710.402872981536
101,710.3943442993422
102,710.3853150258989
103,710.3758119689825
104,710.365867717456
105,710.3555204074902
106,710.3448134314975
107,710.3337950934438
108,710.3225182146002
109,710.3110396946342
110,710.2994200341151
111,710.2877228253324
112,710.2760142182277
113,710.2643623673811
114,710.2528368649529
115,710.2415081637519
116,710.2304469943037
117,710.2197237796469
118,710.2094080514064
119,710.1995678706977
120,710.190269257691
121,710.181575633704
122,710.1735472790119
123,710.1662408086117
124,710.1597086678547
125,710.153998650481
126,710.1491534425667
127,710.145210196496
128,710.1422001390497
129,710.1401482173868
130,710.139072786528
131,710.1389853421069
132,710.1398903023764
133,710.1417848433339
134,710.1446587902889
135,710.1484945684666
136,710.1532672146527
137,710.158944451699
138,710.1654868279485
139,710.1728479239413
140,710.1809746285874
141,710.1898074859309
142,710.1992811116695
143,710.2093246761942
144,710.2198624486696
145,710.2308143949008
146,710.2420968206164
147,710.2536230514276
148,710.2653041409537
149,710.2770495989779
150,710.2887681315789
151,710.3003683849819
152,710.3117596845655
153,710.322852760086
154,710.3335604476617
155,710.3437983587968
156,710.353485507336
157,710.3625448869149
158,710.3709039937005
159,710.3784952912599
160,710.3852566158545
161,710.391131521514
162,710.3960695651922
163,710.4000265330991
164,710.4029646096031
165,710.4048524898124
166,710.4056654365891
167,710.4053852828691
168,710.4040003808071
169,710.401505500081
170,710.3979016782445
171,710.3931960260858
172,710.387401490594
173,710.3805365776109
174,710.3726250358615
175,710.363695504075
176,710.3537811234758
177,710.3429191189273
178,710.3311503530248
179,710.3185188580969
180,710.305071351503
181,710.2908567401798
182,710.27592562117
183,710.2603297853499
184,710.2441217312959
185,710.2273541952567
186,710.2100797019616
187,710.1923501399601
188,710.1742163646985
189,710.1557278326732
190,710.1369322704489
191,710.1178753827303
192,710.0986006039385
193,710.0791488979562
194,710.0595586106672
195,710.0398653792664
196,710.0201021008899
197,710.0002989611763
198,709.980483521411
199,709.960680861285
200,709.940913772945
201,709.9212030005731
202,709.9015675182749
203,709.8820248381332
204,709.8625913403562
205,709.8432826183781
206,709.8241138331888
207,709.8051000727365
208,709.7862567135444
209,709.7675997821981
210,709.7491463141309
211,709.7309147067639
212,709.7129250637981
213,709.6951995267282
214,709.6777625878647
215,709.6606413768043
216,709.6438659105224
217,709.6274692969639
218,709.611487883006
219,709.5959613391672
220,709.5809326749583
221,709.5664481805554
222,709.5525572929066
223,709.5393123873358
224,709.5267684982736
225,709.5149829738613
226,709.5040150688433
227,709.4939254797249
228,709.4847758268313
229,709.4766280894626
230,709.4695440020807
231,709.4635844211339
232,709.4588086736255
233,709.4552738993129
234,709.453034397909
235,709.4521409911181
236,709.4526404076944
237,709.454574698593
238,709.4579806884014
239,709.4628894680283
240,709.4693259321408
241,709.4773083635943
242,709.4868480662882
243,709.4979490475706
244,709.5106077517491
245,709.524812847506
246,709.54054507333
247,709.5577771455816
248,709.5764737333433
249,709.5965915033387
250,709.6180792374375
251,709.6408780244759
252,709.6649215265788
253,709.6901363176315
254,709.7164422888585
255,709.7437531147393
256,709.7719767719732
257,709.801016104547
258,709.8307694287554
259,709.8611311727973
260,709.8919925458353
261,709.9232422310142
262,709.9547670962893
263,709.9864529164796
264,710.0181850997838
265,710.0498494117583
266,710.0813326893481
267,710.1125235369991
268,710.143312996085
269,710.1735951780717
270,710.2032678518852
271,710.2322329776066
272,710.2603971816587
273,710.2876721720376
274,710.3139750949271
275,710.3392288358049
276,710.3633622688939
277,710.386310458938
278,710.4080148193905
279,710.4284232314376
280,710.4474901283248
281,710.4651765486058
282,710.4814501604615
283,710.4962852578034
284,710.5096627277487
285,710.5215699880645
286,710.5320008924338
287,710.5409556014674
288,710.5484404184683
289,710.5544675903627
290,710.5590550749694
291,710.5622262757366
292,710.5640097449311
293,710.5644388567009
294,710.563551452576
295,710.5613894632614
296,710.5579985114664
297,710.5534275008984
298,710.5477281966556
299,710.5409548021598
300,710.5331635374924
301,710.524412223709
302,710.5147598775714
303,710.5042663210289
304,710.4929918095074
305,710.4809966827509
306,710.4683410418439
307,710.4550844560722
308,710.4412857031305
309,710.4270025454515
310,710.4122915439663
311,710.3972079088685
312,710.3818053856586
313,710.3661361740926
314,710.3502508774185
315,710.334198479193
316,710.3180263449464
317,710.3017802457134
318,710.2855043997442
319,710.2692415277022
320,710.2530329157211
321,710.2369184798691
322,710.220936824849
323,710.2051252897052
324,710.1895199744888
325,710.1741557439033
326,710.1590662059792
327,710.1442836651958
328,710.1298390501503
329,710.1157618160919
330,710.1020798226821
331,710.0888191876053
332,710.0760041173534
333,710.0636567175607
334,710.0517967862982
335,710.0404415944939
336,710.0296056584589
337,710.0193005109356
338,710.0095344790316
339,710.000312478906
340,709.9916358373449
341,709.9835021494614
342,709.9759051804448
343,709.968834817976
344,709.9622770803664
345,709.956214183281
346,709.9506246653618
347,709.9454835710462
348,709.94076268769
349,709.9364308330854
350,709.932454187835
351,709.9287966651015
352,709.9254203088088
353,709.9222857107385
354,709.9193524367387
355,709.916579452245
356,709.9139255377128
357,709.9113496855017
358,709.9088114708267
359,709.9062713902133
360,709.9036911615964
361,709.9010339812767
362,709.8982647346384
363,709.8953501595296
364,709.8922589631755
365,709.8889618954129
366,709.885431782906
367,709.881643530501
368,709.8775740966016
369,709.8732024493789
370,709.86850951
371,709.8634780882054
372,709.8580928147333
373,709.8523400743964
374,709.8462079432542
375,709.8396861334239
376,709.8327659492726
377,709.8254402582455
378,709.817703478146
379,709.8095515809079
380,709.8009821114385
381,709.7919942188958
382,709.7825886964588
383,709.7727680243361
384,709.7625364098258
385,709.751899818086
386,709.7408659882772
387,709.7294444321872
388,709.7176464160258
389,709.7054849296599
390,709.692974649916
391,709.6801319051723
392,709.6669746476086
393,709.6535224377016
394,709.6397964431977
395,709.6258194523593
396,709.6116158992004
397,709.5972118967935
398,709.5826352734524
399,709.5679156056941
400,709.5530842413124
401,709.5381743055625
402,709.5232206835315
403,709.5082599724136
404,709.4933303983776
405,709.4784716937204
406,709.4637249313598
407,709.4491323159697
408,709.43473693392
409,709.4205824663652
410,709.4067128704392
411,709.3931720331963
412,709.3800034031613
413,709.3672496057902
414,709.3549520509284
415,709.3431505410542
416,709.3318828882541
417,709.3211845463967
418,709.3110882638963
419,709.3016237617586
420,709.2928174406403
421,709.284692119282
422,709.277266805538
423,709.2705565008497
424,709.264572039195
425,709.2593199617356
426,709.254802428154
427,709.2510171649029
428,709.2479574495469
429,709.2456121295057
430,709.2439656731557
431,709.2429982513911
432,709.242685848153
433,709.2430003987429
434,709.243909954716
435,709.2453788738795
436,709.2473680337026
437,709.2498350662953
438,709.2527346126789
439,709.2560185932649
440,709.2596364908901
441,709.263535642983
442,709.2676615402626
443,709.2719581300704
444,709.2763681226371
445,709.2808332984524
446,709.2852948147656
447,709.2896935094489
448,709.2939702011607
449,709.2980659856082
450,709.3019225280889
451,709.3054823523789
452,709.3086891261153
453,709.3114879435658
454,709.3138256078017
455,709.3156509151692
456,709.3169149452265
457,709.3175713588903
458,709.3175767064984
459,709.3168907459558
460,709.3154767692034
461,709.3133019332598
462,709.3103375907136
463,709.3065596143709
464,709.3019487115241
465,709.2964907239196
466,709.2901769091612
467,709.2830041982986
468,709.274975423556
469,709.2660995098757
470,709.2563916240366
471,709.2458732756506
472,709.2345723657268
473,709.2225231808261
474,709.209766333588
475,709.1963486526972
476,709.182323026449
477,709.1677482038666
478,709.1526885563632
479,709.1372138018535
480,709.1213986923233
481,709.105322665305
482,709.089069459517
483,709.0727266949098
484,709.0563854172866
485,709.0401396075911
486,709.0240856562972
487,709.0083218041768
488,708.9929475515942
489,708.9780630390775
490,708.9637684026467
491,708.9501631085773
492,708.9373452734195
493,708.9254109753724
494,708.9144535625682
495,708.9045629631322
496,708.8958250015803
497,708.8883207263217
498,708.8821257536105
499,708.8773096338892
500,708.873935246802
501,708.8720582311149
502,708.8717264555899
503,708.872979536773
504,708.8758484096717
505,708.8803549571012
506,708.8865117030263
507,708.8943215748865
508,708.9037777399318
509,708.9148635207437
510,708.9275523948378
511,708.941808082304
512,708.957584724007
513,708.9748271511406
514,708.9934712447855
515,709.0134443815294
516,709.0346659585621
517,709.0570479894885
518,709.0804957604397
519,709.1049085346817
520,709.1301802932661
521,709.156200500172
522,709.1828548829121
523,709.2100262224586
524,709.2375951481881
525,709.2654409338187
526,709.2934422895871
527,709.3214781453805
528,709.3494284199367
529,709.3771747722184
530,709.4046013317571
531,709.4315954047005
532,709.4580481515658
533,709.4838552316251
534,709.5089174079418
535,709.5331411069592
536,709.556438927393
537,709.57873009457
538,709.5999408577771
539,709.6200048295761
540,709.6388632673985
541,709.656465298719
542,709.6727680915902
543,709.6877369725918
544,709.7013454945696
545,709.7135754568276
546,709.7244168804694
547,709.7338679411623
548,709.7419348605488
549,709.7486317561713
550,709.7539804488931
551,709.7580102270041
552,709.7607575672852
553,709.7622658145217
554,709.7625848217625
555,709.7617705539944
556,709.7598846581221
557,709.7569940023764
558,709.7531701884894
559,709.7484890402659
560,709.7430300727204
561,709.7368759468773
562,709.7301119165654
563,709.7228252747615
564,709.7151048073656
565,709.7070402612235
566,709.6987218314241
567,709.6902396716504
568,709.6816834307515
569,709.6731418176819
570,709.6647021948343
571,709.6564501971428
572,709.648469372218
573,709.6408408357493
574,709.6336429363496
575,709.6269509246115
576,709.6208366224993
577,709.6153680915971
578,709.6106093018791
579,709.6066198054157
580,709.6034544206595
581,709.601162932664
582,709.5997898138475
583,709.5993739696569
584,709.5999485137138
585,709.6015405772935
586,709.6041711582043
587,709.6078550145759
588,709.6126006096437
589,709.6184101135769
590,709.6252794670896
591,709.6331985091036
592,709.6421511675974
593,709.6521157095912
594,709.6630650437886
595,709.6749670682973
596,709.6877850559341
597,709.7014780700828
598,709.7160014044025
599,709.7313070399929
600,709.7473441139914
601,709.7640593936533
602,709.7813977495134
603,709.7993026207655
604,709.8177164661295
605,709.8365811943991
606,709.8558385705401
607,709.8754305955773
608,709.8952998610837
609,709.9153898811028
610,709.935645405427
611,709.9560127184194
612,709.9764399272119
613,709.9968772423936
614,710.0172772535128
615,710.0375952008635
616,710.0577892439944
617,710.0778207262211
618,710.0976544332513
619,710.117258842724
620,710.1366063600491
621,710.1556735348731
622,710.1744412522213
623,710.1928948926253
624,710.2110244558094
625,710.2288246425661
626,710.2462948896583
627,710.2634393532916
628,710.2802668378731
629,710.2967906682713
630,710.3130285057131
631,710.3290021097865
632,710.3447370513283
633,710.3602623826874
634,710.3756102727317
635,710.3908156142871
636,710.4059156118906
637,710.4209493577056
638,710.4359574028698
639,710.4509813304311
640,710.4660633348321
641,710.4812458119675
642,710.4965709631455
643,710.5120804157183
644,710.527814862734
645,710.5438137237635
646,710.560114829052
647,710.5767541294391
648,710.5937654352114
649,710.6111801878458
650,710.6290272688783
651,710.6473328496706
652,710.6661202848552
653,710.6854100511741
654,710.705219732501
655,710.7255640507019
656,710.746454940419
657,710.7679016643526
658,710.7899109649455
659,710.8124872486362
660,710.8356327994983
661,710.8593480194334
662,710.8836316917802
663,710.90848126424
664,710.9338931458124
665,710.959863011566
666,710.9863861085677
667,711.0134575556197
668,711.0410726284265
669,711.0692270212545
670,711.097917077046
671,711.1271399802176
672,711.1568939087199
673,711.1871781429506
674,711.2179931284077
675,711.2493404874322
676,711.281222974583
677,711.3136443710534
678,711.346609315858
679,711.3801230742395
680,711.4141912461727
681,711.4488194200452
682,711.4840127788062
683,711.5197756678369
684,711.5561111351542
685,711.5930204553237
686,711.6305026487026
687,711.668554007261
688,711.7071676372536
689,711.7463330276889
690,711.7860356521987
691,711.8262566107252
692,711.8669723162826
693,711.9081542307479
694,711.9497686521946
695,711.9917765548971
696,712.0341334819735
697,712.0767894898402
698,712.1196891432975
699,712.1627715601815
700,712.2059705048598
701,712.249214529942
702,712.2924271650996
703,712.3355271511238
704,712.378428716851
705,712.4210418966398
706,712.4632728864121
707,712.5050244364369
708,712.5461962787912
709,712.5866855867964
710,712.6263874629291
711,712.6651954511149
712,712.7030020691965
713,712.7396993575384
714,712.7751794398001
715,712.8093350916988
716,712.8420603133595
717,712.8732509010886
718,712.9028050152334
719,712.9306237415159
720,712.9566116427872
721,712.9806772964724
722,713.0027338114236
723,713.0226993179842
724,713.0404974268581
725,713.0560576547341
726,713.0693158164953
727,713.08021438489
728,713.0887028190702
729,713.0947378637629
730,713.0982838208666
731,713.0993127945616
732,713.0978049096587
733,713.0937485013412
734,713.0871402730055
735,713.0779854179538
736,713.0662977006115
737,713.0520994937552
738,713.0354217693721
739,713.0163040418431
740,712.9947942631451
741,712.9709486707186
742,712.9448315892049
743,712.9165151870288
744,712.8860791879657
745,712.8536105370789
746,712.8192030203586
747,712.782956838191
748,712.7449781344371
749,712.7053784851726
750,712.6642743532826
751,712.6217865161956
752,712.5780394736182
753,712.533160840522
754,712.4872807286271
755,712.4405311181267
756,712.3930452206406
757,712.3449568339054
758,712.2963996879387
759,712.2475067814383
760,712.1984097067789
761,712.1492379630262
762,712.1001182589602
763,712.0511738111054
764,712.0025236440586
765,711.9542819016917
766,711.9065571785372
767,711.8594518810215
768,711.8130616278837
769,711.7674746978643
770,711.7227715309632
771,711.6790242879317
772,711.6362964716088
773,711.5946426132914
774,711.5541080274303
775,711.5147286383533
776,711.4765308829343
777,711.4395316927465
778,711.4037385584015
779,711.3691496778499
780,711.3357541892157
781,711.303532486756
782,711.2724566159277
783,711.2424907412767
784,711.2135916798256
785,711.1857094925992
786,711.1587881269727
787,711.1327661020633
788,711.1075772286415
789,711.083151354453
790,711.059415125482
791,711.0362927532396
792,711.0137067773752
793,710.9915788121052
794,710.9698302649218
795,710.9483830171454
796,710.9271600577306
797,710.9060860638176
798,710.885087923566
799,710.8640951985615
800,710.8430405244379
801,710.8218599496302
802,710.8004932135839
803,710.7788839671671
804,710.75697993948
805,710.7347330570306
806,710.7120995232638
807,710.689039868084
808,710.6655189776568
809,710.6415061143789
810,710.6169749359124
811,710.5919035209627
812,710.566274407985
813,710.540074650981
814,710.5132958941352
815,710.4859344648492
816,710.45799148317
817,710.429472984516
818,710.4003900512864
819,710.3707589470384
820,710.3406012450206
821,710.3099439421651
822,710.2788195503949
823,710.2472661580982
824,710.2153274546785
825,710.1830527104004
826,710.1504967034793
827,710.1177195872133
828,710.084786691771
829,710.0517682577131
830,710.0187391012618
831,709.9857782143581
832,709.9529683050728
833,709.9203952856237
834,709.8881477159977
835,709.8563162109467
836,709.8249928171198
837,709.7942703658304
838,709.7642418061835
839,709.7349995234466
840,709.706634648359
841,709.6792363636877
842,709.6528912142646
843,709.6276824262492
844,709.6036892411482
845,709.5809862706195
846,709.5596428790124
847,709.5397226012258
848,709.5212826032113
849,709.5043731914093
850,709.4890373761702
851,709.4753104931177
852,709.4632198853841
853,709.4527846485964
854,709.4440154396282
855,709.4369143496357
856,709.4314748415763
857,709.4276817521578
858,709.425511358154
859,709.4249315072088
860,709.4259018131045
861,709.4283739145346
862,709.4322917949045
863,709.4375921592905
864,709.4442048639914
865,709.4520533938718
866,709.4610553822371
867,709.471123167191
868,709.4821643780763
869,709.4940825463457
870,709.5067777365873
871,709.5201471942339
872,709.5340860059433
873,709.5484877672462
874,709.5632452510542
875,709.5782510708351
876,709.5933983334985
877,709.6085812784866
878,709.6236959004489
879,709.6386405528712
880,709.6533165294642
881,709.6676286197436
882,709.6814856355426
883,709.6948009060044
884,709.7074927393114
885,709.7194848495433
886,709.7307067466465
887,709.7410940872517
888,709.7505889846873
889,709.759140277845
890,709.7667037595705
891,709.7732423653598
892,709.7787263226148
893,709.7831332601955
894,709.7864482776756
895,709.7886639733943
896,709.7897804299482
897,709.7898051552258
898,709.7887529767183
899,709.7866458870526
900,709.7835128395603
901,709.779389493844
902,709.7743179122358
903,709.7683462084386
904,709.7615281493906
905,709.7539227110457
906,709.7455935892993
907,709.7366086691861
908,709.7270394579593
909,709.7169604895874
910,709.7064487091972
911,709.6955828465528
912,709.6844427880626
913,709.6731089567551
914,709.6616617089308
915,709.6501807549984
916,709.6387446107964
917,709.6274300847318
918,709.6163118053751
