frame_number,force
0,710.7521854541458
1,710.749181610276
2,710.7486745048744
3,710.7504649954708
4,710.7543003244476
5,710.7598819831171
6,710.766875022094
7,710.7749185175365
8,710.7836368949303
9,710.7926518300206
10,710.8015944373226
11,710.8101173806986
12,710.8179064324933
13,710.8246909314224
14,710.8302525797859
15,710.8344320869535
16,710.8371332964315
17,710.8383245991917
18,710.838037621044
19,710.836363367695
20,710.8334461797966
21,710.8294759527033
22,710.8246791212096
23,710.819308929506
24,710.8136354934634
25,710.8079360759104
26,710.8024858264195
27,710.7975490402748
28,710.7933708479123
29,710.7901692025779
30,710.7881270928729
31,710.7873850454686
32,710.7880341438115
33,710.7901099008737
34,710.793587368803
35,710.7983778690177
36,710.8043276886781
37,710.8112190066732
38,710.8187732041822
39,710.8266566121218
40,710.834488649034
41,710.8418521854389
42,710.8483058350726
43,710.8533977397303
44,710.8566802882347
45,710.8577251029863
46,710.8561375919821
47,710.8515704474527
48,710.8437356529985
49,710.8324147723914
50,710.8174674726058
51,710.798838325935
52,710.7765619065682
53,710.7507660763487
54,710.7216732298643
55,710.6895992008235
56,710.6549495104058
57,710.6182126524417
58,710.5799501984909
59,710.5407837014676
60,710.50137865386
61,710.4624260449071
62,710.4246222674371
63,710.3886481893054
64,710.3551481910091
65,710.3247100353739
66,710.2978466186875
67,710.2749807849965
68,710.2564342687149
69,710.2424214493142
70,710.2330480918489
71,710.228314746322
72,710.2281240661197
73,710.2322910336333
74,710.240554997696
75,710.2525925330382
76,710.268030350124
77,710.2864577230837
78,710.3074381151329
79,710.3305198298782
80,710.3552455687599
81,710.3811607403782
82,710.4078203181944
83,710.4347940756353
84,710.4616701916558
85,710.4880574553752
86,710.5135864830332
87,710.5379104181602
88,710.5607055195277
89,710.5816719137133
90,710.6005346860439
91,710.6170454292677
92,710.6309842977624
93,710.6421624863317
94,710.650424935879
95,710.6556530504452
96,710.6577672692541
97,710.6567293597739
98,710.652544208495
99,710.645260741846
100,710.6349715639025
101,710.6218110501818
102,710.6059519035795
103,710.5876003754443
104,710.5669904166169
105,710.5443770276686
106,710.5200290774981
107,710.4942218407487
108,710.4672294915247
109,710.4393178494095
110,710.4107377921866
111,710.3817198168296
112,710.3524701608525
113,710.3231687146472
114,710.2939687516113
115,710.2649983544302
116,710.2363633406449
117,710.2081514460458
118,710.1804374810515
119,710.1532891668498
120,710.1267733990568
121,710.1009626965158
122,710.0759414988204
123,710.0518118449785
124,710.0286979397197
125,710.0067492402053
126,709.9861418848656
127,709.9670784222415
128,709.9497858442727
129,709.9345119340403
130,709.9215199736524
131,709.9110819494203
132,709.9034704970962
133,709.8989498884662
134,709.8977663576245
135,709.9001380372088
136,709.9062447715735
137,709.91621813576
138,709.9301321182766
139,709.9479950651744
140,709.9697435476902
141,709.9952387411972
142,710.0242656857477
143,710.0565355093428
144,710.0916904241263
145,710.1293111029905
146,710.1689259347122
147,710.2100216552154
148,710.2520549362182
149,710.2944646075503
150,710.3366842300485
151,710.3781547195964
152,710.418336681408
153,710.4567220475166
154,710.4928445127962
155,710.5262881948046
156,710.556693998171
157,710.5837633746622
158,710.6072594576426
159,710.6270057989472
160,710.6428830883384
161,710.6548243169025
162,710.6628089052821
163,710.6668563489555
164,710.6670198822741
165,710.6633805215148
166,710.6560416921321
167,710.6451245640959
168,710.6307642219949
169,710.6131068263718
170,710.5923079154169
171,710.5685319178026
172,710.5419528071578
173,710.5127556684279
174,710.4811388141386
175,710.4473160256341
176,710.4115185255099
177,710.3739963937719
178,710.3350192570657
179,710.2948761531937
180,710.2538745172345
181,710.2123383125294
182,710.1706054494007
183,710.1290247189794
184,710.0879524453012
185,710.0477489369516
186,710.0087746670952
187,709.9713859984678
188,709.9359302523679
189,709.9027400084143
190,709.8721266668257
191,709.844373449107
192,709.819728143525
193,709.7983960281019
194,709.7805334971811
195,709.7662429181544
196,709.7555691271542
197,709.7484977753874
198,709.7449555369852
199,709.744812039614
200,709.7478832661718
201,709.7539360463501
202,709.7626931169067
203,709.7738381669199
204,709.7870203668591
205,709.8018580870457
206,709.817941782169
207,709.8348363032432
208,709.8520831274391
209,709.8692030916185
210,709.8857001816826
211,709.9010668611216
212,709.9147913575947
213,709.9263671740803
214,709.9353047646903
215,709.9411448852696
216,709.9434727806844
217,709.9419322377665
218,709.9362385922705
219,709.9261899069851
220,709.9116756637836
221,709.8926824726509
222,709.8692965584708
223,709.8417031220862
224,709.8101829486098
225,709.7751066886559
226,709.736927068597
227,709.6961691064549
228,709.6534184064178
229,709.6093077513289
230,709.5645023963333
231,709.5196846516
232,709.4755385126219
233,709.432735167805
234,709.3919200989546
235,709.353702229182
236,709.3186453108718
237,709.2872615809105
238,709.2600075959975
239,709.237282008816
240,709.2194248648211
241,709.2067178669267
242,709.1993850040363
243,709.1975929735353
244,709.2014509890396
245,709.2110098578963
246,709.2262605240339
247,709.247132461526
248,709.2734923474567
249,709.3051434236935
250,709.3418259558304
251,709.383219189652
252,709.4289450791059
253,709.4785737731355
254,709.5316305338093
255,709.5876035851022
256,709.6459523994048
257,709.7061160606353
258,709.7675215353523
259,709.8295918623171
260,709.8917543584553
261,709.9534489144238
262,710.0141363759304
263,710.073306952059
264,710.130488563923
265,710.1852549994702
266,710.2372336548393
267,710.2861125233799
268,710.3316459282962
269,710.3736583190499
270,710.4120454003133
271,710.4467720560151
272,710.4778669337453
273,710.5054140069337
274,710.5295417881981
275,710.5504110618544
276,710.568202039309
277,710.5831017789133
278,710.5952926484875
279,710.6049425821737
280,710.612197812768
281,710.6171785568213
282,710.6199778296508
283,710.6206632788051
284,710.6192816878214
285,710.6158655911607
286,710.6104412737473
287,710.603037392068
288,710.5936935823074
289,710.582468603736
290,710.5694476536581
291,710.5547484610934
292,710.5385257262584
293,710.5209735315536
294,710.5023255220832
295,710.4828528582553
296,710.4628600903877
297,710.442679181487
298,710.4226619435651
299,710.4031711679215
300,710.384570721885
301,710.3672148809432
302,710.3514371908135
303,710.3375391881802
304,710.3257793218354
305,710.3163624255405
306,710.3094301358124
307,710.3050527145538
308,710.3032227752776
309,710.3038513580241
310,710.3067666292518
311,710.3117152686268
312,710.3183664532655
313,710.3263182953566
314,710.3351065889357
315,710.344215740214
316,710.3530917744746
317,710.3611572890128
318,710.367828117049
319,710.3725313077013
320,710.3747238689466
321,710.3739115702024
322,710.3696669591693
323,710.3616457008309
324,710.3496004848391
325,710.3333920197325
326,710.3129968925147
327,710.2885122274917
328,710.260157126
329,710.2282708434896
330,710.1933076117148
331,710.1558280010195
332,710.1164867792397
333,710.0760173463722
334,710.0352129509802
335,709.9949049879701
336,709.9559387892153
337,709.919147537314
338,709.8853252412403
339,709.855199964417
340,709.8294085630971
341,709.8084740911742
342,709.792786868664
343,709.7825900612507
344,709.7779704355814
345,709.7788546774023
346,709.785011331525
347,709.7960581761948
348,709.8114747289403
349,709.8306194860023
350,709.8527513064115
351,709.8770541036849
352,709.9026638320528
353,709.9286966939867
354,709.9542774908605
355,709.9785670537693
356,710.0007877633213
357,710.0202463104678
358,710.0363530053122
359,710.0486370460945
360,710.0567572376237
361,710.0605077763361
362,710.0598189344962
363,710.0547527349465
364,710.0454939576177
365,710.0323370586434
366,710.015669814768
367,709.9959546794468
368,709.9737088940374
369,709.9494843332651
370,709.923847918813
371,709.8973632598774
372,709.8705740142193
373,709.843989327844
374,709.8180716338296
375,709.7932270939385
376,709.7697989926334
377,709.7480643201304
378,709.728233567534
379,709.7104534979069
380,709.6948124526396
381,709.6813475921651
382,709.6700533001214
383,709.660889811898
384,709.6537910231646
385,709.6486704501484
386,709.6454245111926
387,709.643932721051
388,709.6440549846195
389,709.6456267729915
390,709.6484533656036
391,709.6523044658747
392,709.6569103930073
393,709.6619607967127
394,709.6671064924553
395,709.671964645976
396,709.6761272162772
397,709.6791723085078
398,709.6806778796887
399,709.6802370831185
400,709.677474423949
401,709.6720618168174
402,709.6637336118041
403,709.652299713398
404,709.637656021872
405,709.6197915338231
406,709.5987915975752
407,709.5748371164162
408,709.5481998835202
409,709.5192345195376
410,709.4883675296913
411,709.4560839012253
412,709.4229116552395
413,709.3894049539191
414,709.3561266119191
415,709.3236309461294
416,709.2924477512225
417,709.2630679506664
418,709.235931304364
419,709.2114164533955
420,709.1898334467276
421,709.1714187030592
422,709.1563322119675
423,709.1446567529744
424,709.1363989779887
425,709.1314922737656
426,709.1298013295775
427,709.131128262703
428,709.1352200387441
429,709.1417768365591
430,709.1504609983231
431,709.1609062727812
432,709.1727271642608
433,709.1855282868365
434,709.198913654449
435,709.2124958265686
436,709.2259048211565
437,709.2387967052463
438,709.2508617226268
439,709.2618317060804
440,709.2714864408796
441,709.2796586870006
442,709.2862376967299
443,709.2911711715568
444,709.2944656297274
445,709.2961851294383
446,709.2964482651728
447,709.2954233790005
448,709.2933220325833
449,709.2903909142057
450,709.2869024107213
451,709.28314405486
452,709.2794070714531
453,709.2759743648504
454,709.2731084697734
455,709.2710401336352
456,709.2699582504854
457,709.2700018142153
458,709.2712544127195
459,709.2737415610837
460,709.2774308893984
461,709.2822349091243
462,709.2880158850201
463,709.2945923282996
464,709.3017467588106
465,709.3092344900323
466,709.316793145571
467,709.3241524664442
468,709.3310438442469
469,709.3372089669625
470,709.3424069671728
471,709.3464195306489
472,709.3490536182219
473,709.350141789746
474,709.3495405149936
475,709.3471271746686
476,709.3427965811172
477,709.3364577685606
478,709.3280316015034
479,709.3174495242248
480,709.3046535750312
481,709.289597639098
482,709.2722498184252
483,709.2525957283843
484,709.2306424495911
485,709.2064227844277
486,709.1799994519166
487,709.1514689185316
488,709.120964633704
489,709.0886594704235
490,709.054767226505
491,709.0195431760608
492,708.9832837903065
493,708.9463257495306
494,708.9090442497604
495,708.871850475337
496,708.835188044394
497,708.7995282590232
498,708.7653640833154
499,708.7332028792641
500,708.7035580042882
501,708.6769394022498
502,708.6538433331109
503,708.6347414274709
504,708.6200693177067
505,708.6102151401032
506,708.605508213175
507,708.6062082332555
508,708.6124954297829
509,708.6244622461641
510,708.6421071733048
511,708.6653313235479
512,708.6939382188597
513,708.7276371054444
514,708.7660498804803
515,708.8087214160593
516,708.8551327523792
517,708.904716387158
518,708.9568727136405
519,709.0109865220982
520,709.0664424436856
521,709.1226384142416
522,709.1789966728892
523,709.2349722944741
524,709.2900595652361
525,709.3437965661615
526,709.3957682180287
527,709.4456079498271
528,709.4929981957281
529,709.5376700505917
530,709.5794024836904
531,709.6180214549521
532,709.6533991112468
533,709.6854530129825
534,709.7141451359888
535,709.7394803055779
536,709.7615037798829
537,709.7802978402625
538,709.7959773910324
539,709.8086847110402
540,709.8185836334129
541,709.8258535083079
542,709.8306833051689
543,709.8332661827961
544,709.8337948382963
545,709.8324579271066
546,709.8294377929502
547,709.8249096253406
548,709.8190419503958
549,709.8119981041161
550,709.8039381609769
551,709.7950207883941
552,709.7854046365611
553,709.7752490387925
554,709.7647139039339
555,709.7539587259107
556,709.743140660231
557,709.7324116481617
558,709.7219146022362
559,709.7117787135205
560,709.7021140322921
561,709.6930056251016
562,709.6845078162039
563,709.6766392231935
564,709.6693793640563
565,709.6626674616759
566,709.6564038117008
567,709.6504539020494
568,709.6446553947425
569,709.6388279377497
570,709.6327854611039
571,709.6263502148009
572,709.61936749099
573,709.6117198266846
574,709.6033394854132
575,709.5942181212096
576,709.5844127497433
577,709.5740475351276
578,709.5633114021564
579,709.5524519236989
580,709.5417661377007
581,709.531588919692
582,709.5222794397373
583,709.514206212523
584,709.5077313088633
585,709.5031943649377
586,709.5008970875358
587,709.5010890546685
588,709.5039557353539
589,709.5096096821677
590,709.5180856859292
591,709.5293403370707
592,709.5432559911312
593,709.5596486819834
594,709.5782791873617
595,709.5988663201923
596,709.6211015681326
597,709.6446643102745
598,709.6692369230217
599,709.6945191628179
600,709.7202412965037
601,709.7461754825538
602,709.7721448544963
603,709.7980296987938
604,709.8237701517744
605,709.8493649900515
606,709.8748663532176
607,709.9003706066873
608,709.9260059507246
609,709.9519176906579
610,709.9782522458272
611,710.00514100685
612,710.0326850837507
613,710.0609418622544
614,710.0899141460386
615,710.1195425120209
616,710.1497013232191
617,710.1801986397153
618,710.2107800585101
619,710.2411362787122
620,710.2709139332001
621,710.299729025446
622,710.3271822234567
623,710.3528752574216
624,710.3764276578398
625,710.3974930263176
626,710.4157740059806
627,710.4310351690968
628,710.4431131597273
629,710.4519235997208
630,710.4574645025012
631,710.4598162390967
632,710.4591383999264
633,710.4556641049328
634,710.4496923968039
635,710.4415793547951
636,710.431728553419
637,710.4205814508605
638,710.4086081742284
639,710.3962989776475
640,710.3841564537516
641,710.3726884339467
642,710.3624014159894
643,710.353794289479
644,710.347352096573
645,710.3435395752659
646,710.3427942809986
647,710.3455191877797
648,710.3520748491329
649,710.3627713962395
650,710.3778607751615
651,710.3975296388053
652,710.4218932444721
653,710.4509906347325
654,710.4847813282436
655,710.5231436637224
656,710.5658747861143
657,710.6126921168749
658,710.6632361264701
659,710.7170743439295
660,710.7737067052966
661,710.8325724550721
662,710.8930588139588
663,710.9545115115402
664,711.0162471181426
665,711.0775669841337
666,711.1377725138371
667,711.1961813790409
668,711.252144086577
669,711.3050601838885
670,711.3543934703163
671,711.3996858662862
672,711.4405698792506
673,711.4767796762987
674,711.5081605676693
675,711.5346763669286
676,711.5564138619625
677,711.5735836595392
678,711.5865169186475
679,711.595657805964
680,711.6015517815325
681,711.6048300695135
682,711.6061909239311
683,711.606378524025
684,711.6061604758431
685,711.6063049579164
686,711.6075585409261
687,711.6106256216497
688,711.6161502409379
689,711.6247008436055
690,711.6367583383295
691,711.6527076518704
692,711.6728328250358
693,711.6973155400262
694,711.7262368003661
695,711.759581332303
696,711.7972441688519
697,711.8390388315127
698,711.8847065525197
699,711.9339260844553
700,711.9863237856375
701,712.0414837715414
702,712.098957936454
703,712.158275615034
704,712.2189526583555
705,712.2804997840612
706,712.3424301839084
707,712.4042664640099
708,712.4655470146872
709,712.52583186072
710,712.5847079636663
711,712.6417938945242
712,712.6967438067429
713,712.7492506899802
714,712.799048911334
715,712.8459160273941
716,712.889673818616
717,712.9301885315444
718,712.9673704346671
719,713.0011728928184
720,713.031591079838
721,713.0586601667252
722,713.0824525584495
723,713.1030737397623
724,713.1206565401745
725,713.1353539667939
726,713.1473310153373
727,713.1567560027582
728,713.1637920172805
729,713.1685891077988
730,713.171277809231
731,713.1719644623614
732,713.17072854649
733,713.1676219705043
734,713.1626700164416
735,713.1558734521408
736,713.1472112909598
737,713.1366437736843
738,713.1241152963751
739,713.1095571441095
740,713.0928900160349
741,713.0740264431165
742,713.0528732528411
743,713.0293341647647
744,713.0033124330953
745,712.9747132972964
746,712.9434459518404
747,712.9094248284209
748,712.8725701964729
749,712.8328083952397
750,712.7900722977927
751,712.744302728878
752,712.6954514463033
753,712.6434859964114
754,712.5883963967997
755,712.530203319752
756,712.4689672894216
757,712.4047982901553
758,712.3378650263888
759,712.2684028895884
760,712.1967195981952
761,712.1231976198009
762,712.0482928684311
763,711.9725296313469
764,711.8964920364864
765,711.820812582533
766,711.7461583866893
767,711.6732158911774
768,711.6026747578815
769,711.5352115363469
770,711.4714734725319
771,711.4120626413458
772,711.357520500754
773,711.3083129857355
774,711.2648163702552
775,711.2273042877706
776,711.1959364384064
777,711.1707495576983
778,711.1516511991069
779,711.1384168448732
780,711.1306907767363
781,711.1279909297026
782,711.1297176391317
783,711.1351659252771
784,711.1435408725989
785,711.153975721576
786,711.1655523497915
787,711.1773237869179
788,711.1883383187483
789,711.1976646559223
790,711.20441758475
791,711.2077834322968
792,711.2070445258839
793,711.2016016603872
794,711.1909935285994
795,711.1749121784586
796,711.1532137765247
797,711.1259242037039
798,711.0932392467479
799,711.0555193372285
800,711.0132789174887
801,710.9671706303765
802,710.917964671766
803,710.8665237950233
804,710.8137746198053
805,710.7606761186987
806,710.7081864262847
807,710.6572293389125
808,710.6086619526913
809,710.5632448153473
810,710.521615813797
811,710.4842688415725
812,710.4515380777058
813,710.4235884216969
814,710.4004122892154
815,710.3818326702301
816,710.3675121508488
817,710.3569674707946
818,710.349589025741
819,710.3446644644168
820,710.3414052686173
821,710.3389751235102
822,710.3365190208829
823,710.3331922019304
824,710.3281880536799
825,710.3207639553451
826,710.310264007056
827,710.2961376736333
828,710.2779536165298
829,710.2554083190558
830,710.2283295079118
831,710.1966747780784
832,710.1605261498706
833,710.1200814742754
834,710.0756436409335
835,710.0276084301701
836,709.976451617049
837,709.9227156659447
838,709.8669961639761
839,709.8099281039646
840,709.7521721969848
841,709.6944014430587
842,709.637288139015
843,709.581491398585
844,709.5276452101767
845,709.4763471288173
846,709.4281478491882
847,709.3835420206443
848,709.3429606540014
849,709.3067653480838
850,709.2752444191851
851,709.2486109051881
852,709.2270023226516
853,709.2104819643725
854,709.1990414707627
855,709.1926044147831
856,709.191030678364
857,709.1941214493862
858,709.2016247575328
859,709.2132415868156
860,709.2286326694888
861,709.2474260080005
862,709.2692250183582
863,709.293617051616
864,709.320182014988
865,709.3485008453436
866,709.378163577733
867,709.4087766823467
868,709.4399693357761
869,709.471398446953
870,709.502752504192
871,709.5337544579783
872,709.5641637864329
873,709.5937776825315
874,709.6224311484731
875,709.6499958110916
876,709.6763774534843
877,709.7015124669292
878,709.7253635430234
879,709.7479148981212
880,709.7691672031968
881,709.7891323000986
882,709.807827795155
883,709.825271705329
884,709.8414773997033
885,709.8564490539975
886,709.8701777254256
887,709.8826380675004
888,709.8937857497222
889,709.9035557981189
890,709.9118621792773
891,709.9185989133114
892,709.9236428661586
893,709.9268582363851
894,709.9281026464461
895,709.9272346445956
896,709.9241222997579
897,709.9186524336493
898,709.9107399241684
899,709.900336494972
900,709.8874384915365
901,709.8720932735506
902,709.854403953896
903,709.834532233045
904,709.8126990009358
905,709.7891822890628
906,709.7643122101298
907,709.738462792076
908,709.7120409814164
909,709.6854733759446
910,709.6591913951816
911,709.6336156831604
912,709.6091406058971
913,709.5861197101352
914,709.5648529126806
915,709.5455760266831
916,709.528453070703
917,709.513571688689
918,709.500941936189
