frame_number,force
0,716.0826400084233
1,716.1427792150319
2,716.2027863787082
3,716.262530071319
4,716.3218800840242
5,716.3807080110209
6,716.4388878023802
7,716.4962962771029
8,716.5528135897747
9,716.6083236467625
10,716.6627144701705
11,716.7158785097793
12,716.7677129052587
13,716.818119703014
14,716.8670060334689
15,716.9142842547741
16,716.9598720679371
17,717.0036926069507
18,717.0456745063622
19,717.0857519480884
20,717.1238646891145
21,717.1599580719009
22,717.193983019561
23,717.2258960176205
24,717.2556590831771
25,717.2832397210503
26,717.3086108658283
27,717.3317508086383
28,717.3526431073423
29,717.3712764784095
30,717.3876446683279
31,717.4017463024269
32,717.4135847094337
33,717.4231677208882
34,717.4305074457221
35,717.4356200218107
36,717.4385253480123
37,717.4392468020347
38,717.4378109511204
39,717.4342472635832
40,717.4285878293412
41,717.4208670969014
42,717.4111216330018
43,717.3993899094771
44,717.3857121202282
45,717.3701300297035
46,717.352686853068
47,717.3334271671948
48,717.3123968508344
49,717.2896430518706
50,717.2652141793517
51,717.2391599176424
52,717.2115312592391
53,717.1823805514003
54,717.1517615502343
55,717.1197294750318
56,717.0863410560164
57,717.0516545703977
58,717.0157298641924
59,716.9786283595739
60,716.9404130484638
61,716.9011484727436
62,716.8609006907363
63,716.8197372290848
64,716.7777270188641
65,716.7349403148125
66,716.6914485971884
67,716.6473244569005
68,716.6026414657532
69,716.5574740344252
70,716.5118972610384
71,716.4659867727925
72,716.4198185622392
73,716.3734688188609
74,716.3270137564292
75,716.2805294372486
76,716.234091595445
77,716.1877754627342
78,716.1416556014597
79,716.0958057504316
80,716.0502986883391
81,716.00520611727
82,715.9605985661133
83,715.9165453112248
84,715.8731143100903
85,715.830372142954
86,715.7883839574534
87,715.7472134120936
88,715.7069226158966
89,715.6675720636615
90,715.6292205684704
91,715.591925194595
92,715.5557411945377
93,715.5207219539598
94,715.4869189479411
95,715.4543817110097
96,715.4231578214439
97,715.3932928981261
98,715.3648306067215
99,715.3378126715469
100,715.3122788896044
101,715.2882671430701
102,715.2658134057293
103,715.2449517379736
104,715.2257142650905
105,715.2081311353147
106,715.1922304568792
107,715.1780382158696
108,715.1655781782035
109,715.1548717793992
110,715.1459380052777
111,715.1387932657352
112,715.1334512624437
113,715.129922849968
114,715.128215888857
115,715.1283350893631
116,715.130281845577
117,715.1340540614882
118,715.1396459725984
119,715.1470479693871
120,715.156246431864
121,715.1672235866297
122,715.1799573983585
123,715.1944215063353
124,715.210585214152
125,715.2284135374882
126,715.2478673117522
127,715.2689033590269
128,715.2914747123725
129,715.315530894426
130,715.3410182455805
131,715.3678802946054
132,715.3960581619874
133,715.4254909844094
134,715.4561163481254
135,715.4878707194126
136,715.5206898614825
137,715.5545092290715
138,715.5892643342909
139,715.6248910797996
140,715.6613260574702
141,715.698506812312
142,715.736372072696
143,715.7748619488281
144,715.8139181016497
145,715.8534838840046
146,715.8935044551829
147,715.9339268689697
148,715.9747001343785
149,716.0157752481783
150,716.0571051997129
151,716.0986449509797
152,716.1403513973391
153,716.1821833156997
154,716.2241013076216
155,716.2660677448051
156,716.3080467236753
157,716.3500040338765
158,716.3919071428928
159,716.4337251964251
160,716.4754290318117
161,716.5169911995871
162,716.5583859864113
163,716.5995894314749
164,716.6405793285852
165,716.6813352074832
166,716.7218382900783
167,716.762071419785
168,716.8020189647677
169,716.8416666982873
170,716.8810016612316
171,716.9200120130552
172,716.9586868775219
173,716.9970161887948
174,717.034990542077
175,717.0726010517054
176,717.1098392184465
177,717.1466968068355
178,717.183165733095
179,717.2192379645786
180,717.2549054321106
181,717.2901599562249
182,717.32499318707
183,717.3593965562862
184,717.393361238157
185,717.4268781171307
186,717.4599377594147
187,717.4925303875879
188,717.5246458587286
189,717.5562736479992
190,717.587402840672
191,717.618022136101
192,717.6481198670086
193,717.6776840367938
194,717.706702376809
195,717.7351624250726
196,717.763051627563
197,717.79035746258
198,717.8170675873166
199,717.8431700041108
200,717.8686532428271
201,717.8935065560157
202,717.9177201245196
203,717.9412852721271
204,717.9641946881084
205,717.986442656149
206,718.0080252876255
207,718.0289407562816
208,718.0491895299109
209,718.068774592894
210,718.0877016520362
211,718.1059793173176
212,718.1236192487797
213,718.1406362610513
214,718.1570483782772
215,718.1728768341434
216,718.1881460136796
217,718.2028833355416
218,718.2171190758463
219,718.2308861370917
220,718.244219767561
221,718.257157237603
222,718.2697374796195
223,718.2820006986143
224,718.2939879596045
225,718.3057407570915
226,718.3173005705647
227,718.3287084092683
228,718.3400043496307
229,718.351227069738
230,718.3624133863358
231,718.3735978004366
232,718.3848120576979
233,718.3960847297597
234,718.4074408228754
235,718.4189014201864
236,718.4304833634357
237,718.4421989784049
238,718.454055845928
239,718.4660566176743
240,718.4781988740211
241,718.4904750207709
242,718.5028722219455
243,718.515372366718
244,718.5279520693064
245,718.5405827012293
246,718.5532304556482
247,718.5658564437296
248,718.5784168234198
249,718.5908629619656
250,718.6031416345742
251,718.6151952620435
252,718.6269621895095
253,718.6383770069137
254,718.6493709102033
255,718.6598721013545
256,718.6698062250813
257,718.679096839868
258,718.6876659200151
259,718.6954343838007
260,718.7023226414249
261,718.7082511556783
262,718.7131410081197
263,718.7169144637542
264,718.7194955280784
265,718.720810492158
266,718.7207884635638
267,718.7193618822905
268,718.7164670206855
269,718.7120444657841
270,718.7060395826047
271,718.6984029582735
272,718.6890908284132
273,718.6780654878277
274,718.6652956865041
275,718.6507570097934
276,718.6344322395313
277,718.6163116918278
278,718.5963935274277
279,718.5746840315801
280,718.5511978617009
281,718.5259582619949
282,718.4989972440264
283,718.4703557311126
284,718.4400836631665
285,718.4082400579409
286,718.3748930244079
287,718.3401197235538
288,718.3040062708211
289,718.266647573325
290,718.2281470946074
291,718.1886165404849
292,718.1481754614388
293,718.1069507695804
294,718.0650761708077
295,718.0226915146243
296,717.9799420649251
297,717.9369776951577
298,717.8939520113628
299,717.85102140743
300,717.8083440586107
301,717.7660788614188
302,717.7243843298677
303,717.6834174592113
304,717.6433325690252
305,717.6042801378479
306,717.5664056420345
307,717.5298484119763
308,717.494740519189
309,717.461205707782
310,717.4293583834573
311,717.399302672432
312,717.3711315615556
313,717.3449261296154
314,717.3207548785474
315,717.2986731718051
316,717.2787227852873
317,717.2609315742017
318,717.24531325765
319,717.2318673219403
320,717.220579043638
321,717.2114196336369
322,717.2043465033734
323,717.1993036531792
324,717.1962221805848
325,717.1950209036855
326,717.1956070924323
327,717.1978772997533
328,717.2017182849332
329,717.2070080230994
330,717.2136167959212
331,717.221408358448
332,717.2302411747897
333,717.2399697117344
334,717.2504457756434
335,717.2615198750318
336,717.2730425896472
337,717.2848659267521
338,717.2968446465024
339,717.3088375403373
340,717.3207086485578
341,717.3323284051365
342,717.343574699135
343,717.354333843356
344,717.3645014423493
345,717.3739831532305
346,717.3826953334054
347,717.3905655692954
348,717.3975330802781
349,717.4035489929926
350,717.4085764832839
351,717.4125907862372
352,717.4155790783042
353,717.4175402386006
354,717.4184844985216
355,717.4184329898413
356,717.4174172016701
357,717.4154783565016
358,717.4126667155059
359,717.4090408234258
360,717.4046667039522
361,717.3996170170562
362,717.3939701898188
363,717.3878095313249
364,717.3812223403856
365,717.3742990131417
366,717.3671321568474
367,717.3598157162277
368,717.3524441187499
369,717.3451114442174
370,717.3379106226205
371,717.3309326631228
372,717.3242659167784
373,717.3179953755514
374,717.3122020098863
375,717.3069621465336
376,717.3023468879912
377,717.2984215747447
378,717.2952452910578
379,717.2928704143353
380,717.2913422072779
381,717.2906984512231
382,717.290969118383
383,717.2921760807791
384,717.2943328549376
385,717.2974443833788
386,717.3015068556708
387,717.3065075726786
388,717.3124248574446
389,717.3192280153673
390,717.3268773460369
391,717.3353242100625
392,717.3445111561695
393,717.3543721154797
394,717.3648326701765
395,717.3758104027447
396,717.3872153305382
397,717.3989504291175
398,717.4109122461621
399,717.4229916049991
400,717.4350743928571
401,717.4470424246718
402,717.4587743694743
403,717.4701467234231
404,717.481034811532
405,717.491313799474
406,717.5008596979785
407,717.5095503450689
408,717.5172663545085
409,717.5238920208755
410,717.5293161722167
411,717.5334329611281
412,717.5361425858296
413,717.5373519349765
414,717.5369751528646
415,717.5349341241659
416,717.5311588789458
417,717.5255879195436
418,717.518168471141
419,717.5088566575987
420,717.4976176036176
421,717.4844254638144
422,717.4692633795079
423,717.4521233654209
424,717.4330061307154
425,717.4119208406566
426,717.3888848257955
427,717.3639232447368
428,717.3370687047799
429,717.3083608425391
430,717.2778458646452
431,717.2455760472737
432,717.2116091929571
433,717.1760080441136
434,717.1388396548552
435,717.1001747254243
436,717.0600869064635
437,717.0186520827792
438,716.9759476479309
439,716.9320517815289
440,716.887042740426
441,716.8409981736331
442,716.7939944697288
443,716.7461061451438
444,716.6974052816281
445,716.647961021011
446,716.5978391250869
447,716.5471016081476
448,716.4958064492527
449,716.4440073905678
450,716.3917538268353
451,716.3390907892527
452,716.2860590249979
453,716.2326951717513
454,716.1790320251155
455,716.1250988958
456,716.0709220523707
457,716.0165252436254
458,715.9619302919509
459,715.9071577460137
460,715.8522275789828
461,715.7971599175979
462,715.7419757869326
463,715.6866978546113
464,715.6313511565046
465,715.5759637845915
466,715.5205675180026
467,715.4651983807037
468,715.409897113171
469,715.3547095493935
470,715.2996868936938
471,715.244885894231
472,715.1903689121133
473,715.1362038870209
474,715.0824642021008
475,715.0292284525849
476,714.9765801239278
477,714.9246071860065
478,714.8734016101356
479,714.8230588159668
480,714.7736770567036
481,714.7253567537672
482,714.6781997950103
483,714.6323088121052
484,714.587786452004
485,714.544734654835
486,714.5032539472737
487,714.4634427572943
488,714.4253967538508
489,714.3892082136259
490,714.3549654164415
491,714.3227520710592
492,714.292646773576
493,714.264722501017
494,714.2390461426776
495,714.2156780712288
496,714.1946717548091
497,714.1760734107238
498,714.159921701366
499,714.1462474735689
500,714.1350735432835
501,714.1264145277427
502,714.1202767272041
503,714.1166580584025
504,714.1155480422216
505,714.1169278485381
506,714.1207704011057
507,714.1270405442632
508,714.1356952713719
509,714.146684012936
510,714.1599489810177
511,714.1754255658439
512,714.1930427800702
513,714.2127237457148
514,714.2343862179619
515,714.2579431387755
516,714.2833032120318
517,714.310371491359
518,714.3390499722091
519,714.3692381803864
520,714.4008337500122
521,714.4337329847885
522,714.4678313975669
523,714.5030242245853
524,714.5392069122014
525,714.5762755753558
526,714.6141274280997
527,714.6526611870981
528,714.6917774490063
529,714.7313790424204
530,714.7713713552246
531,714.8116626385639
532,714.8521642889295
533,714.8927911096689
534,714.9334615526672
535,714.9740979400688
536,715.0146266648934
537,715.0549783684678
538,715.0950880920257
539,715.1348953998533
540,715.1743444720792
541,715.2133841665209
542,715.2519680507352
543,715.2900544071782
544,715.3276062155599
545,715.3645911165687
546,715.4009813603524
547,715.4367537420478
548,715.47188952554
549,715.5063743555601
550,715.5401981575226
551,715.5733550245133
552,715.6058430914875
553,715.6376643975029
554,715.6688247372999
555,715.6993335038804
556,715.7292035242648
557,715.7584508912073
558,715.7870947936669
559,715.8151573477529
560,715.8426634281078
561,715.8696404982644
562,715.896118438123
563,715.922129367353
564,715.9477074648621
565,715.972888785929
566,715.9977110795913
567,716.0222136090518
568,716.0464369767576
569,716.0704229531658
570,716.0942143047166
571,716.1178546138525
572,716.1413880832764
573,716.1648593178714
574,716.1883130797592
575,716.2117940139836
576,716.2353463440611
577,716.2590135382083
578,716.2828379483999
579,716.3068604254054
580,716.3311199138401
581,716.355653032352
582,716.3804936451322
583,716.4056724313631
584,716.4312164588896
585,716.4571487676654
586,716.4834879675419
587,716.5102478537292
588,716.5374370423407
589,716.5650586286714
590,716.5931098725066
591,716.621581917291
592,716.6504595527883
593,716.6797210333739
594,716.7093379657703
595,716.7392752803162
596,716.7694912983987
597,716.7999379054941
598,716.830560834965
599,716.8613000635708
600,716.8920903164662
601,716.9228616771704
602,716.9535402957301
603,716.984049185644
604,717.0143090974437
605,717.0442394549566
606,717.0737593396143
607,717.1027885083987
608,717.1312484314053
609,717.1590633349728
610,717.1861612357427
611,717.2124749499238
612,717.2379430606493
613,717.2625108253353
614,717.2861310053868
615,717.308764602917
616,717.3303814927741
617,717.3509609420028
618,717.3704920121946
619,717.3889738428733
620,717.4064158161707
621,717.4228376045219
622,717.4382691040366
623,717.4527502569317
624,717.4663307670262
625,717.4790697125956
626,717.4910350609047
627,717.5023030888221
628,717.5129577143633
629,717.5230897449402
630,717.5327960494733
631,717.542178663203
632,717.5513438362048
633,717.5604010394258
634,717.5694619447901
635,717.5786393970695
636,717.5880463938946
637,717.5977950871325
638,717.6079958154708
639,717.6187561756196
640,717.6301801382535
641,717.6423672141804
642,717.6554116756021
643,717.669401836261
644,717.6844193927551
645,717.7005388277971
646,717.7178268752231
647,717.7363420462291
648,717.756134216269
649,717.7772442720748
650,717.7997038186506
651,717.8235349469207
652,717.8487500635385
653,717.8753517847506
654,717.9033328959816
655,717.9326763777889
656,717.96335549689
657,717.9953339584719
658,718.0285661137838
659,718.0629972159368
660,718.0985637170943
661,718.1351936014485
662,718.1728067500026
663,718.2113153350338
664,718.2506242441902
665,718.2906315361162
666,718.3312289306953
667,718.3723023372786
668,718.4137324239456
669,718.455395230111
670,718.4971628233537
671,718.5389039990616
672,718.5804850187009
673,718.6217703797666
674,718.6626236081895
675,718.7029080626564
676,718.7424877404421
677,718.7812280755866
678,718.8189967213964
679,718.8556643096707
680,718.8911051795051
681,718.925198069721
682,718.9578267704155
683,718.9888807299313
684,719.018255613807
685,719.0458538127488
686,719.0715848977303
687,719.0953660215899
688,719.1171222674468
689,719.1367869449821
690,719.1543018365959
691,719.169617396718
692,719.1826929084209
693,719.1934966011456
694,719.2020057318061
695,719.2082066297675
696,719.2120947052232
697,719.2136744205457
698,719.212959224767
699,719.2099714521554
700,719.2047421868737
701,719.197311096764
702,719.1877262399393
703,719.1760438479432
704,719.1623280891597
705,719.1466508162052
706,719.129091300876
707,719.1097359592026
708,719.08867806711
709,719.0660174644484
710,719.0418602422944
711,719.0163184061144
712,718.9895095064234
713,718.9615562294238
714,718.9325859424431
715,718.902730191998
716,718.8721241550525
717,718.8409060457619
718,718.809216480515
719,718.777197804042
720,718.7449933797003
721,718.7127468481382
722,718.6806013598418
723,718.6486987877582
724,718.6171789260643
725,718.5861786809083
726,718.5558312592112
727,718.5262653621609
728,718.4976043903191
729,718.4699656674474
730,718.4434596908197
731,718.4181894168418
732,718.3942495914117
733,718.3717261340599
734,718.3506955836658
735,718.331224612069
736,718.3133696105971
737,718.2971763535829
738,718.2826797423147
739,718.2699036323864
740,718.2588607469692
741,718.2495526780781
742,718.241969977491
743,718.2360923383346
744,718.2318888670603
745,718.2293184435177
746,718.22833016473
747,718.2288638664243
748,718.2308507153826
749,718.2342138647472
750,718.2388691633298
751,718.2447259090279
752,718.2516876359832
753,718.2596529252825
754,718.2685162298162
755,718.2781687052046
756,718.2884990397245
757,718.299394276137
758,718.3107406171883
759,718.3224242053011
760,718.3343318667232
761,718.3463518114842
762,718.3583742824037
763,718.3702921482843
764,718.3820014378625
765,718.3934018123191
766,718.4043969758123
767,718.4148950260325
768,718.4248087497441
769,718.4340558705305
770,718.4425592566424
771,718.4502470962128
772,718.4570530460898
773,718.4629163599109
774,718.4677820008625
775,718.471600744357
776,718.4743292750223
777,718.4759302808391
778,718.4763725454796
779,718.4756310382852
780,718.4736869996351
781,718.4705280174239
782,718.4661480882287
783,718.4605476551825
784,718.4537336138545
785,718.4457192773991
786,718.4365242926116
787,718.4261744990833
788,718.4147017244017
789,718.4021435097972
790,718.3885427633602
791,718.3739473417368
792,718.358409565181
793,718.3419856741209
794,718.3247352376864
795,718.3067205260481
796,718.2880058590621
797,718.2686569435914
798,718.2487402109929
799,718.2283221646314
800,718.2074687451786
801,718.1862447193671
802,718.164713096385
803,718.1429345754159
804,718.1209670276241
805,718.0988650155864
806,718.0766793526362
807,718.0544567041021
808,718.0322392323458
809,718.0100642879925
810,717.9879641506581
811,717.9659658233082
812,717.9440908845809
813,717.9223554029164
814,717.900769915456
815,717.8793394733339
816,717.8580637529103
817,717.8369372302111
818,717.8159494147766
819,717.7950851397717
820,717.7743249062323
821,717.7536452791326
822,717.7330193315574
823,717.7124171316966
824,717.6918062661159
825,717.6711523915964
826,717.6504198068037
827,717.6295720346865
828,717.6085724071238
829,717.5873846446445
830,717.5659734253143
831,717.5443049376157
832,717.5223474122957
833,717.5000716280704
834,717.477451386178
835,717.4544639490346
836,717.4310904383838
837,717.4073161883579
838,717.3831310491864
839,717.358529638142
840,717.3335115354311
841,717.3080814239039
842,717.2822491727613
843,717.2560298668025
844,717.2294437836127
845,717.2025163208698
846,717.1752778747344
847,717.1477636686947
848,717.1200135309659
849,717.0920716181497
850,717.0639860833921
851,717.0358086883346
852,717.0075943591606
853,716.9794006881052
854,716.9512873834835
855,716.9233156738546
856,716.8955476747293
857,716.8680457283555
858,716.840871728003
859,716.8140864378723
860,716.7877488189284
861,716.7619153702917
862,716.7366394954137
863,716.7119709019094
864,716.6879550437507
865,716.6646326146396
866,716.6420391013404
867,716.6202044049987
868,716.5991525370433
869,716.5789013947372
870,716.5594626202263
871,716.5408415458821
872,716.5230372274721
873,716.5060425653325
874,716.4898445128446
875,716.4744243715868
876,716.4597581731962
877,716.4458171480939
878,716.4325682797013
879,716.4199749395799
880,716.4079975950301
881,716.3965945770003
882,716.3857228931537
883,716.3753390690604
884,716.3654000001553
885,716.3558637982762
886,716.346690618616
887,716.3378434550582
888,716.3292888936547
889,716.3209978151123
890,716.3129460372954
891,716.3051148880263
892,716.2974916977
893,716.2900702016049
894,716.2828508439663
895,716.2758409791805
896,716.2690549691968
897,716.2625141784798
898,716.2562468693095
899,716.2502880009313
900,716.2446789368655
901,716.2394670656715
902,716.2347053412841
903,716.2304517492533
904,716.226768705082
905,716.2237223911429
906,716.2213820396902
907,716.2198191707799
908,716.2191067949578
909,716.2193185912053
910,716.2205280705906
911,716.2228077350169
912,716.2262282387405
913,716.2308575590804
914,716.2367601826925
915,716.2439963147496
916,716.2526211195504
917,716.262684001782
