acceleration,velocity,displacement
0.030521167235187052,0.0,0.0
0.02934221896059551,1.496584654894564e-05,3.74146163723641e-09
0.028164964546147687,2.9342642425631438e-05,1.481858388088068e-08
0.026991089723587644,4.313165599306527e-05,3.293715848555486e-08
0.025822264120371547,5.6334994454055066e-05,5.7803821097334943e-08
0.024660133580680192,6.8955593879318e-05,8.912646818067822e-08
0.023506312904430397,8.099720550059565e-05,1.2661466802565664e-07
0.022362379087073746,9.246437849847169e-05,1.6998006402542347e-07
0.021229865099594642,0.00010336243954513879,2.1893676853632607e-07
0.020110254212720474,0.00011369746937321757,2.7320174576591516e-07
0.01900497485000313,0.00012347627663889847,3.3249518226894417e-07
0.017915395950846524,0.00013270636933911088,3.9654084376344653e-07
0.01684282282734823,0.00014139592403365956,4.6506641710663917e-07
0.015788493497146644,0.0001495537531147833,5.378038363937499e-07
0.0147535754672881,0.00015718927035589199,6.144895922614188e-07
0.013739162938931217,0.0001643124549574468,6.948650235897534e-07
0.012746274404278266,0.0001709338142932492,7.786765909024275e-07
0.011775850611575886,0.00017706434554721272,8.656761308625429e-07
0.010828752875163461,0.00018271549641889757,9.556210913540705e-07
0.009905761705530572,0.00018789912506407108,1.0482747467248127e-06
0.009007575736706836,0.00019262745942463043,1.143406392846988e-06
0.008134810939977097,0.0001969130560938014,1.240791521726596e-06
0.007288000128449946,0.00020076875886090815,1.3402119754652733e-06
0.006467592767213877,0.0002042076570848241,1.4414560794517065e-06
0.005673955106358585,0.00020724304405321723,1.5443187547362167e-06
0.004907370655003727,0.0002098883754935578,1.6486016096229106e-06
0.004168041022484064,0.00021215722841292975,1.7541130105995325e-06
0.0034560871709340413,0.00021406326046128428,1.860668132818086e-06
0.002771551143067633,0.0002156201700397847,1.9680889904433535e-06
0.0021143983341366597,0.00021684165740908575,2.0762044473055712e-06
0.0014845203601311012,0.0002177413870826527,2.1848502084285058e-06
0.0008817385411323151,0.00021833295180796855,2.293868793151161e-06
0.0003058079805584703,0.00021862983843839125,2.403109490712751e-06
-0.0002435778159314864,0.00021864539597954798,2.5124282993172356e-06
-0.0007667818717446126,0.00021839280605762896,2.6216878498265298e-06
-0.0012642183355466923,0.00021788505600580613,2.7307573153423885e-06
-0.0017363468634069008,0.00021713491470606774,2.839512308020357e-06
-0.002183666892523311,0.00021615491126708518,2.9478347645136453e-06
-0.002606711885563179,0.00021495731657256357,3.0556128214735573e-06
-0.0030060436031289035,0.00021355412770039054,3.162740682541796e-06
-0.0033822464523649673,0.00021195705518651706,3.269118478263523e-06
-0.003735921955775676,0.00021017751308448191,3.374652120331273e-06
-0.004067683378876142,0.00020822661175081897,3.479253151540098e-06
-0.004378150551054996,0.0002061151532683362,3.582838592794887e-06
-0.004667944917213909,0.00020385362940126897,3.6853307884622885e-06
-0.0049376848649966085,0.00020145222195571633,3.786657251301535e-06
-0.005187981371311372,0.00019892080539663933,3.8867505081396235e-06
-0.0054194339952618065,0.00019626895155499602,3.9855479473775325e-06
-0.0056326272184598685,0.0001935059362515656,4.082991669329173e-06
-0.005828127110252993,0.00019064074766938737,4.179028340309411e-06
-0.006006478284954988,0.00018768209632058537,4.2736090513069046e-06
-0.006168201126736874,0.00018463842646766242,4.366689182003967e-06
-0.006313789281953052,0.00018151792886548994,4.458228270837255e-06
-0.006443707440345618,0.00017832855468491527,4.548189891724857e-06
-0.006558389425651875,0.0001750780304684159,4.636541538013189e-06
-0.0066582365920369625,0.0001717738739639937,4.723254514121292e-06
-0.006743616495352232,0.0001684234106921464,4.808303835285327e-06
-0.0068148617975948645,0.00016503379111890962,4.891668135738091e-06
-0.00687226937371054,0.00016161200832608326,4.97332958559934e-06
-0.0069160996130535396,0.00015816491607939225,5.053273816700708e-06
-0.006946575930835438,0.00015469924719342,5.131489857518912e-06
-0.00696388451926695,0.0001512216320808944,5.207970077337491e-06
-0.006968174370995177,0.00014773861735832886,5.282710139697297e-06
-0.006959557598305626,0.00014425668436600367,5.35570896512838e-06
-0.006938110053640631,0.0001407822674530171,5.426968703083135e-06
-0.006903872240560332,0.00013732177187946687,5.496494712916256e-06
-0.006856850501318455,0.0001338815911939972,5.564295553684622e-06
-0.006797018482265885,0.0001304681239481011,5.630382982470146e-06
-0.006724318904179233,0.0001270877896014898,5.694771960857544e-06
-0.006638665684652016,0.000123747043454282,5.757480669121487e-06
-0.00653994645816824,0.00012045239041857695,5.8185305275897015e-06
-0.006428025515535479,0.00011721039742515101,5.877946224550633e-06
-0.00630274715355412,0.00011402770425787862,5.93575574997139e-06
-0.00616393940731058,0.00011091103261766245,5.991990434190276e-06
-0.0060114181380727105,0.00010786719323131662,6.046684990652521e-06
-0.005844991460198268,0.00010490309083174888,6.099877561668288e-06
-0.005664464493841572,0.00010202572684323892,6.151609766087035e-06
-0.005469644418005845,9.924219961527706e-05,6.201926747701664e-06
-0.005260345778778737,9.655970206608091e-05,6.250877223122003e-06
-0.00503639599683024,9.398551662217867e-05,6.2985135277940675e-06
-0.004797641021738805,9.152700736753641e-05,6.3448916587914964e-06
-0.004543951087407171,8.919160934024992e-05,6.390071312968443e-06
-0.004275226522733111,8.698681493771485e-05,6.434115919037935e-06
-0.003991403568677417,8.492015741486223e-05,6.477092662126079e-06
-0.0036924601540507334,8.299919148418019e-05,6.51907249935084e-06
-0.0033784215848728146,8.12314710494493e-05,6.560130164984247e-06
-0.0030493661014517723,7.962452412786816e-05,6.600344163778576e-06
-0.0027054302546609633,7.818582503883998e-05,6.639796751070253e-06
-0.0023468140478946865,7.692276396320107e-05,6.678573898320764e-06
-0.001973785778806567,7.584261400652575e-05,6.716765242813195e-06
-0.0015866864950560933,7.495249593806009e-05,6.754464020299342e-06
-0.0011859339583766427,7.425934082470191e-05,6.791766979490033e-06
-0.0007720259967140944,7.376985083592922e-05,6.82877427740519e-06
-0.00034554311512598716,7.34904585579692e-05,6.8655893547536654e-06
9.284976469674483e-05,7.34272852203619e-05,6.902318790698248e-06
0.0005424025535519555,7.358609829992406e-05,6.939072136578319e-06
0.001002280322050392,7.397226901882465e-05,6.975961728408006e-06
0.0014715647598643295,7.459073028930333e-05,7.013102478235039e-06
0.0019492567849114968,7.544593567549728e-05,7.050611644726239e-06
0.002434280288914474,7.654181994395377e-05,7.088608583631101e-06
0.002925486978036772,7.788176176069158e-05,7.127214479057263e-06
0.0034216622418988198,7.946854906567547e-05,7.166552056763854e-06
0.003921531962229346,8.130434761670752e-05,7.20674528093445e-06
0.004423770157394138,8.339067314661339e-05,7.24791903612528e-06
0.004927007354094194,8.572836752448547e-05,7.290198796293055e-06
0.0054298395777916545,8.831757925745693e-05,7.33371028298854e-06
0.0059308378503235525,9.115774861448573e-05,7.378579114956526e-06
0.006428558075083053,9.424759759583738e-05,7.424930451509107e-06
0.006921551185249247,9.758512491092046e-05,7.472888632135797e-06
0.007408373437314448,0.00010116760606656137,7.522576814880167e-06
0.007887596748973304,0.00010499159861313332,7.57411661605009e-06
0.008357818995594393,0.00010905295254927524,7.627627753840693e-06
0.008817674181255083,0.00011334682584348761,7.683227698438884e-06
0.009265842386282532,0.00011786770498537202,7.741031331146098e-06
0.009701059369783917,0.00012260943042438863,7.801150614998538e-06
0.010122125680450034,0.0001275652266869471,7.863694279276372e-06
0.010527915109735895,0.00013272773688449357,7.928767520169232e-06
0.010917382319440913,0.00013808906124178778,7.996471719700803e-06
0.011289569501062725,0.0001436407991969137,8.066904184810478e-06
0.011643611975953037,0.00014937409456616764,8.140157908251248e-06
0.011978742706720221,0.00015527968323683595,8.216321352701999e-06
0.012294295738629089,0.00016134794284817329,8.295478259223251e-06
0.012589708612904765,0.00016756894393605675,8.377707480919309e-06
0.01286452379844452,0.0001739325020388941,8.463082842413046e-06
0.013118389187720977,0.00018042823028543547,8.551673025494129e-06
0.013351057700466771,0.00018704559200748242,8.643541481067358e-06
0.013562386032346305,0.0001937739529406857,8.7387463673044e-06
0.013752332579180737,0.00020060263259356746,8.837340513687963e-06
0.013920954570536707,0.0002075209543809968,8.939371410431604e-06
0.0140684044639866,0.00021451829413962763,9.04488122256176e-06
0.014194925673509792,0.00022158412667400173,9.153906827765167e-06
0.014300847715157168,0.00022870807002116846,9.26647987693896e-06
0.014386580842753587,0.00023587992716064615,9.382626876234413e-06
0.014452610227365749,0.000243089724928176,9.50236928925662e-06
0.014499489725909701,0.00025032774991649485,9.625723657967787e-06
0.014527835292309364,0.0002575845811710496,9.752701740739672e-06
0.014538318099104587,0.0002648511195189031,9.88331066591216e-06
0.014531657448210576,0.0002721186134057319,1.0017553099143318e-05
0.014508613553177568,0.0002793786811560789,1.015542742278377e-05
0.014469980268984231,0.00028662332961161937,1.0296927925475695e-05
0.014416577827419624,0.0002938449691357203,1.044204500016253e-05
0.01434924561188505,0.0003010364249955465,1.0590765348695346e-05
0.014268834983206866,0.0003081909451443195,1.0743072191230313e-05
0.01417620215034705,0.00031530220442770794,1.0898945478623319e-05
0.014072201067930125,0.00032236430523227723,1.1058362106038315e-05
0.013957676343049046,0.000329371774585022,1.122129612599264e-05
0.01383345615549451,0.0003363195577096579,1.1387718959066311e-05
0.013700345235134147,0.00034320300805731506,1.1557599600508055e-05
0.013559117981936913,0.0003500178738615828,1.173090482098778e-05
0.01341051184074104,0.0003567602813172523,1.1907599359782487e-05
0.013255221047040447,0.00036342671453919764,1.20876461087466e-05
0.013093890844757351,0.0003700139925121471,1.2271006285509436e-05
0.012927112250314518,0.0003765192432859151,1.2457639594458951e-05
0.012755417407314453,0.0003829398757003223,1.264750437420551e-05
0.012579275549484873,0.00038927354893952213,1.2840557730365471e-05
0.012399089571863198,0.00039551814021985914,1.3036755652655317e-05
0.012215193205117663,0.00040167171091410437,1.3236053115438808e-05
0.012027848796753251,0.0004077324714145721,1.3438404161020978e-05
0.011837245723048808,0.0004136987450445226,1.3643761965135752e-05
0.01164349948022687,0.0004195689313453415,1.3852078884233219e-05
0.011446651524020714,0.0004253414690964034,1.4063306484343656e-05
0.011246669939432343,0.0004310147994622667,1.4277395551483322e-05
0.0110434510229148,0.0004365873297028535,1.4494296083774603e-05
0.010836821839516616,0.00044205739791846135,1.4713957265679932e-05
0.010626543775078663,0.00044742323932211016,1.4936327424990074e-05
0.010412317050410956,0.00045268295452848255,1.5161353973452721e-05
0.010193786116462792,0.000457834480320201,1.5388983332164893e-05
0.00997054581588483,0.0004628755633032879,1.5619160843070766e-05
0.009742148181133939,0.00046780373680254257,1.5851830668097225e-05
0.00950810974128698,0.0004726163012831478,1.608693567761865e-05
0.009267919220471866,0.00047731030852358753,1.6324417330070334e-05
0.009021045521167085,0.0004818825497089973,1.656421554462848e-05
0.008766945896239551,0.00048632954756334896,1.6806268568946567e-05
0.00850507422955885,0.0004906475525947986,1.7050512843986104e-05
0.008234889365326395,0.0004948325434935199,1.7296882868008185e-05
0.007955863444746848,0.0004988802316960382,1.7545311061805575e-05
0.007667490221290438,0.0005027860701125475,1.779572763725772e-05
0.007369293330314624,0.0005065452660004487,1.804806047128597e-05
0.007060834484174964,0.0005101527979540711,1.83022349872746e-05
0.006741721550087156,0.0005136034369626367,1.8558174046003776e-05
0.006411616447140169,0.0005168917714619435,1.881579784810992e-05
0.006070242779060645,0.0005200122362684937,1.9075023850042532e-05
0.005717393112264006,0.0005229591452413249,1.9335766695419988e-05
0.005352935818555394,0.0005257267274740297,1.9597938163598828e-05
0.004976821415048823,0.0005283091667824308,1.9861447137162943e-05
0.00458908833366749,0.0005307006442196099,2.0126199589913455e-05
0.004189868038048073,0.0005328953833125387,2.0392098596796493e-05
0.003779389390812314,0.0005348876976697538,2.0659044367042067e-05
0.003357982170774047,0.0005366720405601505,2.0926934301599543e-05
0.002926079648572566,0.0005382430560149871,2.1195663075743326e-05
0.0024842201437377397,0.0005395956309630647,2.146512274748784e-05
0.002033047500409942,0.0005407249478741016,2.173520289219713e-05
0.0015733104337492237,0.0005416265373576414,2.2005790763505068e-05
0.0011058607186224462,0.0005422963301457343,2.2276771480380913e-05
0.0006316502163581134,0.0005427307078794794,2.2548028239887217e-05
0.00015172675918418576,0.0005429265521233649,2.2819442554887928e-05
-0.0003327710697603363,0.0005428812910457209,2.30908945156802e-05
-0.0008206202110100227,0.0005425929432255283,2.336226307424801e-05
-0.0013105203986234052,0.0005420601580731199,2.3633426349572673e-05
-0.001801102353812879,0.0005412822523850109,2.3904261952187206e-05
-0.0022909368178567705,0.0005402592425920935,2.417464732593148e-05
-0.0027785443339862635,0.0005389918723041327,2.444446010465554e-05
-0.0032624056909740106,0.0005374816347978927,2.4713578481431043e-05
-0.0037409729424236564,0.0005357307901395432,2.49818815876654e-05
-0.004212680905304433,0.0005337423766776112,2.524924987936969e-05
-0.004675959021516886,0.0005315202166959059,2.551556552771307e-05
-0.005129243446824203,0.0005290689160788206,2.5780712810906753e-05
-0.0055709892201315754,0.0005263938579120817,2.604457850440448e-05
-0.005999682366203574,0.0005235011900154979,2.6307052266386373e-05
-0.0064138517976141,0.0005203978064745435,2.6568027015508883e-05
-0.006812080904385735,0.0005170913232990436,2.682739929795228e-05
-0.007193018744854022,0.0005135900483867336,2.7085069640873725e-05
-0.007555390768738147,0.0005099029460083356,2.7340942889472492e-05
-0.007898009007022528,0.0005060395960643954,2.7594928524990674e-05
-0.008219781655717342,0.0005020101483987105,2.784694096110645e-05
-0.008519721970451186,0.0004978252724921684,2.809689981632917e-05
-0.008796956382161297,0.0004934961029040152,2.8344730160178218e-05
-0.009050731739835558,0.000489034180873516,2.85903627311226e-05
-0.009280421579996331,0.000484451392543558,2.883373412447687e-05
-0.009485531317006808,0.0004797599043193072,2.9074786948692584e-05
-0.00966570225247643,0.0004749720959269364,2.9313469948754145e-05
-0.00982071431990658,0.0004701004917838407,2.954973809568184e-05
-0.009950487507351292,0.00046515769132702623,2.9783552641459558e-05
-0.010055081931987432,0.00046015629896719153,3.0014881139033114e-05
-0.010134696575236248,0.0004551088543403856,3.024369742736001e-05
-0.010189666720389772,0.00045002776351647913,3.0469981581824227e-05
-0.010220460158152015,0.0004449252317968437,3.0693719830652556e-05
-0.010227672238740581,0.00043981319869762053,3.0914904438276174e-05
-0.010212019861440087,0.00043470327567257536,3.1133533556868726e-05
-0.010174334509554803,0.00042960668707982665,3.1349611047556826e-05
-0.010115554455680586,0.0004245342148385178,3.156314627303641e-05
-0.010036716270216317,0.0004194961471570436,3.17741538635353e-05
-0.0099389457616868,0.00041450223164906784,3.198265345823683e-05
-0.009823448463963066,0.00040956163309265536,3.218866942442226e-05
-0.009691499770611381,0.00040468289603401176,3.239223055670393e-05
-0.009544434808746482,0.00039987391238917227,3.259336975880972e-05
-0.009383638147319002,0.0003951418941501559,3.279212371044456e-05
-0.009210533444835398,0.0003904933512521173,3.298853252179512e-05
-0.009026573154603187,0.00038593407460225763,3.318263937825872e-05
-0.008833228417567307,0.000381469124209215,3.337449017796159e-05
-0.008631979278878023,0.0003771028222851037,3.356413316458517e-05
-0.008424305359141898,0.00037283875112559874,3.375161855793785e-05
-0.00821167709259373,0.0003686797555126648,3.393699818459742e-05
-0.0079955476141019,0.0003646279493359909,3.412032511080958e-05
-0.007777345338472051,0.00036068472609784743,3.430165327966804e-05
-0.007558467235774789,0.00035685077295428573,3.448103715443107e-05
-0.0073402727750290124,0.00035312608795158476,3.465853136965754e-05
-0.007124078491855013,0.0003495100001348637,3.483419039167915e-05
-0.006911153130713322,0.00034600119222922166,3.5008068189770177e-05
-0.006702713311093835,0.00034259772561876986,3.518021791923217e-05
-0.006499919666549555,0.00033929706737435904,3.5350691617480455e-05
-0.006303873409015334,0.0003360961191054678,3.551953991410041e-05
-0.006115613282852183,0.00033299124743250096,3.56868117557349e-05
-0.0059361128929794815,0.00032997831588854306,3.5852554146565164e-05
-0.00576627841184127,0.0003270527180623379,3.601681190505288e-05
-0.005606946679127446,0.0003242094117895957,3.6179627437515864e-05
-0.005458883700708078,0.0003214429541946368,3.634104052901192e-05
-0.0053227835381484965,0.00031874753738492267,3.650108815190681e-05
-0.005199267573457922,0.00031611702460702105,3.6659804292404794e-05
-0.005088884142687221,0.0003135449866779848,3.681721979522604e-05
-0.004992108548370369,0.0003110247385052204,3.697336222652184e-05
-0.004909343468862103,0.00030854937550091224,3.7128255755023375e-05
-0.004840919776021611,0.0003061118096896913,3.7281921051321025e-05
-0.004787097760407935,0.0003037048053055839,3.743437520506984e-05
-0.004748068756428161,0.0003013210136763749,3.758563165981533e-05
-0.004723957157487166,0.00029895300719789606,3.77357001650339e-05
-0.004714822803956083,0.00029659331220753527,3.7884586744885254e-05
-0.004720663710736262,0.0002942344405788622,3.803229368308185e-05
-0.004741419083032293,0.00029186891988042,3.817881952319667e-05
-0.004776972556305643,0.00028948932197058553,3.832415908365942e-05
-0.004827155591430506,0.0002870882899336515,3.846830348663548e-05
-0.004891750957905822,0.0002846585632963174,3.861124019994297e-05
-0.004970496245528305,0.00028219300149545884,3.875295309114091e-05
-0.005063087353103163,0.000279684605595801,3.889342249291373e-05
-0.005169181905397376,0.00027712653828117586,3.9032625278882973e-05
-0.00528840254752835,0.00027451214216794444,3.917053494899526e-05
-0.005420340066420391,0.00027183495651445725,3.930712172366586e-05
-0.005564556295222295,0.0002690887324240466,3.9442352645900484e-05
-0.005720586766573912,0.0002662674466585976,3.9576191690671144e-05
-0.005887943093938308,0.0002633653141934695,3.9708599880884163e-05
-0.0060661150788558936,0.00026037679965027096,3.98395354093451e-05
-0.006254572560603759,0.00025729662774040605,3.996895376619277e-05
-0.006452767031878794,0.0002541197928422854,4.009680787133844e-05
-0.006660133035197192,0.0002508415678255164,4.022304821150539e-05
-0.006876089338553441,0.0002474575122320787,4.034762298151979e-05
-0.007100039879004443,0.00024396347992768926,4.047047822955973e-05
-0.007331374465637914,0.00024035562634152868,4.0591558006127034e-05
-0.007569469245101991,0.0002366304154138437,4.0710804516565876e-05
-0.007813686947530332,0.00023278462636568562,4.0828158277010756e-05
-0.008063376947064686,0.00022881536039203688,4.094355827370019e-05
-0.008317875189965887,0.00022472004735777924,4.1056942125637644e-05
-0.008576504062807182,0.00022049645254458596,4.116824625061323e-05
-0.008838572290983397,0.00021614268345613831,4.1277406034613414e-05
-0.009103374969784105,0.00021165719664094644,4.1384356004637684e-05
-0.009370193827429355,0.00020703880444164306,4.148903000490833e-05
-0.00963829779392729,0.0002022866815363039,4.159136137640282e-05
-0.009906943907428554,0.00019740037111096496,4.1691283139564635e-05
-0.010175378548687794,0.00019237979049693588,4.178872817996661e-05
-0.010442838967525733,0.0001872252361178825,4.1883629436620317e-05
-0.01070855505326202,0.00018193738761268556,4.197592009255296e-05
-0.010971751297923384,0.00017651731102488922,4.206553376721235e-05
