frame_number,force
0,660.3040200000444
1,660.1581082539268
2,660.0253860624214
3,659.9170608696536
4,659.8407379257814
5,659.7994416159542
6,659.7914115711412
7,659.8106364528462
8,659.8479429093463
9,659.892376090495
10,659.9326014151205
11,659.9581091303743
12,659.9600896021742
13,659.9319439845389
14,659.8694767650985
15,659.7708636287155
16,659.636493073953
17,659.4687507117513
18,659.2717714746609
19,659.0511530339335
20,658.8136172534574
21,658.5666162015646
22,658.3178891990536
23,658.0749854446932
24,657.8447790530242
25,657.6330201543772
26,657.4439796554901
27,657.2802435157594
28,657.1426854999573
29,657.0306049088715
30,656.9419808986607
31,656.873780595848
32,656.8222624997733
33,656.7832352595788
34,656.7522602877195
35,656.7248162729401
36,656.6964633608741
37,656.6630450054869
38,656.6209432809472
39,656.5673690509478
40,656.500642106615
41,656.4204094225272
42,656.3277557337288
43,656.2251736656701
44,656.1163836373869
45,656.006021752781
46,655.8992316883421
47,655.8012017548774
48,655.7166966363044
49,655.6496532082112
50,655.6029212585158
51,655.5782006222404
52,655.5761558274039
53,655.5966250957298
54,655.6388314260905
55,655.7015466027594
56,655.7832089718836
57,655.8820190126196
58,655.9960363918877
59,656.1232954247799
60,656.2619469064987
61,656.4104180032222
62,656.5675622507298
63,656.7327620240796
64,656.905949447263
65,657.0875213848029
66,657.2781432906183
67,657.4784719644724
68,657.6888607369151
69,657.9091137515652
70,658.13832989448
71,658.3748501186705
72,658.6163105316864
73,658.8597953614372
74,659.1020653555765
75,659.3398159480574
76,659.5699099529276
77,659.7895379452787
78,659.9962902926425
79,660.188173752208
80,660.3636443833408
81,660.5217235633687
82,660.6622107855059
83,660.7859326835496
84,660.8949087141791
85,660.9923019751134
86,661.0820752794486
87,661.1683734699474
88,661.2547601648719
89,661.3435041699682
90,661.4351070338316
91,661.528186717065
92,661.6197228240715
93,661.7055853190146
94,661.7812336426734
95,661.8424631292157
96,661.8860730947349
97,661.9103485745121
98,661.9152925426157
99,661.9025982603498
100,661.8753942450644
101,661.837829577373
102,661.7945959855986
103,661.7504880637499
104,661.7100692022735
105,661.6774522057872
106,661.656153361378
107,661.6489589038172
108,661.6577540220674
109,661.6832994745273
110,661.7249919288055
111,661.7806938759679
112,661.8467357845518
113,661.9181544382517
114,661.9891526159417
115,662.053692125718
116,662.1061018576212
117,662.1415988923571
118,662.1566614915064
119,662.1492324736529
120,662.1187582066053
121,662.0660842066881
122,661.9932415853227
123,661.9031756632684
124,661.7994808857127
125,661.6861937084036
126,661.5676509596348
127,661.4483712139826
128,661.3328964914314
129,661.2255533998523
130,661.1301398083336
131,661.0495845222298
132,660.9856395446601
133,660.9386490604576
134,660.9074213812539
135,660.889230099289
136,660.8799780803205
137,660.8745437689078
138,660.8672881862827
139,660.8526619498349
140,660.8258387801264
141,660.7833071673166
142,660.7233553625442
143,660.64638438869
144,660.5549952082825
145,660.4538306072677
146,660.3491973078525
147,660.2485251461882
148,660.1597304652207
149,660.090551687395
150,660.0479224744774
151,660.0374367429281
152,660.0629420863694
153,660.1262861027628
154,660.2272376197184
155,660.3636000404774
156,660.5315117241912
157,660.7258873363237
158,660.9409169492666
159,661.1705341680952
160,661.408790382313
161,661.6501060640826
162,661.8894026766759
163,662.1221550605795
164,662.3444321597403
165,662.5529897041272
166,662.7454380757156
167,662.9204555360379
168,663.077982248273
169,663.2193284615046
170,663.3471490303413
171,663.4652573755028
172,663.5782754164545
173,663.6911528949157
174,663.8086335402256
175,663.934774096245
176,664.0726187906272
177,664.2240936117364
178,664.3901208312848
179,664.5708863733189
180,664.7661479480262
181,664.9754674652017
182,665.1982866713563
183,665.4338254881368
184,665.6808451692824
185,665.9373585928894
186,666.200376181708
187,666.4657594584814
188,666.7282327370161
189,666.9815790421287
190,667.2190132613754
191,667.4336890726747
192,667.6192705380845
193,667.7704927691092
194,667.8836467008501
195,667.956942819464
196,667.9907274677199
197,667.9875343252309
198,667.9519534137956
199,667.8903052222464
200,667.8101333569289
201,667.7195683050546
202,667.6266420654799
203,667.5386344043693
204,667.4615153545695
205,667.3995326528096
206,667.3549865732707
207,667.3282302426835
208,667.3179084666727
209,667.3213919470207
210,667.3353030326817
211,667.3560079723492
212,667.3799870657646
213,667.4040655106029
214,667.4255512281277
215,667.4423444573257
216,667.4530483501419
217,667.4570516783028
218,667.4545236695237
219,667.4462780243116
220,667.4335080599086
221,667.4174376235752
222,667.3989608242885
223,667.3783593751092
224,667.3551833260944
225,667.328342809015
226,667.2963848029409
227,667.2578514988613
228,667.2115803901926
229,667.1568365437324
230,667.0932492370096
231,667.0206089504574
232,666.9386236428911
233,666.8467308492619
234,666.7440357005131
235,666.6294094394761
236,666.5017397082496
237,666.3602767241226
238,666.2049825774599
239,666.0367800205452
240,665.8576210152198
241,665.6703485918208
242,665.4783855218336
243,665.2853243314898
244,665.094504876771
245,664.9086518606132
246,664.7296161891774
247,664.5582384114134
248,664.3943428992126
249,664.2368665762763
250,664.0841011368658
251,663.9339881843578
252,663.7843897858615
253,663.633276141702
254,663.4787997594004
255,663.319243039123
256,663.1528505292198
257,662.977603856723
258,662.7910445871729
259,662.5902553340725
260,662.3720551125813
261,662.1333810609477
262,661.8717665110619
263,661.5858120356487
264,661.2755659391026
265,660.9427543948477
266,660.590821134617
267,660.2247584650165
268,659.8507333721003
269,659.475531314343
270,659.105864626603
271,658.747629898237
272,658.4052369903769
273,658.0811434387934
274,657.7756935194401
275,657.4872927792943
276,657.2128770931233
277,656.9485821922725
278,656.690490123964
279,656.435323513171
280,656.1809759711628
281,655.9268025469129
282,655.6736436645743
283,655.423614828307
284,655.1797460806307
285,654.9455774448695
286,654.7248011878985
287,654.5210001948105
288,654.3374856068729
289,654.1772059930581
290,654.0426911111093
291,653.9359973105713
292,653.8586306144502
293,653.8114393287168
294,653.7944918709798
295,653.8069780581756
296,653.8471813656499
297,653.9125611747588
298,653.9999608479629
299,654.1059245344533
300,654.2270676413631
301,654.3604176405349
302,654.5036479667604
303,654.6551708366513
304,654.8141010661866
305,654.9801236093525
306,655.1533022389904
307,655.3338756120494
308,655.5220937983137
309,655.7181328514534
310,655.9220851714003
311,656.1339801316352
312,656.3537666610114
313,656.5811999725956
314,656.8156175200126
315,657.0556487653571
316,657.2989525936019
317,657.5420914128688
318,657.7806231252396
319,658.0094295989601
320,658.223228753163
321,658.4171681541458
322,658.587382654953
323,658.7314035260368
324,658.8483209132804
325,658.9386370396556
326,659.0038183002229
327,659.0456470552958
328,659.065551374236
329,659.064115927061
330,659.04092897237
331,658.9948090041709
332,658.9243270730385
333,658.8284551195172
334,658.7071548302655
335,658.5617628985777
336,658.3950978177623
337,658.2112882785793
338,658.0153902159614
339,657.8129010648527
340,657.6092772899049
341,657.4095192663283
342,657.2178399277276
343,657.0374115523256
344,656.8701891791728
345,656.716819920427
346,656.5766510513768
347,656.4478443932372
348,656.3275927962885
349,656.2124211071546
350,656.0985444029859
351,655.9822528359213
352,655.860295060191
353,655.7302396290523
354,655.5907987413551
355,655.4420911501468
356,655.2858023773402
357,655.1251881389296
358,654.9648791779343
359,654.8104832970745
360,654.6680269011325
361,654.5433165753799
362,654.441323956896
363,654.36570159238
364,654.3185159922799
365,654.3002322668506
366,654.3099218206652
367,654.3456268614467
368,654.4048146147385
369,654.4848612509652
370,654.5834951340665
371,654.6991189882883
372,654.8309522012913
373,654.9789804110247
374,655.1437357474465
375,655.3259460728634
376,655.5261013421401
377,655.7440013778651
378,655.9783638529697
379,656.2265669330858
380,656.4845709427258
381,656.7470210218235
382,657.0075003938617
383,657.2588940628387
384,657.4938304092517
385,657.7051748039523
386,657.8865396469168
387,658.0327552086156
388,658.1402363272347
389,658.2071915699129
390,658.2336459299247
391,658.22127535709
392,658.1730788482809
393,658.0929394439029
394,657.9851391917927
395,657.8538860179717
396,657.7028936213734
397,657.5350520690279
398,657.3522390169767
399,657.1553235159203
400,656.9443841890139
401,656.7191111941999
402,656.4793157462284
403,656.2254479507354
404,655.9590220953519
405,655.6828664193893
406,655.4011468179937
407,655.119146741404
408,654.842813444353
409,654.578117470398
410,654.3303249164431
411,654.1033287680318
412,653.8991928090653
413,653.7180172341818
414,653.5581575427695
415,653.4167478156791
416,653.2904198525836
417,653.1760830176852
418,653.0716339383648
419,652.9764850593559
420,652.8918246499348
421,652.8205562711441
422,652.7669244843362
423,652.7359016542604
424,652.7324579940923
425,652.7608500112175
426,652.8240452060735
427,652.9233577115401
428,653.0583103145095
429,653.2266852733833
430,653.4247009064269
431,653.6472576054825
432,653.88822264115
433,654.140750573899
434,654.3976535287799
435,654.651832288447
436,654.8967503489713
437,655.1268966241834
438,655.3381670718924
439,655.5281078670797
440,655.6959865264422
441,655.8426816888586
442,655.9704112428262
443,656.0823519634764
444,656.1822232379993
445,656.2738928379262
446,656.3610240543497
447,656.4467607805362
448,656.5334636259599
449,656.6225395502837
450,656.7144075136325
451,656.8086069027493
452,656.9040135659093
453,656.9991090426566
454,657.0922562584412
455,657.1819516014388
456,657.2670300360139
457,657.3467961863869
458,657.4210537395289
459,657.4900196158894
460,657.5541385938803
461,657.6138442650652
462,657.6693222121216
463,657.7203166852652
464,657.7660029195193
465,657.8049408313665
466,657.8351251516667
467,657.8541375467087
468,657.8593885685809
469,657.848423435807
470,657.8192616498852
471,657.7707405133257
472,657.702828977317
473,657.6168685545764
474,657.5156864808672
475,657.4035258532572
476,657.2857601657728
477,657.1683997550637
478,657.0574387641825
479,656.9581253801404
480,656.8742622658705
481,656.8076493429368
482,656.7577601767522
483,656.7217031741769
484,656.6944757286465
485,656.6694790377604
486,656.6392173255679
487,656.5960651545608
488,656.5329758458953
489,656.4440332584791
490,656.3248018629173
491,656.1724868337436
492,655.9859638989972
493,655.7657594463747
494,655.5140381089244
495,655.2345966751021
496,654.9328059781635
497,654.615422993284
498,654.2902236901583
499,653.9654639720795
500,653.6492315553015
501,653.3487856865669
502,653.0699894159918
503,652.8169237073282
504,652.5917367483347
505,652.394733256499
506,652.2246676153096
507,652.0791892702172
508,651.9553913289294
509,651.8504086590821
510,651.7619903382088
511,651.6889510543793
512,651.6314115578415
513,651.59077488868
514,651.569435496572
515,651.5702636189739
516,651.5959460357715
517,651.6483010737849
518,651.7277081379608
519,651.8327814134476
520,651.9603727740683
521,652.1059191079934
522,652.2640623360085
523,652.4293906443786
524,652.5971160173314
525,652.763537811114
526,652.9262298955102
527,653.0839824488369
528,653.2365771249325
529,653.3844672704591
530,653.5284138078962
531,653.6691263243043
532,653.8069686450025
533,653.9417820610107
534,654.0728494213984
535,654.198986709612
536,654.3187262900644
537,654.4305482219906
538,654.5331122565763
539,654.6254462759998
540,654.7070662513469
541,654.7780310376766
542,654.838953211911
543,654.8909839398526
544,654.9357707180009
545,654.9753683677606
546,655.0120844526905
547,655.0482654012567
548,655.0860617451121
549,655.1272257501913
550,655.172984474737
551,655.2240052255705
552,655.2804412249967
553,655.3420249561098
554,655.4081755453115
555,655.4781055466179
556,655.5509371250168
557,655.6258468233577
558,655.702241476114
559,655.7799323020563
560,655.859238554421
561,655.9409418224561
562,656.0260459488762
563,656.1153668110262
564,656.2090492031239
565,656.3061563540919
566,656.4044824222453
567,656.5006878715323
568,656.5907643845078
569,656.6707385720056
570,656.7374560311612
571,656.789263029639
572,656.8264289592922
573,656.8512267377487
574,656.8676826590814
575,656.8810780124734
576,656.8973094701107
577,656.9222063421917
578,656.9608827403185
579,657.0171818163565
580,657.0932521529168
581,657.1892882539928
582,657.3034630639374
583,657.4320656491034
584,657.5698258263518
585,657.7103699510932
586,657.8467258340522
587,657.9717980781046
588,658.0787735258227
589,658.1614686034222
590,658.214661398742
591,658.2344409969982
592,658.2185617762204
593,658.1667416686342
594,658.0808271356509
595,657.9647776265449
596,657.8244771740827
597,657.6674230190437
598,657.5023473080056
599,657.3388012547346
600,657.1866963679181
601,657.0557838475198
602,656.9550712339333
603,656.8922069786979
604,656.872884495071
605,656.9003223012232
606,656.9748762916488
607,657.0938378399218
608,657.2514601750839
609,657.4392314413349
610,657.6463855803388
611,657.860628046311
612,658.0690537644523
613,658.2592228837054
614,658.4203101663276
615,658.5441753948377
616,658.6261670009253
617,658.6655000301017
618,658.6651302969921
619,658.6311457628217
620,658.5717833320571
621,658.4962373667581
622,658.4134518355298
623,658.3310825512322
624,658.2547779669957
625,658.1878566104488
626,658.1313700691232
627,658.084461944969
628,658.0448926258272
629,658.009602191502
630,657.9752148896931
631,657.938431387212
632,657.8962987574273
633,657.8463843155789
634,657.7868964231167
635,657.716787378047
636,657.6358514166254
637,657.5448127106811
638,657.4453900167105
639,657.3403189607445
640,657.2333032271787
641,657.128857271211
642,657.0320099795898
643,656.9478688265574
644,656.8810864549906
645,656.8353050162748
646,656.8126652178993
647,656.8134568112021
648,656.8359611756562
649,656.876506330213
650,656.9297350037779
651,656.9890788157496
652,657.0474166897279
653,657.0978563546524
654,657.1345259631381
655,657.1532317817912
656,657.1518538543841
657,657.1304135774491
658,657.0908262192905
659,657.0364141457359
660,656.9712913230111
661,656.8997389502574
662,656.8256745367552
663,656.7522760216473
664,656.6817743035357
665,656.6153884049324
666,656.5533598915023
667,656.4950516141063
668,656.4390957508377
669,656.3835844896574
670,656.3262915149897
671,656.264909811576
672,656.1972940484005
673,656.1216921500464
674,656.0369409335528
675,655.9426007458386
676,655.8390220738231
677,655.7273613207518
678,655.6095717961412
679,655.4883790804844
680,655.3672227080625
681,655.2501343797516
682,655.1415299444919
683,655.0459015047837
684,654.9674062750969
685,654.9093782394928
686,654.8738363291467
687,654.8610961949527
688,654.8695851905691
689,654.8959205318364
690,654.9352597736666
691,654.9818774496614
692,655.0298675490509
693,655.0738374847713
694,655.1094623329234
695,655.1338071164959
696,655.1453835735321
697,655.143967505788
698,655.130251129077
699,655.1054320139377
700,655.0708354787135
701,655.0276367788343
702,654.9767214563158
703,654.9187089676552
704,654.8541435710717
705,654.783813729058
706,654.7091185257651
707,654.6323792520662
708,654.5569967488012
709,654.4873763739076
710,654.428584645334
711,654.3857623352925
712,654.363384145848
713,654.3645049191209
714,654.3901502648982
715,654.4389876857783
716,654.5073538087624
717,654.5896292184393
718,654.6788758613092
719,654.7676130864428
720,654.8486117138807
721,654.9156106249796
722,654.963884378685
723,654.9906047243879
724,654.9949516264821
725,654.9779577805703
726,654.942123002319
727,654.8908937504316
728,654.8281345428524
729,654.7577045398143
730,654.6832058934111
731,654.6079120815069
732,654.5348300704477
733,654.4668135066889
734,654.4066369148846
735,654.3569656388569
736,654.3202042461572
737,654.2982575020345
738,654.2922693624383
739,654.3024084783325
740,654.3277538051967
741,654.3663093898963
742,654.4151437708565
743,654.4706174818779
744,654.5286514457556
745,654.5850006056396
746,654.6355098091882
747,654.6763298435567
748,654.704072502926
749,654.7159025922706
750,654.7095980756678
751,654.6836265344243
752,654.6372620584593
753,654.5707194152471
754,654.4852540814886
755,654.3831825737132
756,654.2677960616311
757,654.1431524163244
758,654.0137442200174
759,653.8840659492207
760,653.7581369788047
761,653.6390567213938
762,653.5286598031687
763,653.4273121438036
764,653.3338677860754
765,653.2458027143463
766,653.1595400915037
767,653.0709616497267
768,652.9760632310893
769,652.8716729063294
770,652.7561219592641
771,652.6297542834706
772,652.4951818128237
773,652.3572346254581
774,652.2226030657806
775,652.0992157658073
776,651.9954351760156
777,651.9191778754742
778,651.8770758138286
779,651.8737826163733
780,651.9115007676046
781,651.9897712709775
782,652.1055332836237
783,652.2534273806162
784,652.4262852049238
785,652.6157329026067
786,652.8128477837844
787,653.0088326582436
788,653.1956735326783
789,653.3667156334114
790,653.5170745082673
791,653.6438333564028
792,653.7460426747305
793,653.8245808530727
794,653.8819368425524
795,653.9219596283647
796,653.9496005755688
797,653.9706525178012
798,653.9914688439554
799,654.0186452318648
800,654.0586697661648
801,654.1175686249409
802,654.2005717283655
803,654.3118073274276
804,654.4540314673746
805,654.6284076278413
806,654.8343564705907
807,655.0694932661805
808,655.3296690568413
809,655.6091263110117
810,655.90076449054
811,656.1964979116761
812,656.4876931466986
813,656.7656870430488
814,657.0223826151588
815,657.2508886919942
816,657.4461298103117
817,657.6053309059799
818,657.7282870442117
819,657.8173592854922
820,657.8771849001719
821,657.9141398793189
822,657.9356328065564
823,657.9493357222168
824,657.9624623082997
825,657.9811811811775
826,658.0102113265528
827,658.0526068008162
828,658.1097104030541
829,658.1812412034091
830,658.265475219551
831,658.3594798675449
832,658.4593713467732
833,658.5605808991053
834,658.6581336378007
835,658.7469472516167
836,658.8221467070887
837,658.8793855894584
838,658.915171735044
839,658.9271910197838
840,658.9145956792427
841,658.8781950355906
842,658.820484164535
843,658.7454742694031
844,658.6583335864628
845,658.5648875978713
846,658.4710465145071
847,658.3822304213078
848,658.3028601270696
849,658.2359749534068
850,658.1830214270844
851,658.1438328772879
852,658.1167999789104
853,658.0992181665624
854,658.0877784699194
855,658.079134909413
856,658.0704467231976
857,658.0597861782978
858,658.0463347664413
859,658.0303412219869
860,658.0128577561811
861,657.9953045852739
862,657.9789472353289
863,657.9643987948065
864,657.9512597076221
865,657.9379752644376
866,657.9219415259628
867,657.8998417824466
868,657.8681564042253
869,657.8237643819274
870,657.7645479009509
871,657.6899170396207
872,657.6011829478299
873,657.5017249334012
874,657.3969236879616
875,657.293866389377
876,657.2008589535618
877,657.1267978375222
878,657.0804595931429
879,657.069767496221
880,657.1010965013447
881,657.1786828990175
882,657.3042081224892
883,657.4766111846894
884,657.6921430179395
885,657.9446311121758
886,658.2259075406818
887,658.5263679105876
888,658.83564389494
889,659.143368434999
890,659.4399892299803
891,659.7175495061052
892,659.9703272384388
893,660.1952359425504
894,660.3919447150994
895,660.56273475503
896,660.7121390904605
897,660.8464171604115
898,660.9729202984497
899,661.099411561754
900,661.2334013665181
901,661.3815485225539
902,661.5491677588122
903,661.7398845913399
904,661.9554728051849
905,662.1958851974056
906,662.4594512123499
907,662.743185732979
908,663.0431449438058
909,663.3547757175567
910,663.6732207549007
911,663.9935521302633
912,664.3109141295013
913,664.6205696660485
914,664.9178648036277
915,665.1981524036285
916,665.4567397767715
