frame_number,force
0,624.6526500000427
1,624.7474264293674
2,624.8351377214316
3,624.9092381289261
4,624.9641930906042
5,624.9959094475255
6,625.0020618813539
7,624.9822733706433
8,624.938126578782
9,624.8730175267885
10,624.7918891279422
11,624.7008825447847
12,624.6069302601193
13,624.5173100692111
14,624.4391883835189
15,624.3791862464383
16,624.3429897603248
17,624.335011069598
18,624.358105162045
19,624.4133582639628
20,624.4999698652599
21,624.6152459235524
22,624.7547085899325
23,624.9123154434214
24,625.0807764803028
25,625.2519591990587
26,625.4173738108399
27,625.5687269898057
28,625.698522002015
29,625.800667222267
30,625.871036731896
31,625.9079056879739
32,625.9121675552708
33,625.88725445555
34,625.8387418281553
35,625.7737028171753
36,625.6999374407454
37,625.6252042773092
38,625.5565416801774
39,625.4997196776166
40,625.4588349309811
41,625.4360494902688
42,625.4314750541193
43,625.4432133652789
44,625.4675713179442
45,625.4994631917699
46,625.5329824785806
47,625.5620788239384
48,625.5812352520894
49,625.5860303787048
50,625.5734991019025
51,625.5422638855684
52,625.4924673004138
53,625.4255615924257
54,625.3440014249308
55,625.2508759415235
56,625.149527748479
57,625.0432191566141
58,624.9348933535409
59,624.8270453756379
60,624.7216888385367
61,624.6203924798224
62,624.5243625435244
63,624.434552563432
64,624.3517814298677
65,624.2768326462211
66,624.2105047156834
67,624.1535981006958
68,624.1068508477199
69,624.0708489928651
70,624.045931331563
71,624.0320985021916
72,624.0289366598954
73,624.035566538372
74,624.05061820324
75,624.0722187092432
76,624.0979813131728
77,624.1250056798493
78,624.1499250511322
79,624.1690475213608
80,624.1786237505611
81,624.1752397829313
82,624.1562966572893
83,624.1205094121364
84,624.0683393276661
85,624.0022655176705
86,623.926812945192
87,623.8482894393743
88,623.7742351066637
89,623.7126392469231
90,623.6710254255922
91,623.6555364738699
92,623.6701549249503
93,623.7161686076684
94,623.7919519566407
95,623.8930972484329
96,624.0128932772327
97,624.1431008924602
98,624.2749190754998
99,624.3999882509895
100,624.5112572951384
101,624.603565538462
102,624.6738673435628
103,624.7211284975107
104,624.7460012607104
105,624.7504033470727
106,624.7370884277967
107,624.7092367973328
108,624.670058001579
109,624.6224043633808
110,624.5684305838736
111,624.5093678240761
112,624.445488104781
113,624.3763061526007
114,624.3010014535511
115,624.2189651348515
116,624.1303250123908
117,624.0363059972933
118,623.9393350760799
119,623.8428730576218
120,623.7510239314279
121,623.6680170627567
122,623.5976665253356
123,623.5428909033523
124,623.5053417594517
125,623.4851554289465
126,623.4808254907405
127,623.4892014848813
128,623.5056427487629
129,623.5243664569617
130,623.5390052748598
131,623.5433349303376
132,623.532066986994
133,623.5015574611402
134,623.4502813091834
135,623.378968836845
136,623.2903776808615
137,623.1887615860795
138,623.0791681452171
139,622.9667257909668
140,622.856057153285
141,622.750897612305
142,622.6539327944357
143,622.5668207366733
144,622.4903426982628
145,622.4246261972596
146,622.3693952724524
147,622.3242170123125
148,622.2887209876669
149,622.2627662495781
150,622.2465255840555
151,622.2404597728283
152,622.2451751914139
153,622.2611952287755
154,622.2887092958422
155,622.3273659770773
156,622.376146197479
157,622.4333142963785
158,622.4964279805444
159,622.5623997274665
160,622.6276279858592
161,622.6882312041668
162,622.7404024453585
163,622.7808600384424
164,622.8073211787512
165,622.8188914654878
166,622.8162579659593
167,622.8016081273018
168,622.7782726690559
169,622.7501798132222
170,622.7212636730102
171,622.6949629687483
172,622.6738897104716
173,622.6596764012428
174,622.6529556883
175,622.6534062699948
176,622.659818325612
177,622.670177374243
178,622.681805662023
179,622.6916031167765
180,622.6963905554334
181,622.6933071771301
182,622.6801914308445
183,622.6558861992901
184,622.6204306482564
185,622.5751129270781
186,622.5223669910658
187,622.465515551701
188,622.4083887160574
189,622.3548768221779
190,622.3084977879323
191,622.272058392423
192,622.2474532801233
193,622.2355905566723
194,622.2363963798537
195,622.2488561729468
196,622.2710827504111
197,622.3004287931099
198,622.3336670339679
199,622.3672537924205
200,622.3976767523645
201,622.4218632367927
202,622.4375950970838
203,622.443858408226
204,622.4410636002484
205,622.431098075488
206,622.4172021427048
207,622.4036814463337
208,622.3954858147443
209,622.3976975042414
210,622.4149825554524
211,622.4510679465543
212,622.5083083562072
213,622.5873914284184
214,622.6872037262918
215,622.8048542337309
216,622.9358346524797
217,623.0742891583176
218,623.2133752637893
219,623.3457119856436
220,623.4639114169162
221,623.5611730701545
222,623.6319008763559
223,623.6722842734504
224,623.6807656792298
225,623.6583118859065
226,623.608435777774
227,623.5369652443151
228,623.45158988826
229,623.3612157749036
230,623.2751493476248
231,623.2021511633577
232,623.14945592035
233,623.1219132594352
234,623.1214176979245
235,623.1467503181024
236,623.193873057745
237,623.2566301009296
238,623.3277360155179
239,623.3998779862933
240,623.4667461703883
241,623.5238373125964
242,623.5689350559223
243,623.6022310468863
244,623.626099139448
245,623.6445718429039
246,623.6626043431256
247,623.6852473981968
248,623.7168695057973
249,623.7605556496053
250,623.8177642561225
251,623.8882612438495
252,623.9702973708764
253,624.0609695321247
254,624.1566981366943
255,624.2537467892
256,624.34871322472
257,624.4389377331141
258,624.5227909757684
259,624.5998056445807
260,624.670624854289
261,624.7367745817759
262,624.8003134130666
263,624.8634382309632
264,624.9281173852106
265,624.9957978601619
266,625.0672088645537
267,625.1422674586106
268,625.220081214448
269,625.2990395574216
270,625.3769860897174
271,625.4514589041349
272,625.5199740647992
273,625.5803166713288
274,625.6307916981772
275,625.6703725403512
276,625.6986911838752
277,625.7158598992046
278,625.7221821369355
279,625.7178595630386
280,625.7028092123737
281,625.6766690195025
282,625.6390024524528
283,625.5896390874974
284,625.5290429056178
285,625.4586002929769
286,625.3807526899811
287,625.2989453921427
288,625.2174103355262
289,625.1408313357194
290,625.0739437235492
291,625.0211048432519
292,624.9858619804703
293,624.9705576427139
294,624.9760403383482
295,625.0015607235116
296,625.0449022121269
297,625.1027305235228
298,625.1710846145877
299,625.2459004220083
300,625.3234612487834
301,625.4006943939829
302,625.4752761809236
303,625.5455608470728
304,625.6103949489609
305,625.6688958429695
306,625.7202590457265
307,625.7636328854259
308,625.7980710874882
309,625.822547054984
310,625.8359971686415
311,625.8373658218611
312,625.8256474088317
313,625.7999423912047
314,625.7595535579186
315,625.7041429923561
316,625.6339523753203
317,625.5500629727036
318,625.4546416630168
319,625.3510932478481
320,625.2440322786335
321,625.1390117782388
322,625.0419964532286
323,624.9586309407811
324,624.893418262218
325,624.8489749727082
326,624.8255456263303
327,624.8209198944012
328,624.8307993219103
329,624.8495399920005
330,624.8711033280816
331,624.8900103017637
332,624.9021125929357
333,624.9050507056374
334,624.8983457584968
335,624.8831524184648
336,624.8617637113205
337,624.8369821797485
338,624.8114601264471
339,624.7870958110293
340,624.7645695306123
341,624.7430970630905
342,624.7204494956097
343,624.6932434804619
344,624.6574597712715
345,624.6091070720175
346,624.544918968314
347,624.4629671788412
348,624.3630975611329
349,624.2471312048883
350,624.118807740089
351,623.983480732259
352,623.8476083391652
353,623.718112066548
354,623.6016911079081
355,623.5041733108919
356,623.4299664496207
357,623.3816585148907
358,623.3598019383558
359,623.3628969517023
360,623.3875674436949
361,623.428909678446
362,623.4809913005897
363,623.5374709804604
364,623.5922861142542
365,623.640325439162
366,623.6779820947737
367,623.7034811211602
368,623.7169041996896
369,623.7199004080175
370,623.7151559095493
371,623.7057557737168
372,623.6945783489086
373,623.6838257333153
374,623.6747448403754
375,623.6675535591248
376,623.6615551994325
377,623.6553973582957
378,623.6474130817531
379,623.6359771336249
380,623.6198132197964
381,623.5981951306848
382,623.5710043869307
383,623.53864485203
384,623.5018545380395
385,623.4614736410616
386,623.4182239250657
387,623.3725420384934
388,623.3244967761411
389,623.2738071646182
390,623.219962314034
391,623.1624249943525
392,623.1008831264428
393,623.0355036676605
394,622.9671423229514
395,622.8974663299614
396,622.8289606232424
397,622.7648144905943
398,622.7087099710767
399,622.6645315252483
400,622.6359966730864
401,622.6262045372652
402,622.6371325429085
403,622.6691643912643
404,622.7207734760286
405,622.7884881791344
406,622.8672122458432
407,622.9508720650242
408,623.0332570858953
409,623.1088674536526
410,623.1736055736056
411,623.2252135739008
412,623.2634227536485
413,623.2898287747549
414,623.3075397994174
415,623.3206611943252
416,623.3336794987301
417,623.3508043191543
418,623.3753358920333
419,623.40914687794
420,623.452379058554
421,623.503435707392
422,623.559292437284
423,623.616072095772
424,623.6697658936383
425,623.7169606785077
426,623.755452856393
427,623.7846668543755
428,623.8058236777526
429,623.8218244359919
430,623.8368438894133
431,623.8556752350637
432,623.8829156941209
433,623.9221212006913
434,623.9750818134058
435,624.0413642991391
436,624.1182228002568
437,624.2009017785965
438,624.2832690657491
439,624.3586398908421
440,624.420611716614
441,624.4637525186163
442,624.4840643940737
443,624.4792325775263
444,624.4487209446415
445,624.3937756682312
446,624.3173673937146
447,624.2240696074384
448,624.1198550687108
449,624.0117942470156
450,623.907655848369
451,623.8154308675072
452,623.7428101200804
453,623.6966329593289
454,623.6823107013747
455,623.7032408267322
456,623.7602766260793
457,623.8513767199446
458,623.9715785188826
459,624.1133811193789
460,624.2675057010059
461,624.4238909957154
462,624.5727299327891
463,624.7053669451891
464,624.8149329149128
465,624.8966722911389
466,624.9479912239656
467,624.9683068543162
468,624.9587945993478
469,624.9221125182162
470,624.8621448671711
471,624.7837710530974
472,624.69263960194
473,624.5949082420004
474,624.4969053757948
475,624.4046889426063
476,624.3235340425164
477,624.257447633626
478,624.2088351374076
479,624.1784021559888
480,624.1652985500847
481,624.1674555890713
482,624.1820446713184
483,624.2059809010435
484,624.2363968110332
485,624.2710225407559
486,624.3084248535715
487,624.348074684768
488,624.390238224459
489,624.4357211130579
490,624.4855210779309
491,624.5404441245914
492,624.6007241220257
493,624.665684802831
494,624.7335051926187
495,624.8011653677969
496,624.8646262744656
497,624.9192352861622
498,624.9602801285421
499,624.9835764718849
500,624.9859867053386
501,624.965808386406
502,624.9230016467056
503,624.8592341155531
504,624.7777318954938
505,624.6829511229265
506,624.5801172774621
507,624.4747050090577
508,624.3719426910096
509,624.2764175408889
510,624.1918278600589
511,624.1208858784651
512,624.0653312427465
513,624.0259906175281
514,624.0028295247907
515,623.994982214572
516,624.0007840545088
517,624.0178427257363
518,624.0431702070739
519,624.0733763162629
520,624.10491027631
521,624.1343269959433
522,624.1585447736004
523,624.1750602878253
524,624.1821048396718
525,624.1787496563287
526,624.1649737257247
527,624.1416909411674
528,624.1107119553853
529,624.0746106920291
530,624.036484524394
531,623.9996284623013
532,623.967164488124
533,623.9416717571307
534,623.9248657459756
535,623.9173806815942
536,623.9187069420758
537,623.9273095700217
538,623.9409081418094
539,623.9568527884824
540,623.9725100541094
541,623.9855834120289
542,623.9943240048907
543,623.9976159551812
544,623.9949365339719
545,623.9862074926299
546,623.9715880193548
547,623.9512987027208
548,623.9255689170785
549,623.8947463716211
550,623.8595215840842
551,623.8211518401412
552,623.7815589678582
553,623.7432265511427
554,623.708901507786
555,623.6811696597404
556,623.6620058357629
557,623.6524062487965
558,623.6522047949384
559,623.6601432343491
560,623.6741960653685
561,623.6920659147667
562,623.7117082229519
563,623.7317432083489
564,623.7516629716093
565,623.7718124904469
566,623.7931830954481
567,623.8170878978796
568,623.8447936817645
569,623.877180170694
570,623.9144926997478
571,623.9562358310893
572,624.0012175004637
573,624.0477135230681
574,624.0936997606528
575,624.1370973889778
576,624.1759922665357
577,624.2088146904174
578,624.2344846183678
579,624.2525260739557
580,624.2631345580454
581,624.2671610006319
582,624.2659805263557
583,624.2612540531782
584,624.2546426941328
585,624.2475594519972
586,624.2410201894985
587,624.2356063262044
588,624.2315166385823
589,624.2286866074273
590,624.2269695924793
591,624.2263655299869
592,624.2272433606515
593,624.2304714483496
594,624.237383127129
595,624.2495572714395
596,624.2684555620541
597,624.2950057624045
598,624.3292407996579
599,624.3700900992114
600,624.415381922049
601,624.4620716476488
602,624.506667518209
603,624.545781642283
604,624.5766995643281
605,624.5978501370861
606,624.6090712119882
607,624.6116035132716
608,624.6078070655564
609,624.6006686536416
610,624.5932171830485
611,624.5879627101546
612,624.5864432393782
613,624.5889326269381
614,624.5943433000725
615,624.6003430624909
616,624.6036874895879
617,624.6007414120049
618,624.5881275157002
619,624.563411825343
620,624.5257222036561
621,624.4761873384256
622,624.4180796777939
623,624.35657281109
624,624.2981044509986
625,624.2494511551422
626,624.2167129851249
627,624.2044254542848
628,624.2149617556912
629,624.2483004629094
630,624.302152374259
631,624.3723839058422
632,624.4536431431638
633,624.5400783025167
634,624.6260357349393
635,624.7066444387021
636,624.7782315024851
637,624.838548475137
638,624.8868139065381
639,624.9235960216027
640,624.950567737969
641,624.9701596299302
642,624.985131518519
643,624.9981031708116
644,625.0111215277824
645,625.0253581263354
646,625.0410023468883
647,625.0573607716975
648,625.0731241518404
649,625.0867379996565
650,625.0968045381461
651,625.1024426135464
652,625.103541715349
653,625.1008748873154
654,625.0960744168506
655,625.0915011014373
656,625.0900393459756
657,625.0948311883596
658,625.1089402061546
659,625.1349361427718
660,625.1744287910217
661,625.2276366092212
662,625.2931056398459
663,625.3676712390113
664,625.446695276305
665,625.5245428210775
666,625.5952034138769
667,625.652933944678
668,625.6928188809205
669,625.7111961289386
670,625.7059480827
671,625.6766771582222
672,625.6247672136824
673,625.5533018430672
674,625.4668067955537
675,625.3708213308769
676,625.2713539954946
677,625.1743000180751
678,625.084879856506
679,625.0071330052926
680,624.9435035177748
681,624.8945809056604
682,624.8590758370518
683,624.8340844431815
684,624.8156274913903
685,624.7993666248434
686,624.781338630682
687,624.7585423107981
688,624.7292641643094
689,624.693112030826
690,624.6508020647397
691,624.6037863042591
692,624.553811293875
693,624.5024793002086
694,624.4508646666981
695,624.3992313458057
696,624.3469030930352
697,624.292341101474
698,624.2334602385339
699,624.168152634074
700,624.0949106339526
701,624.0133928647344
702,623.9247809237221
703,623.83182640118
704,623.7385712159049
705,623.6498130906708
706,623.5704507974675
707,623.5048569099919
708,623.4563927439024
709,623.4271287812152
710,623.4177868957465
711,623.4278794573045
712,623.455981127912
713,623.5000391450669
714,623.5576215838585
715,623.6260319272114
716,623.7022802215383
717,623.7829724729952
718,623.8642233242456
719,623.9416879379638
720,624.0107570273752
721,624.066899293528
722,624.1060986273823
723,624.125322685288
724,624.1229583082218
725,624.0991495733066
726,624.0559835878519
727,623.9974857941927
728,623.9293957091446
729,623.8586991735136
730,623.7929204386633
731,623.7392368273747
732,623.703544559722
733,623.689640854016
734,623.6986796273452
735,623.7290121892332
736,623.7764503627534
737,623.8348991207087
738,623.8972235118175
739,623.9561751806368
740,624.0052273021579
741,624.0392346563664
742,624.0549000790623
743,624.0510535626187
744,624.028740779421
745,623.9911074824322
746,623.9430813615228
747,623.8908892497219
748,623.8414758055568
749,623.8018848341243
750,623.7786373612067
751,623.7771300920464
752,623.801099025112
753,623.8522170424629
754,623.9298898204382
755,624.0312831749904
756,624.151579451091
757,624.2844351428784
758,624.4225926531813
759,624.5585760919206
760,624.6853792605872
761,624.797054670172
762,624.8891443245946
763,624.9589331629045
764,625.005526237993
765,625.0297524345862
766,625.033903453096
767,625.0213377084349
768,624.9960049383152
769,624.9619632801233
770,624.9229576567803
771,624.8821089741491
772,624.8417377200847
773,624.8033187552585
774,624.76753847146
775,624.7344123034081
776,624.7034319166332
777,624.6737364201331
778,624.6443128379549
779,624.6142160555488
780,624.5827753738185
781,624.5497499934359
782,624.515414018179
783,624.4805713115409
784,624.4465034840961
785,624.4148493443458
786,624.3874202969333
787,624.3659759660693
788,624.3520039254184
789,624.3465498722986
790,624.350122356462
791,624.3626620790715
792,624.383546180707
793,624.4116060194456
794,624.4451599838308
795,624.4820793999935
796,624.5199046673267
797,624.5560142991704
798,624.587834991915
799,624.6130743709882
800,624.629953073085
801,624.637402453597
802,624.6351844944369
803,624.6238913368351
804,624.6048009645151
805,624.5796068727225
806,624.5500874899233
807,624.5178011385418
808,624.4838671846255
809,624.4488455391886
810,624.4126924281638
811,624.3747690252334
812,624.3339002205327
813,624.2884991109356
814,624.2367729273695
815,624.1770082540945
816,624.1079087223845
817,624.0289399427008
818,623.9406283117622
819,623.8447576937331
820,623.7444138518662
821,623.6438543691535
822,623.5482299241636
823,623.4632217826554
824,623.3946580216
825,623.3481248994858
826,623.3285384764839
827,623.3396388619842
828,623.38343055149
829,623.4596727792465
830,623.5655645108662
831,623.6957484952892
832,623.842696884921
833,623.9974635122529
834,624.1507065810293
835,624.2938102564465
836,624.419891310868
837,624.5244950518883
838,624.6058607429693
839,624.6647418245651
840,624.7038686230221
841,624.7272103788124
842,624.73920487029
843,624.7440833160813
844,624.7453622580537
845,624.745532829663
846,624.7459546130776
847,624.7469478488404
848,624.7480626027282
849,624.7484756231647
850,624.7474316962566
851,624.7446290970877
852,624.7404599878917
853,624.7360500753323
854,624.7330888927984
855,624.7334939195852
856,624.7389943088604
857,624.750742748996
858,624.7690655179074
859,624.7934373774959
860,624.8227106520608
861,624.8555432439038
862,624.8908944575276
863,624.9284337106878
864,624.9687487583465
865,625.0133181994331
866,625.0642814955474
867,625.1240714414308
868,625.1949766161487
869,625.2786972605376
870,625.375955601762
871,625.4862137610011
872,625.6075346963667
873,625.7365984647622
874,625.8688644747089
875,625.9988570370315
876,626.1205499846934
877,626.2278312397527
878,626.3150258340564
879,626.3774375576352
880,626.4118462932478
881,626.416889529988
882,626.3932697026808
883,626.343758252662
884,626.2730026841542
885,626.1871725754502
886,626.0934931242782
887,625.9997076169778
888,625.9134950247744
889,625.8418620024746
890,625.790536735178
891,625.7634150175866
892,625.7621388810809
893,625.7858994622461
894,625.8315208487578
895,625.8938079778455
896,625.9660755476539
897,626.0407565442508
898,626.1100143814812
899,626.1663166322944
900,626.2029467738661
901,626.2144381799967
902,626.1969253675503
903,626.1484185543935
904,626.0690022916036
905,625.9609296860408
906,625.8285471777879
907,625.6779746940584
908,625.5165069344187
909,625.3517834657814
910,625.1908567576552
911,625.0393291863905
912,624.9007223707961
913,624.7761970612693
914,624.6646728266079
915,624.5633150107835
916,624.4682773947306
917,624.375533859064
918,624.2816222370574
