frame_number,force
0,540.3181800036052
1,540.3369325403595
2,540.3556205403501
3,540.3741800121344
4,540.3925480423508
5,540.410663304172
6,540.4284665311741
7,540.4459009483694
8,540.4629126546907
9,540.4794509537833
10,540.4954686317232
11,540.5109221806488
12,540.5257719664014
13,540.539982337031
14,540.5535216683722
15,540.5663623432315
16,540.578480661977
17,540.5898566842336
18,540.6004740034175
19,540.6103194573366
20,540.619382778787
21,540.6276561904481
22,540.6351339490415
23,540.6418118447139
24,540.647686662577
25,540.6527556142834
26,540.6570157487015
27,540.6604633522936
28,540.6630933514971
29,540.6648987308498
30,540.6658699811338
31,540.6659945909608
32,540.6652565932089
33,540.6636361753333
34,540.6611093605727
35,540.6576477656777
36,540.6532184397678
37,540.647783788067
38,540.641301583447
39,540.6337250675837
40,540.6250031414799
41,540.6150806419499
42,540.6038986971973
43,540.591395152075
44,540.5775050526528
45,540.5621611800068
46,540.5452946238331
47,540.5268353868416
48,540.5067130107891
49,540.4848572150056
50,540.461198539087
51,540.4356689831684
52,540.4082026410624
53,540.3787363223626
54,540.3472101590002
55,540.3135681906622
56,540.2777589231973
57,540.2397358548156
58,540.1994579656712
59,540.1568901668174
60,540.1120037048729
61,540.064776519471
62,540.0151935515847
63,539.9632470017875
64,539.9089365384735
65,539.8522694572499
66,539.7932607940452
67,539.731933395466
68,539.6683179503033
69,539.6024529860584
70,539.5343848342958
71,539.4641675684778
72,539.3918629170557
73,539.3175401525731
74,539.2412759550665
75,539.163154246497
76,539.0832659929714
77,539.001708972568
78,538.9185875077958
79,538.83401216265
80,538.7480994047231
81,538.6609712328627
82,538.5727547708185
83,538.4835818276853
84,538.3935884266558
85,538.3029143038935
86,538.2117023786645
87,538.1200981946705
88,538.0282493317743
89,537.9363047874891
90,537.8444143285063
91,537.7527278139114
92,537.6613944935101
93,537.5705622867155
94,537.4803770494073
95,537.3909818377363
96,537.3025161788026
97,537.2151153586293
98,537.1289097381949
99,537.0440241085339
100,536.9605770956432
101,536.8786806247538
102,536.7984394515152
103,536.7199507652717
104,536.6433038672234
105,536.5685799239492
106,536.4958517947597
107,536.4251839300641
108,536.3566323374911
109,536.2902446124657
110,536.2260600300244
111,536.1641096948716
112,536.104416746985
113,536.0469966201965
114,535.9918573509375
115,535.9389999336798
116,535.8884187186151
117,535.8401018460381
118,535.7940317110341
119,535.7501854514833
120,535.7085354521338
121,535.6690498577499
122,535.6316930891624
123,535.5964263569639
124,535.5632081680981
125,535.5319948207938
126,535.5027408836946
127,535.4753996558884
128,535.4499236057094
129,535.4262647871524
130,535.4043752329845
131,535.3842073233305
132,535.3657141282729
133,535.3488497228736
134,535.3335694723038
135,535.3198302831809
136,535.3075908154992
137,535.2968116486805
138,535.287455395645
139,535.2794867602126
140,535.2728725352777
141,535.267581541706
142,535.2635845102789
143,535.2608539105642
144,535.2593637309556
145,535.2590892137188
146,535.2600065488647
147,535.2620925318815
148,535.2653241927322
149,535.269678406342
150,535.2751314971223
151,535.2816588509534
152,535.2892345471256
153,535.2978310206893
154,535.3074187636461
155,535.3179660720198
156,535.3294388446678
157,535.3418004379009
158,535.3550115774126
159,535.3690303264183
160,535.3838121070829
161,535.3993097713449
162,535.4154737167536
163,535.4322520424906
164,535.4495907398655
165,535.4674339100217
166,535.4857239998055
167,535.5044020456975
168,535.523407915981
169,535.5426805427965
170,535.5621581378906
171,535.5817783882148
172,535.6014786296262
173,535.6211959985155
174,535.6408675620982
175,535.660430428363
176,535.6798218365037
177,535.6989792283881
178,535.7178403015865
179,535.736343044789
180,535.7544257569988
181,535.7720270524849
182,535.7890858542308
183,535.8055413799497
184,535.8213331266955
185,535.8364008618578
186,535.8506846287271
187,535.8641247736343
188,535.8766619997758
189,535.8882374512588
190,535.8987928296764
191,535.908270544189
192,535.9166138945047
193,535.9237672847049
194,535.9296764649962
195,535.9342887982057
196,535.9375535477059
197,535.9394221831477
198,535.9398487001467
199,535.9387899503121
200,535.9362059785698
201,535.9320603650368
202,535.9263205683333
203,535.91895826636
204,535.9099496898899
205,535.8992759442666
206,535.8869233147093
207,535.872883550476
208,535.8571541224408
209,535.8397384482251
210,535.8206460794494
211,535.7998928467073
212,535.7775009590649
213,535.7534990563266
214,535.7279222143665
215,535.7008119061609
216,535.6722159227486
217,535.6421882584287
218,535.6107889632627
219,535.5780839642466
220,535.5441448552857
221,535.5090486556627
222,535.4728775367041
223,535.43571851623
224,535.3976631198075
225,535.3588070070562
226,535.3192495608884
227,535.2790934381214
228,535.2384440812566
229,535.1974091926726
230,535.1560981734582
231,535.1146215297504
232,535.0730902503759
233,535.0316151610994
234,534.9903062624169
235,534.9492720589197
236,534.908618888513
237,534.8684502595312
238,534.8288662035525
239,534.7899626518526
240,534.7518308440018
241,534.7145567777284
242,534.6782207090451
243,534.6428967102331
244,534.6086522909977
245,534.5755480857529
246,534.5436376077982
247,534.5129670689211
248,534.4835752608142
249,534.4554934933689
250,534.4287455848543
251,534.4033478997894
252,534.3793094310118
253,534.3566319225143
254,534.3353100292495
255,534.3153315098036
256,534.2966774481002
257,534.2793225012814
258,534.2632351722873
259,534.2483781067918
260,534.2347084145954
261,534.2221780152682
262,534.2107340070198
263,534.2003190568942
264,534.190871809945
265,534.1823273151517
266,534.1746174662253
267,534.1676714559325
268,534.161416243328
269,534.1557770344778
270,534.1506777784432
271,534.1460416805547
272,534.1417917337882
273,534.1378512667039
274,534.1341445038652
275,534.1305971327461
276,534.1271368701074
277,534.1236940202906
278,534.1202020174926
279,534.1165979440848
280,534.1128230178645
281,534.1088230426602
282,534.104548818316
283,534.0999565073547
284,534.0950079565835
285,534.0896709726471
286,534.0839195511937
287,534.0777340600122
288,534.0711013770617
289,534.0640149840837
290,534.0564750153354
291,534.0484882599085
292,534.0400681161848
293,534.0312344980819
294,534.0220136938519
295,534.0124381788698
296,534.0025463844104
297,533.9923824251669
298,533.9819957889652
299,533.9714409924189
300,533.960777206137
301,533.9500678529527
302,533.9393801828455
303,533.9287848285305
304,533.9183553454574
305,533.9081677387816
306,533.8982999780294
307,533.8888314986558
308,533.8798426896841
309,533.8714143684847
310,533.8636272464672
311,533.8565613913482
312,533.8502956918697
313,533.8449073298852
314,533.8404712638109
315,533.8370597273963
316,533.8347417485026
317,533.8335826932663
318,533.8336438409589
319,533.8349819938164
320,533.837649124405
321,533.8416920612074
322,533.8471522116113
323,533.8540653205042
324,533.8624612620952
325,533.8723638623776
326,533.8837907501673
327,533.8967532359386
328,533.9112562191191
329,533.9272981251114
330,533.9448708728379
331,533.9639598729257
332,533.98454405687
333,534.0065959388876
334,534.0300817138623
335,534.054961395755
336,534.0811890006058
337,534.1087127769799
338,534.1374754848667
339,534.1674147221503
340,534.1984632961412
341,534.2305496365914
342,534.2635982464894
343,534.2975301875756
344,534.3322635978753
345,534.3677142377805
346,534.4037960596553
347,534.4404217945091
348,534.4775035483904
349,534.5149534007813
350,534.5526839974151
351,534.5906091305706
352,534.628644300769
353,534.66670725461
354,534.7047184943007
355,534.7426017554269
356,534.7802844505482
357,534.8176980769579
358,534.8547785870826
359,534.8914667194223
360,534.9277082871691
361,534.963454421512
362,534.9986617675761
363,535.0332926326727
364,535.0673150883415
365,535.1007030289404
366,535.1334361899786
367,535.1655001292626
368,535.1968861738442
369,535.2275913361333
370,535.2576182031015
371,535.2869748026388
372,535.315674450534
373,535.343735580516
374,535.3711815587312
375,535.3980404831132
376,535.4243449673797
377,535.4501319088882
378,535.475442239432
379,535.5003206585279
380,535.5248153499072
381,535.5489776833788
382,535.5728619051437
383,535.5965248193218
384,535.6200254620484
385,535.6434247679923
386,535.6667852286554
387,535.6901705424339
388,535.7136452573783
389,535.7372744083697
390,535.7611231512448
391,535.7852563973931
392,535.8097384531416
393,535.8346326685096
394,535.8600011000526
395,535.885904193078
396,535.9124004892867
397,535.9395463658763
398,535.9673958106649
399,535.9960002350554
400,536.025408323357
401,536.0556659139285
402,536.0868159052682
403,536.1188981788304
404,536.1519495299946
405,536.1860035991868
406,536.2210907964579
407,536.2572382147202
408,536.2944695292443
409,536.3328048838431
410,536.3722607670743
411,536.4128498840023
412,536.4545810300617
413,536.4974589735554
414,536.5414843528783
415,536.586653593843
416,536.6329588511494
417,536.6803879760087
418,536.7289245098008
419,536.7785477023267
420,536.8292325529859
421,536.8809498735703
422,536.9336663715947
423,536.9873447528769
424,537.0419438416345
425,537.0974187161281
426,537.1537208580329
427,537.2107983138919
428,537.268595866942
429,537.3270552175628
430,537.3861151710358
431,537.4457118323153
432,537.5057788088243
433,537.566247423244
434,537.6270469384116
435,537.6881047960638
436,537.7493468708
437,537.8106977403918
438,537.8720809733023
439,537.9334194339813
440,537.9946356062577
441,538.055651934877
442,538.1163911848254
443,538.1767768173605
444,538.2367333804873
445,538.296186909938
446,538.3550653346238
447,538.4132988782212
448,538.4708204465272
449,538.527565989162
450,538.5834748246774
451,538.6384899200356
452,538.6925581181296
453,538.7456303098248
454,538.7976615494576
455,538.8486111147245
456,538.898442513606
457,538.9471234426109
458,538.9946257019483
459,539.0409250738013
460,539.0860011695138
461,539.1298372503109
462,539.1724200244486
463,539.2137394221743
464,539.2537883492937
465,539.2925624204087
466,539.3300596735437
467,539.3662802687172
468,539.4012261739598
469,539.4349008429031
470,539.4673088878718
471,539.4984557515895
472,539.5283473799203
473,539.5569898980111
474,539.5843892926765
475,539.610551104742
476,539.6354801361196
477,539.6591801771209
478,539.6816537595433
479,539.7029019407395
480,539.7229241237801
481,539.741717919
482,539.7592790521636
483,539.7756013237628
484,539.7906766227162
485,539.8044949966178
486,539.8170447800293
487,539.8283127816338
488,539.8382845295396
489,539.8469445714424
490,539.8542768233352
491,539.8602649577967
492,539.8648928211128
493,539.8681448677985
494,539.8700066013215
495,539.870465010657
496,539.8695089936203
497,539.8671297598482
498,539.8633212086579
499,539.8580802792906
500,539.8514072728376
501,539.8433061462756
502,539.8337847793778
503,539.8228552149035
504,539.810533871946
505,539.7968417321637
506,539.7818044987645
507,539.7654527281165
508,539.7478219336014
509,539.72895266097
510,539.7088905341878
511,539.687686270651
512,539.6653956647442
513,539.6420795388841
514,539.6178036613434
515,539.5926386301597
516,539.5666597222967
517,539.5399467070414
518,539.5125836223917
519,539.4846585126613
520,539.45626312457
521,539.4274925578824
522,539.3984448656768
523,539.3692205991933
524,539.3399222935402
525,539.3106538935405
526,539.2815201231858
527,539.2526258063912
528,539.224075149971
529,539.1959710016876
530,539.1684140970171
531,539.141502308043
532,539.1153299066312
533,539.0899868518742
534,539.0655581089231
535,539.0421230033382
536,539.0197546127323
537,538.9985191963414
538,538.9784756632122
539,538.9596750805774
540,538.9421602252738
541,538.9259651824061
542,538.911114996552
543,538.8976253814224
544,538.8855024940115
545,538.8747427789345
546,538.8653328878761
547,538.8572496779007
548,538.8504602909911
549,538.8449223159082
550,538.8405840326059
551,538.8373847389464
552,538.8352551589298
553,538.8341179308254
554,538.8338881726801
555,538.8344741218457
556,538.8357778441615
557,538.8376960071365
558,538.840120710363
559,538.8429403658267
560,538.8460406203765
561,538.8493053117678
562,538.852617448483
563,538.8558602025522
564,538.8589179042717
565,538.8616770278898
566,538.8640271577125
567,538.8658619244155
568,538.8670799014568
569,538.8675854513998
570,538.8672895118892
571,538.8661103111335
572,538.8639740031109
573,538.8608152135315
574,538.8565774892982
575,538.85121364693
576,538.8446860185687
577,538.8369665968664
578,538.8280370818757
579,538.8178888342994
580,538.8065227405182
581,538.7939489959168
582,538.7801868141603
583,538.7652640710713
584,538.7492168924551
585,538.7320891953156
586,538.7139321912606
587,538.6948038596717
588,538.6747683968347
589,538.6538956460323
590,538.6322605126577
591,538.6099423678195
592,538.5870244438568
593,538.563593225605
594,538.5397378414282
595,538.515549457251
596,538.4911206753169
597,538.4665449380104
598,538.441915936364
599,538.4173270228181
600,538.3928706283926
601,538.3686376855879
602,538.3447170597084
603,538.3211949923913
604,538.2981545617918
605,538.2756751643798
606,538.2538320237926
607,538.23269573253
608,538.2123318322117
609,538.192800437532
610,538.1741559080373
611,538.1564465705612
612,538.1397144936686
613,538.1239953140001
614,538.1093181133073
615,538.0957053444107
616,538.0831728043034
617,538.0717296530421
618,538.0613784775137
619,538.052115398926
620,538.0439302214695
621,538.0368066174551
622,538.0307223424976
623,538.0256494739228
624,538.0215546665981
625,538.0183994221624
626,538.0161403693464
627,538.0147295541334
628,538.0141147387822
629,538.0142397085208
630,538.0150445844166
631,538.0164661408029
632,538.0184381256607
633,538.0208915824408
634,538.0237551721251
635,538.0269554948744
636,538.030417411002
637,538.0340643611535
638,538.0378186858366
639,538.0416019449875
640,538.0453352387389
641,538.0489395307218
642,538.0523359751554
643,538.0554462485628
644,538.0581928859755
645,538.0604996201782
646,538.0622917217711
647,538.0634963381764
648,538.0640428307598
649,538.063863110039
650,538.0628919691055
651,538.0610674151142
652,538.0583309985224
653,538.0546281400631
654,538.0499084559094
655,538.0441260813783
656,538.0372399926363
657,538.0292143247715
658,538.0200186837653
659,538.0096284493164
660,537.9980250648966
661,537.9851963105826
662,537.9711365530097
663,537.9558469654364
664,537.9393357097299
665,537.9216180714014
666,537.9027165390004
667,537.8826608204402
668,537.8614877909721
669,537.8392413698923
670,537.8159723249364
671,537.7917380044139
672,537.766601997915
673,537.7406337276504
674,537.7139079745583
675,537.6865043458578
676,537.658506692708
677,537.6300024873327
678,537.6010821687307
679,537.571838465891
680,537.5423657077142
681,537.5127591292334
682,537.4831141837184
683,537.4535258697466
684,537.4240880814374
685,537.394892988765
686,537.3660304530654
687,537.3375874806007
688,537.3096477149003
689,537.2822909674662
690,537.2555927867902
691,537.22962406682
692,537.2044506969315
693,537.1801332554796
694,537.1567267481655
695,537.134280391104
696,537.1128374371498
697,537.0924350434797
698,537.07310417889
699,537.0548695702125
700,537.0377496877798
701,537.0217567696637
702,537.0068968838605
703,536.9931700272906
704,536.9805702604872
705,536.9690858768255
706,536.9586996050296
707,536.9493888437971
708,536.9411259278319
709,536.9338784248409
710,536.9276094624505
711,536.9222780824556
712,536.9178396182263
713,536.9142460905103
714,536.9114466175397
715,536.9093878364993
716,536.9080143342386
717,536.9072690854439
718,536.9070938966091
719,536.9074298542077
720,536.9082177753298
721,536.9093986584226
722,536.9109141306816
723,536.9127068876268
724,536.9147211199256
725,536.916902922411
726,536.9192006799994
727,536.9215654249446
728,536.9239511603232
729,536.9263151462328
730,536.9286181472742
731,536.9308246414766
732,536.9329029914071
733,536.9348255779846
734,536.9365688969679
735,536.9381136175605
736,536.9394446023125
737,536.9405508875216
738,536.9414256234423
739,536.9420659735447
740,536.9424729721013
741,536.942651340086
742,536.9426092607529
743,536.942358117662
744,536.9419121987722
745,536.9412883708014
746,536.9405057288963
747,536.9395852277918
748,536.938549301538
749,536.9374214790413
750,536.9362260020616
751,536.9349874512317
752,536.9337303845239
753,536.9324789917207
754,536.931256768041
755,536.9300862102261
756,536.9289885388537
757,536.9279834508918
758,536.9270889061463
759,536.9263209503514
760,536.9256935768644
761,536.9252186287915
762,536.9249057435943
763,536.9247623418646
764,536.9247936605651
765,536.9250028292298
766,536.9253909861524
767,536.9259574304198
768,536.9266998043605
769,536.9276142996639
770,536.9286958796937
771,536.9299385107909
772,536.9313353964418
773,536.9328792093727
774,536.9345623174311
775,536.9363769997946
776,536.9383156510725
777,536.9403709721196
778,536.9425361472818
779,536.944805008023
780,536.9471721825927
781,536.9496332311044
782,536.9521847656317
783,536.9548245556637
784,536.9575516197863
785,536.9603663040464
786,536.9632703462033
787,536.9662669238845
788,536.9693606842832
789,536.9725577533612
790,536.9758657228234
791,536.979293613001
792,536.9828518095281
793,536.986551971854
794,536.9904069123255
795,536.9944304454076
796,536.9986372072885
797,537.0030424469546
798,537.0076617914809
799,537.0125109907364
800,537.0176056487365
801,537.0229609492316
802,537.0285913819979
803,537.0345104751242
804,537.0407305382167
805,537.0472624213577
806,537.0541152938592
807,537.0612964452636
808,537.0688111093584
809,537.0766623109015
810,537.0848507343768
811,537.0933746142697
812,537.1022296469154
813,537.1114089248607
814,537.1209028957257
815,537.13069934848
816,537.1407834303867
817,537.1511376971645
818,537.1617421972086
819,537.1725745886616
820,537.1836102863982
821,537.1948226347838
822,537.2061831013654
823,537.2176614865464
824,537.2292261446904
825,537.2408442126111
826,537.2524818418584
827,537.2641044318989
828,537.275676862411
829,537.287163724004
830,537.2985295468678
831,537.309739025818
832,537.3207572385786
833,537.331549853035
834,537.3420833190517
835,537.3523250408881
836,537.3622435268235
837,537.3718085135265
838,537.3809910643486
839,537.3897636428051
840,537.3981001643076
841,537.4059760303428
842,537.4133681499511
843,537.420254953787
844,537.4266164062337
845,537.4324340208304
846,537.4376908835609
847,537.442371687478
848,537.4464627809758
849,537.4499522310605
850,537.4528299023744
851,537.455087552467
852,537.4567189437976
853,537.4577199729879
854,537.4580888174187
855,537.4578260980555
856,537.4569350557891
857,537.4554217373125
858,537.4532951856712
859,537.4505676295024
860,537.447254663497
861,537.4433754114629
862,537.4389526630569
863,537.4340129755061
864,537.4285867319772
865,537.4227081487956
866,537.4164152250543
867,537.4097496306182
868,537.402756531716
869,537.3954843564508
870,537.3879845051126
871,537.3803110120383
872,537.3725201668486
873,537.3646701031305
874,537.3568203622284
875,537.3490314391748
876,537.3413643170584
877,537.3338799953647
878,537.3266390173933
879,537.3197010021366
880,537.3131241869415
881,537.306964988389
882,537.3012775894994
883,537.2961135611566
884,537.2915215246994
885,537.2875468614994
886,537.2842314744204
887,537.2816136050612
888,537.2797277093715
889,537.2786043930015
890,537.2782704071997
891,537.2787487058868
892,537.2800585639309
893,537.2822157553873
894,537.285232788871
895,537.2891191957341
896,537.293881865691
897,537.2995254240399
898,537.3060526442481
899,537.3134648891888
900,537.3217625739813
901,537.3309456432654
902,537.3410140554265
903,537.3519682654545
904,537.3638096970354
905,537.3765411937886
906,537.3901674397778
907,537.4046953405178
908,537.4201343572308
909,537.4364967885613
910,537.4537979950817
911,537.4720565627955
912,537.4912944028205
913,537.5115367857456
914,537.5328123106885
915,537.5551528105019
916,537.5785931955041
917,537.6031712384798
