frame_number,force
0,686.7949200069635
1,686.8860731995212
2,686.976983971417
3,687.0674114652352
4,687.1571179315042
5,687.2458702380201
6,687.333441329292
7,687.4196116233643
8,687.5041703339751
9,687.5869167062996
10,687.667661155317
11,687.7462262975375
12,687.8224478690603
13,687.8961755250688
14,687.967273517351
15,688.0356212472634
16,688.101113692176
17,688.1636617042246
18,688.2231921811989
19,688.2796481105937
20,688.3329884893003
21,688.3831881231694
22,688.4302373126669
23,688.4741414328279
24,688.5149204172754
25,688.5526081566977
26,688.5872518216654
27,688.6189111184786
28,688.6476574855335
29,688.6735732368389
30,688.6967506587632
31,688.7172910658314
32,688.7353038216395
33,688.7509053319905
34,688.7642180190069
35,688.7753692863688
36,688.7844904862213
37,688.791715897896
38,688.7971817282561
39,688.801025143588
40,688.8033833429995
41,688.8043926825475
42,688.8041878578091
43,688.8029011509228
44,688.8006617467546
45,688.7975951216478
46,688.7938225067315
47,688.7894604259716
48,688.7846203075873
49,688.7794081664717
50,688.7739243545598
51,688.7682633752489
52,688.7625137569978
53,688.7567579805245
54,688.7510724541127
55,688.7455275326678
56,688.7401875781302
57,688.7351110607607
58,688.730350701603
59,688.72595365581
60,688.7219617352235
61,688.7184116673009
62,688.7153353862345
63,688.712760350996
64,688.7107098846637
65,688.7092035302178
66,688.7082574194989
67,688.7078846531588
68,688.7080956894051
69,688.7088987383485
70,688.7103001574824
71,688.7123048429481
72,688.7149166111269
73,688.7181385657432
74,688.7219734465712
75,688.7264239564471
76,688.731493063379
77,688.7371842743388
78,688.7435018773045
79,688.7504511484873
80,688.7580385220715
81,688.7662717199102
82,688.7751598388453
83,688.7847133943164
84,688.7949443204121
85,688.8058659276996
86,688.8174928207078
87,688.8298407771243
88,688.842926590862
89,688.8567678813779
90,688.8713828721926
91,688.8867901423265
92,688.9030083548882
93,688.9200559670157
94,688.9379509249233
95,688.9567103473311
96,688.9763502000917
97,688.9968849641409
98,689.0183272981178
99,689.0406876967586
100,689.0639741467833
101,689.088191782868
102,689.1133425465948
103,689.13942485086
104,689.1664332517962
105,689.1943581305773
106,689.2231853883757
107,689.2528961581821
108,689.2834665367143
109,689.3148673391522
110,689.347063880075
111,689.3800157856875
112,689.4136768442131
113,689.4479949022024
114,689.4829118141322
115,689.5183634514443
116,689.5542797758025
117,689.5905849801729
118,689.6271977003403
119,689.6640312985418
120,689.7009942199758
121,689.7379904219614
122,689.7749198744593
123,689.811679129353
124,689.8481619542849
125,689.8842600251675
126,689.919863670153
127,689.954862657061
128,689.9891470160026
129,690.022607888976
130,690.0551383979574
131,690.0866345220579
132,690.116995973071
133,690.146127058083
134,690.1739375182154
135,690.2003433337917
136,690.2252674878305
137,690.248640681186
138,690.2704019934034
139,690.290499483289
140,690.3088907226509
141,690.3255432562912
142,690.3404349816992
143,690.3535544430981
144,690.3649010360554
145,690.3744851201977
146,690.3823280383233
147,690.3884620405092
148,690.3929301122974
149,690.3957857071447
150,690.3970923845004
151,690.3969233552236
152,690.3953609358058
153,690.3924959133411
154,690.3884268250174
155,690.3832591582524
156,690.3771044796075
157,690.3700795023979
158,690.3623051050323
159,690.3539053145116
160,690.3450062714466
161,690.3357351936128
162,690.3262193541807
163,690.3165850887508
164,690.3069568427592
165,690.2974562681533
166,690.2882013760749
167,690.2793057511556
168,690.2708778327647
169,690.2630202684063
170,690.2558293438394
171,690.2493944932714
172,690.2437978911199
173,690.2391141243685
174,690.2354099418062
175,690.2327440741474
176,690.231167117974
177,690.2307214769095
178,690.2314413548767
179,690.2333527977551
180,690.2364737805726
181,690.2408143376355
182,690.2463767331724
183,690.2531556704097
184,690.261138537404
185,690.2703056883518
186,690.2806307593504
187,690.2920810173853
188,690.3046177403946
189,690.3181966248911
190,690.3327682162861
191,690.3482783560873
192,690.3646686395383
193,690.3818768769596
194,690.3998375518604
195,690.4184822686975
196,690.4377401832127
197,690.4575384091809
198,690.4778023975368
199,690.4984562867887
200,690.5194232263364
201,690.5406256758008
202,690.5619856835784
203,690.5834251473399
204,690.6048660589809
205,690.6262307367208
206,690.6474420472399
207,690.6684236208032
208,690.6891000622388
209,690.7093971602043
210,690.7292420960631
211,690.7485636517404
212,690.7672924133695
213,690.7853609652915
214,690.8027040681959
215,690.8192588163578
216,690.8349647711865
217,690.8497640704766
218,690.8636015142513
219,690.8764246288533
220,690.8881837110182
221,690.8988318533851
222,690.908324952847
223,690.9166217036953
224,690.9236835786008
225,690.929474801789
226,690.933962319892
227,690.937115776356
228,690.9389074946877
229,690.9393124744801
230,690.938308402454
231,690.9358756789588
232,690.9319974588876
233,690.9266597054385
234,690.9198512559344
235,690.911563900413
236,690.9017924748168
237,690.8905349706512
238,690.8777926619739
239,690.863570248837
240,690.8478760140738
241,690.8307219882474
242,690.8121241165487
243,690.7921024218069
244,690.770681158806
245,690.7478889558452
246,690.723758939909
247,690.6983288423219
248,690.6716410821756
249,690.6437428246121
250,690.6146860100996
251,690.584527349646
252,690.5533282800792
253,690.5211548735851
254,690.4880776969133
255,690.4541716179453
256,690.4195155601594
257,690.384192208195
258,690.3482876697266
259,690.3118910999955
260,690.2750942954724
261,690.2379912620362
262,690.2006777610244
263,690.1632508344559
264,690.1258083098526
265,690.0884482861784
266,690.0512686051376
267,690.0143663149315
268,689.9778371350544
269,689.9417749305226
270,689.9062712028158
271,689.8714146033236
272,689.8372904732632
273,689.8039804120409
274,689.771561874464
275,689.7401077965623
276,689.7096862498365
277,689.6803601239832
278,689.6521868383333
279,689.6252180825115
280,689.5994995871501
281,689.5750709257177
282,689.5519653486268
283,689.5302096509546
284,689.5098240755774
285,689.4908222543953
286,689.4732111914097
287,689.456991292238
288,689.442156444616
289,689.4286941534532
290,689.4165857325147
291,689.4058065533777
292,689.3963263510559
293,689.3881095843768
294,689.3811158477145
295,689.3753003292584
296,689.3706143098258
297,689.367005695052
298,689.3644195725045
299,689.3627987844353
300,689.3620845070764
301,689.3622168280444
302,689.3631353132957
303,689.3647795538938
304,689.3670896817968
305,689.3700068442907
306,689.3734736286534
307,689.3774344309708
308,689.3818357645222
309,689.3866265036703
310,689.3917580595647
311,689.3971844849187
312,689.4028625066641
313,689.4087514871094
314,689.4148133163164
315,689.4210122408846
316,689.4273146370004
317,689.4336887380533
318,689.4401043289669
319,689.4465324201803
320,689.4529449133546
321,689.4593142685612
322,689.465613180341
323,689.4718142690298
324,689.4778897942156
325,689.4838113981306
326,689.4895498874015
327,689.4950750616704
328,689.5003555969039
329,689.5053589892043
330,689.5100515616587
331,689.5143985333765
332,689.5183641475203
333,689.5219118535853
334,689.5250045375217
335,689.5276047915224
336,689.529675214195
337,689.5311787317181
338,689.5320789312383
339,689.5323403991426
340,689.5319290590129
341,689.5308125065125
342,689.5289603401881
343,689.5263444877072
344,689.5229395269915
345,689.5187230017877
346,689.513675731314
347,689.5077821130343
348,689.5010304162138
349,689.4934130623284
350,689.4849268872189
351,689.4755733790987
352,689.4653588860145
353,689.4542947862695
354,689.4423976156555
355,689.4296891457084
356,689.4161964076187
357,689.4019516577923
358,689.3869922839395
359,689.371360654115
360,689.3551039138357
361,689.338273737656
362,689.3209260417395
363,689.3031206633448
364,689.284921011762
365,689.2663936933716
366,689.247608111936
367,689.2286360447772
368,689.2095511961612
369,689.1904287303872
370,689.1713447883121
371,689.1523759922035
372,689.1335989447099
373,689.1150897279844
374,689.0969234085426
375,689.079173552608
376,689.0619117558822
377,689.0452071910247
378,689.0291261754926
379,689.0137317617301
380,688.9990833512911
381,688.9852363344743
382,688.972241757173
383,688.9601460164927
384,688.9489905863137
385,688.9388117738094
386,688.9296405082072
387,688.921502163742
388,688.9144164195311
389,688.90839715972
390,688.9034524174746
391,688.8995843660151
392,688.8967893590545
393,688.895058022087
394,688.8943753951909
395,688.8947211271217
396,688.8960697194132
397,688.8983908182959
398,688.9016495517344
399,688.9058069084605
400,688.9108201551278
401,688.9166432866472
402,688.9232275037585
403,688.9305217113988
404,688.9384730315695
405,688.947027324814
406,688.9561297144645
407,688.965725107393
408,688.9757587046
409,688.9861764950227
410,688.9969257264612
411,689.0079553483754
412,689.0192164223818
413,689.0306624972535
414,689.042249945853
415,689.0539382618783
416,689.065690315055
417,689.0774725643862
418,689.0892552294877
419,689.1010124192493
420,689.1127222157904
421,689.1243667111986
422,689.1359319952261
423,689.1474080933101
424,689.1587888555681
425,689.1700717989561
426,689.1812579065019
427,689.192351388864
428,689.2033594137945
429,689.2142918082751
430,689.2251607368256
431,689.2359803588109
432,689.2467664680963
433,689.2575361197873
434,689.2683072503701
435,689.2790982988656
436,689.2899278373197
437,689.30081421874
438,689.3117752494122
439,689.3228278908034
440,689.3339879946417
441,689.345270073443
442,689.35668710748
443,689.3682503878656
444,689.3799693942077
445,689.391851704356
446,689.4039029333974
447,689.4161266995145
448,689.4285246154614
449,689.4410963056571
450,689.4538394498142
451,689.4667498544666
452,689.4798215537254
453,689.4930469399184
454,689.5064169232966
455,689.5199211178224
456,689.5335480476956
457,689.5472853673798
458,689.5611200868852
459,689.5750387938878
460,689.5890278646857
461,689.6030736569999
462,689.6171626790159
463,689.6312817303335
464,689.6454180112559
465,689.6595591974267
466,689.6736934775846
467,689.6878095531124
468,689.7018965988943
469,689.7159441859109
470,689.7299421674273
471,689.7438805327438
472,689.7577492348803
473,689.7715380005066
474,689.7852361314449
475,689.7988323072757
476,689.8123143982018
477,689.8256692964079
478,689.8388827725657
479,689.8519393619445
480,689.8648222822555
481,689.8775133836242
482,689.889993130238
483,689.9022406128233
484,689.914233590558
485,689.9259485602064
486,689.9373608494503
487,689.9484447309717
488,689.9591735541079
489,689.9695198919711
490,689.979455703415
491,689.9889525101061
492,689.9979815884133
493,690.0065141744456
494,690.0145216798325
495,690.0219759164771
496,690.0288493297112
497,690.0351152398569
498,690.0407480917238
499,690.0457237104946
500,690.0500195614868
501,690.0536150107317
502,690.056491582908
503,690.0586332126114
504,690.0600264844373
505,690.0606608574756
506,690.0605288708603
507,690.0596263284364
508,690.057952461266
509,690.055510066098
510,690.0523056167954
511,690.0483493450492
512,690.0436552866005
513,690.0382412893152
514,690.0321289798881
515,690.0253436870139
516,690.0179143205938
517,690.0098732087664
518,690.0012558972345
519,689.9921009180325
520,689.9824495366711
521,689.9723454871346
522,689.9618347038053
523,689.9509650580844
524,689.9397861048708
525,689.9283488404991
526,689.9167054706993
527,689.9049091858367
528,689.8930139409098
529,689.8810742384107
530,689.8691449124756
531,689.857280912828
532,689.8455370869802
533,689.8339679589845
534,689.822627502899
535,689.8115689093661
536,689.8008443443558
537,689.7905046999161
538,689.7805993374373
539,689.7711758245975
540,689.7622796682065
541,689.7539540466454
542,689.7462395470179
543,689.739173912728
544,689.7327918066387
545,689.7271245936621
546,689.7222001453684
547,689.7180426683202
548,689.7146725569731
549,689.712106270832
550,689.7103562344596
551,689.7094307586457
552,689.7093339817432
553,689.7100658312962
554,689.7116220067925
555,689.7139939843976
556,689.7171690442411
557,689.721130320656
558,689.7258568757222
559,689.731323796282
560,689.7375023141481
561,689.7443599485309
562,689.7518606690436
563,689.7599650775954
564,689.7686306083184
565,689.7778117457609
566,689.7874602623339
567,689.7975254764968
568,689.807954533434
569,689.8186927094856
570,689.8296837403476
571,689.8408701720248
572,689.8521937336792
573,689.863595732354
574,689.8750174696038
575,689.8864006786218
576,689.897687978178
577,689.9088233376106
578,689.9197525456555
579,689.9304236748304
580,689.940787532225
581,689.9507980872064
582,689.9604128670798
583,689.9695933129955
584,689.9783050900352
585,689.9865183473906
586,689.9942079266301
587,690.0013535176469
588,690.0079397627783
589,690.0139563101303
590,690.0193978175579
591,690.024263908861
592,690.0285590836589
593,690.0322925825667
594,690.035478209932
595,690.0381341170482
596,690.040282548837
597,690.0419495563896
598,690.043164677148
599,690.0439605845982
600,690.0443727100517
601,690.0444388398736
602,690.0441986923086
603,690.0436934792402
604,690.042965459782
605,690.042057493933
606,690.0410126050408
607,690.0398735594487
608,690.0386824707512
609,690.0374804346351
610,690.0363071982954
611,690.0352008660068
612,690.0341976399723
613,690.0333315934172
614,690.0326344713922
615,690.0321355144486
616,690.0318613015866
617,690.0318356109909
618,690.0320792988701
619,690.0326101974844
620,690.0334430332813
621,690.0345893654637
622,690.0360575448932
623,690.0378526932773
624,690.0399767029435
625,690.0424282579454
626,690.0452028776754
627,690.0482929844146
628,690.0516879960466
629,690.055374444269
630,690.0593361171778
631,690.0635542235901
632,690.0680075755201
633,690.0726727851079
634,690.0775244729717
635,690.0825354860084
636,690.0876771234703
637,690.0929193702677
638,690.0982311359869
639,690.1035804974113
640,690.1089349416208
641,690.1142616062274
642,690.1195275134507
643,690.1246997958664
644,690.1297459134282
645,690.1346338629852
646,690.1393323826688
647,690.1438111545208
648,690.1480410095096
649,690.1519941389754
650,690.155644315218
651,690.15896712207
652,690.1619401946006
653,690.1645434656635
654,690.1667594155712
655,690.1685733196327
656,690.1699734869046
657,690.1709514828042
658,690.1715023285816
659,690.1716246717955
660,690.171320923374
661,690.1705973581908
662,690.1694641772145
663,690.1679355302193
664,690.1660294989015
665,690.1637680411908
666,690.1611768985794
667,690.1582854693038
668,690.1551266511111
669,690.1517366579536
670,690.1481548150178
671,690.1444233357239
672,690.1405870827757
673,690.1366933134809
674,690.1327914083545
675,690.128932582215
676,690.1251695784138
677,690.1215563485482
678,690.1181477210962
679,690.1149990624459
680,690.1121659328516
681,690.1097037380337
682,690.1076673747817
683,690.1061108666808
684,690.1050869848242
685,690.1046468485159
686,690.1048395022342
687,690.105711466955
688,690.1073062660303
689,690.1096639281875
690,690.112820472652
691,690.1168073834795
692,690.1216510816101
693,690.1273724038651
694,690.1339860982029
695,690.141500344211
696,690.14991630747
697,690.1592277365263
698,690.169420611652
699,690.1804728544672
700,690.1923541062351
701,690.2050255806307
702,690.218439995136
703,690.2325415844916
704,690.2472661994808
705,690.2625414940608
706,690.2782872030846
707,690.294415511602
708,690.3108315151742
709,690.3274337688788
710,690.3441149207645
711,690.360762423688
712,690.377259318069
713,690.3934850771443
714,690.4093165056006
715,690.424628682069
716,690.4392959361775
717,690.4531928516974
718,690.4661952881526
719,690.4781814131917
720,690.4890327368352
721,690.4986351371639
722,690.5068798661246
723,690.5136645240955
724,690.5188939921395
725,690.5224813109168
726,690.5243484950561
727,690.5244272719766
728,690.5226597353139
729,690.5189989052661
730,690.5134091907422
731,690.5058667504588
732,690.4963597517093
733,690.4848885263988
734,690.4714656243182
735,690.4561157639448
736,690.4388756818521
737,690.4197938833024
738,690.3989302983006
739,690.3763558485732
740,690.3521519314122
741,690.326409826353
742,690.2992300304421
743,690.2707215277097
744,690.2410009989959
745,690.2101919795654
746,690.1784239733029
747,690.1458315330261
748,690.1125533166196
749,690.0787311287992
750,690.0445089585862
751,690.010032022842
752,689.9754458263895
753,689.9408952492744
754,689.9065236712505
755,689.8724721422258
756,689.8388786052166
757,689.8058771758734
758,689.7735974805973
759,689.7421640542872
760,689.7116957986374
761,689.6823055018486
762,689.6540994202277
763,689.6271769217959
764,689.6016301918556
765,689.5775440000567
766,689.5549955274502
767,689.5340542503884
768,689.5147818763589
769,689.4972323255558
770,689.4814517518879
771,689.4674785983885
772,689.455343684171
773,689.4450703223897
774,689.4366744702387
775,689.4301649121749
776,689.4255434764948
777,689.4228052841469
778,689.4219390278922
779,689.4229272794602
780,689.4257468218588
781,689.4303690035566
782,689.4367601110698
783,689.444881756541
784,689.4546912770235
785,689.4661421424834
786,689.4791843703447
787,689.4937649457046
788,689.5098282473217
789,689.5273164790893
790,689.5461701046914
791,689.5663282805194
792,689.5877292803029
793,689.6103109050595
794,689.6340108732799
795,689.6587671874586
796,689.6845184735229
797,689.7112042897377
798,689.7387654017859
799,689.7671440211243
800,689.7962840043857
801,689.8261310124055
802,689.856632628174
803,689.8877384336299
804,689.9194000457694
805,689.9515711126774
806,689.9842072693539
807,690.0172660520119
808,690.0507067689232
809,690.0844903264559
810,690.118579010498
811,690.1529362256471
812,690.1875261971297
813,690.2223136430812
814,690.2572634271847
815,690.2923402032111
816,690.3275080633616
817,690.3627302016804
818,690.3979686026154
819,690.4331837634055
820,690.4683344573666
821,690.5033775433023
822,690.5382678243324
823,690.5729579577134
824,690.6073984158262
825,690.6415374970547
826,690.6753213835436
827,690.7086942412633
828,690.7415983572777
829,690.7739743097816
830,690.805761167579
831,690.8368967162448
832,690.8673177079993
833,690.8969601316397
834,690.9257594980187
835,690.9536511357373
836,690.9805704912659
837,691.0064534277909
838,691.0312365176466
839,691.0548573241883
840,691.0772546707111
841,691.0983688966323
842,691.1181421038805
843,691.1365183979188
844,691.1534441275714
845,691.1688681265122
846,691.1827419578614
847,691.1950201620185
848,691.2056605063684
849,691.2146242336316
850,691.2218763036135
851,691.2273856215102
852,691.2311252453759
853,691.2330725661665
854,691.2332094557033
855,691.2315223801077
856,691.2280024779126
857,691.2226456031008
858,691.215452334325
859,691.2064279531587
860,691.1955823964845
861,691.1829301904295
862,691.1684903745198
863,691.1522864241826
864,691.1343461776025
865,691.1147017702142
866,691.0933895777008
867,691.0704501666698
868,691.045928250961
869,691.0198726504188
870,690.9923362478465
871,690.9633759389842
872,690.933052569912
873,690.9014308561397
874,690.8685792776781
875,690.8345699447159
876,690.7994784295296
877,690.7633835618929
878,690.7263671868642
879,690.6885138849711
880,690.6499106555108
881,690.6106465641928
882,690.570812356766
883,690.5305000404368
884,690.4898024345418
885,690.4488126912433
886,690.4076237868173
887,690.3663279851685
888,690.3250162775013
889,690.2837778047524
890,690.2426992714757
891,690.2018643611136
892,690.16135316346
893,690.1212416257938
894,690.0816010391162
895,690.0424975696519
896,690.0039918435011
897,689.9661385897075
898,689.9289863446644
899,689.8925772191132
900,689.8569467280802
901,689.8221236837028
902,689.7881301506375
903,689.7549814633502
904,689.7226863038541
905,689.6912468372384
906,689.6606589006748
907,689.6309122398897
908,689.6019907857499
909,689.5738729627591
910,689.5465320211434
911,689.519936385284
912,689.4940500134086
913,689.4688327655344
914,689.4442407777711
915,689.4202268415862
916,689.3967407873637
917,689.3737298727124
