frame_number,force
0,620.3738400001786
1,620.0783515711013
2,619.7858487753394
3,619.4992573554947
4,619.221385387499
5,618.9548694802542
6,618.7021264374304
7,618.4653115019754
8,618.2462839649612
9,618.0465805802313
10,617.8673969345891
11,617.7095767669175
12,617.5736091658022
13,617.4596334440303
14,617.3674512273923
15,617.2965450140646
16,617.2461022801988
17,617.2150441404999
18,617.2020575740986
19,617.2056302738583
20,617.2240872876384
21,617.2556287818527
22,617.2983683753848
23,617.3503714788155
24,617.4096929896929
25,617.4744136765142
26,617.542674657884
27,617.6127094533534
28,617.6828730845442
29,617.7516676630052
30,617.8177638610616
31,617.8800176774121
32,617.937482056751
33,617.9894132259469
34,618.0352719709612
35,618.0747203441123
36,618.107614369341
37,618.1339932498207
38,618.1540655180233
39,618.1681925788901
40,618.1768701201521
41,618.180707834877
42,618.1804078577206
43,618.1767423075188
44,618.1705303277549
45,618.1626149966496
46,618.1538404884419
47,618.1450299441109
48,618.1369645897785
49,618.1303646417084
50,618.1258724697423
51,618.1240384157405
52,618.1253095816401
53,618.1300217709814
54,618.1383945928626
55,618.1505295910431
56,618.1664112148856
57,618.1859104959956
58,618.2087913550736
59,618.2347194778929
60,618.2632736816315
61,618.2939596674161
62,618.3262259884775
63,618.3594819028319
64,618.3931165340002
65,618.4265185271779
66,618.4590952850872
67,618.4902909516962
68,618.5196025197699
69,618.5465936601726
70,618.5709060517141
71,618.5922681329176
72,618.6105012951499
73,618.6255235582447
74,618.6373507171224
75,618.6460948832703
76,618.6519603340249
77,618.6552366349813
78,618.6562890736009
79,618.6555465136677
80,618.6534869107849
81,618.6506209716405
82,618.6474747008302
83,618.644571686971
84,618.6424158950763
85,618.6414755859234
86,618.6421689065676
87,618.6448516856389
88,618.6498079310519
89,618.6572434078279
90,618.6672824726772
91,618.6799680862371
92,618.6952646596307
93,618.713063174802
94,618.733187885575
95,618.7554038880409
96,618.7794249517494
97,618.8049211756041
98,618.8315262138622
99,618.8588440077211
100,618.8864551696248
101,618.913923343998
102,618.9408019075837
103,618.9666412404538
104,618.990996586091
105,619.013436356855
106,619.0335506695033
107,619.0509598634465
108,619.0653227389477
109,619.0763442887336
110,619.0837827822646
111,619.08745612973
112,619.0872474611937
113,619.083109829364
114,619.0750699078394
115,619.0632305081435
116,619.0477716881833
117,619.0289501875035
118,619.0070968910821
119,618.9826120093976
120,618.9559577376448
121,618.9276483478944
122,618.8982379059099
123,618.8683060159373
124,618.8384421719373
125,618.8092294315377
126,618.7812281929106
127,618.7549608244242
128,618.7308978013053
129,618.7094458666189
130,618.6909385438418
131,618.6756290943073
132,618.6636858089792
133,618.655189430623
134,618.6501325116191
135,618.6484205450126
136,618.6498747200669
137,618.6542361774027
138,618.6611717011449
139,618.6702808666372
140,618.6811047130343
141,618.6931359864702
142,618.7058309009359
143,618.7186222480694
144,618.7309336102553
145,618.742194385622
146,618.7518552781272
147,618.7594038305213
148,618.76437950611
149,618.7663877911607
150,618.7651128213009
151,618.7603281344719
152,618.7519052787325
153,618.739820079407
154,618.7241563547731
155,618.7051068185023
156,618.6829709161664
157,618.6581494430064
158,618.6311359403478
159,618.6025050131805
160,618.5728978165885
161,618.5430050257728
162,618.5135476614358
163,618.4852562122625
164,618.4588485955239
165,618.4350076374926
166,618.4143589199339
167,618.3974499950597
168,618.3847320910389
169,618.3765454307728
170,618.3731090436656
171,618.3745154676581
172,618.3807302122408
173,618.391595484886
174,618.406837510698
175,618.4260767162414
176,618.4488400430967
177,618.4745747144503
178,618.502662915475
179,618.5324370230173
180,618.563195155838
181,618.5942168728797
182,618.6247788310073
183,618.6541701494638
184,618.68170715389
185,618.7067471409415
186,618.7287008357625
187,618.7470432592193
188,618.7613227302095
189,618.7711677478
190,618.7762916157143
191,618.7764948604655
192,618.7716656044256
193,618.7617780018804
194,618.7468887432948
195,618.7271316636798
196,618.7027106867156
197,618.6738915743249
198,618.6409931228783
199,618.6043785178481
200,618.564447510819
201,618.5216299143096
202,618.4763806649369
203,618.4291764432204
204,618.380513604238
205,618.3309069998991
206,618.2808891631088
207,618.2310092576063
208,618.1818311800864
209,618.1339302542243
210,618.0878880661404
211,618.0442851254577
212,618.0036912174319
213,617.9666536171251
214,617.9336837753935
215,617.9052434992547
216,617.8817317979777
217,617.8634733471964
218,617.8507090781169
219,617.8435890057601
220,617.842167261281
221,617.8463993724395
222,617.8561419823374
223,617.8711552486046
224,617.8911080636161
225,617.9155860349507
226,617.9441019619966
227,617.9761083953923
228,618.0110117633844
229,618.0481874675863
230,618.0869952909558
231,618.1267944473732
232,618.1669576579925
233,618.2068837699817
234,618.2460086046982
235,618.2838138666168
236,618.3198340313387
237,618.3536612074575
238,618.3849480720247
239,618.4134090750808
240,618.4388201448957
241,618.461017113273
242,618.4798930640126
243,618.4953948040514
244,618.5075186412071
245,618.5163055895707
246,618.5218360113477
247,618.5242236066903
248,618.5236086855616
249,618.5201508301855
250,618.5140212779493
251,618.5053954905403
252,618.4944464022853
253,618.4813388210597
254,618.4662254301539
255,618.4492447839577
256,618.4305215508929
257,618.4101690282729
258,618.3882936929854
259,618.3650013028354
260,618.3404038263841
261,618.314626285383
262,618.2878125267482
263,618.2601290489561
264,618.2317662529164
265,618.2029367787059
266,618.1738708514928
267,618.1448088103613
268,618.1159913173047
269,618.0876481269486
270,618.0599865803272
271,618.0331810469602
272,618.0073644174344
273,617.9826225252397
274,617.9589920653846
275,617.9364621818468
276,617.9149794803097
277,617.8944558889782
278,617.8747786154099
279,617.8558214186139
280,617.8374564298708
281,617.819565736565
282,617.8020519348819
283,617.7848469432395
284,617.7679185531584
285,617.7512744117352
286,617.7349633178885
287,617.7190738593935
288,617.7037305495743
289,617.6890877663611
290,617.675321931284
291,617.6626224566617
292,617.6511820433934
293,617.6411869520235
294,617.632807866693
295,617.626191885688
296,617.6214560371897
297,617.6186826006945
298,617.6179164212558
299,617.6191642933337
300,617.6223963421968
301,617.6275491701308
302,617.6345304024153
303,617.6432241782555
304,617.6534970861038
305,617.6652040590327
306,617.6781938347756
307,617.6923137204005
308,617.7074135389489
309,617.7233487356598
310,617.7399826589462
311,617.757188010469
312,617.7748474199875
313,617.7928530998289
314,617.8111056093089
315,617.8295119063058
316,617.8479830288046
317,617.8664318484452
318,617.8847712980955
319,617.9029133046569
320,617.9207684398132
321,617.9382461053484
322,617.9552549375886
323,617.9717031029041
324,617.987498287355
325,618.0025473893654
326,618.0167560961935
327,618.0300286035235
328,618.0422677277193
329,618.0533756108453
330,618.063255193493
331,618.0718126465223
332,618.0789609369074
333,618.0846245612718
334,618.0887452310086
335,618.0912880772331
336,618.092247876596
337,618.0916548510584
338,618.0895796616993
339,618.0861372467374
340,618.0814891723121
341,618.0758442104998
342,618.0694569389613
343,618.0626242611339
344,618.0556798815393
345,618.0489869436661
346,618.0429292165231
347,618.037901328401
348,618.0342985282754
349,618.0325063317094
350,618.0328902994098
351,618.0357861782625
352,618.041490641459
353,618.0502528125013
354,618.0622666901095
355,618.0776646008184
356,618.0965118787689
357,618.1188030001721
358,618.1444593240792
359,618.1733284565639
360,618.2051851437992
361,618.2397335560653
362,618.2766108492287
363,618.3153919591942
364,618.3555956638812
365,618.3966920024149
366,618.4381111538297
367,618.4792538383516
368,618.5195032047208
369,618.5582380224238
370,618.5948468597271
371,618.6287428387762
372,618.6593785007839
373,618.686260243331
374,618.70896171407
375,618.7271355163949
376,618.7405226276126
377,618.7489590307554
378,618.75237922565
379,618.750816530863
380,618.7444003498124
381,618.7333507238566
382,618.7179704900838
383,618.6986353181946
384,618.6757819698713
385,618.6498952969432
386,618.6214946012882
387,618.5911199066406
388,618.5593185334897
389,618.526632293102
390,618.4935856539698
391,618.4606752695822
392,618.4283612167317
393,618.397060220057
394,618.3671410768958
395,618.338922417315
396,618.3126727918777
397,618.2886128787522
398,618.2669193870321
399,618.247730059893
400,618.2311490954893
401,618.2172523210465
402,618.2060915615779
403,618.1976978291617
404,618.1920832283358
405,618.1892417878034
406,618.1891496649871
407,618.1917652179591
408,618.1970293011129
409,618.2048658936592
410,618.2151829095685
411,618.2278728801605
412,618.2428132317758
413,618.2598660729466
414,618.2788776317935
415,618.2996776173292
416,618.3220787802078
417,618.3458768903326
418,618.3708513113206
419,618.3967663153888
420,618.4233731742529
421,618.4504128902903
422,618.477619297112
423,618.504722235185
424,618.5314505762364
425,618.5575349643739
426,618.5827102307569
427,618.6067175208103
428,618.6293062192939
429,618.6502357237013
430,618.6692770122746
431,618.6862138641244
432,618.7008435988913
433,618.712977302396
434,618.72243960092
435,618.7290681012338
436,618.7327126951902
437,618.733235072851
438,618.730508895402
439,618.7244210305356
440,618.7148740819823
441,618.7017902957758
442,618.6851168655994
443,618.664832616215
444,618.6409559236764
445,618.613553511593
446,618.5827494846624
447,618.5487337051201
448,618.5117684866088
449,618.4721926422485
450,618.430422161016
451,618.3869471004616
452,618.342324574105
453,618.2971679446337
454,618.2521325270229
455,618.2078982798199
456,618.1651501151077
457,618.1245565706349
458,618.0867476908711
459,618.0522931386861
460,618.0216817969047
461,617.9953042486662
462,617.9734393915289
463,617.9562460752553
464,617.9437602013987
465,617.9358972797961
466,617.9324600418697
467,617.9331504087985
468,617.937584937958
469,617.9453128069595
470,617.9558353959604
471,617.9686265686879
472,617.9831528415034
473,617.9988927646616
474,618.0153549440787
475,618.0320941279675
476,618.0487247128269
477,618.0649310177457
478,618.0804738224165
479,618.0951929483506
480,618.1090060004078
481,618.1219036856771
482,618.1339423296591
483,618.1452342887093
484,618.1559369272626
485,618.1662407513269
486,618.176357234649
487,618.186506886237
488,618.1969082132352
489,618.2077683719401
490,618.2192762794085
491,618.2315986188136
492,618.2448786051846
493,618.2592368781106
494,618.2747737009429
495,618.2915718021446
496,618.3096995026833
497,618.3292139662506
498,618.3501643669257
499,618.372594607336
500,618.3965451333047
501,618.4220534505287
502,618.4491530915112
503,618.4778709317504
504,618.5082228968042
505,618.54020825091
506,618.5738028285209
507,618.6089517702558
508,618.6455625189416
509,618.6834989230696
510,618.7225772049312
511,618.7625643120323
512,618.8031788965164
513,618.8440949257216
514,618.8849477043244
515,618.9253418941478
516,618.9648610247252
517,619.0030780191611
518,619.0395663273566
519,619.0739112652813
520,619.1057210919674
521,619.1346372729921
522,619.1603433695687
523,619.1825721221637
524,619.201110527817
525,619.2158029138327
526,619.2265521273121
527,619.2333190710414
528,619.2361210002089
529,619.2350291762066
530,619.230166479755
531,619.2217053287828
532,619.2098658317653
533,619.1949137592212
534,619.1771578084729
535,619.1569457775516
536,619.1346595165476
537,619.1107087266184
538,619.0855237517113
539,619.059547477177
540,619.0332263767788
541,619.0070007175351
542,618.9812940259434
543,618.9565021462357
544,618.9329824624638
545,618.9110439695822
546,618.8909388226674
547,618.8728558190383
548,618.8569160512396
549,618.8431707777494
550,618.8316014413404
551,618.822121742393
552,618.8145817242458
553,618.8087738734027
554,618.8044411991322
555,618.8012871335724
556,618.7989869406465
557,618.7972001730525
558,618.7955835955726
559,618.7938039513691
560,618.7915500077243
561,618.7885434276624
562,618.7845481103009
563,618.7793777166324
564,618.7729011874612
565,618.7650461923889
566,618.7558005805199
567,618.74521195456
568,618.7333854455607
569,618.720479705732
570,618.7067011446564
571,618.6922965046541
572,618.6775439250878
573,618.6627426413509
574,618.648201466427
575,618.6342262947686
576,618.6211070336393
577,618.6091045229516
578,618.5984381118469
579,618.5892746340163
580,618.5817195556759
581,618.5758109971053
582,618.5715171054923
583,618.5687369370353
584,618.5673047043971
585,618.5669970301383
586,618.5675427121178
587,618.5686344300692
588,618.5699417960099
589,618.5711251537562
590,618.5718495092187
591,618.5717978893407
592,618.5706833513368
593,618.5682589299931
594,618.5643250635628
595,618.5587343486656
596,618.5513936660349
597,618.5422637648437
598,618.5313564184539
599,618.5187293711265
600,618.5044794765747
601,618.4887346297442
602,618.4716452406683
603,618.4533760072303
604,618.4340985960841
605,618.4139856488435
606,618.3932064118603
607,618.3719242174369
608,618.350295910633
609,618.3284730967199
610,618.3066048655284
611,618.2848414866812
612,618.2633384510015
613,618.2422601806556
614,618.221782819941
615,618.2020957404785
616,618.1834016037594
617,618.165914904433
618,618.1498589198279
619,618.1354610414751
620,618.1229466037731
621,618.112531491079
622,618.1044139163132
623,618.0987657784495
624,618.0957239384547
625,618.0953816805195
626,618.0977806329475
627,618.1029035101353
628,618.110668101831
629,618.1209228948119
630,618.1334446153387
631,618.147937952647
632,618.1640377885943
633,618.1813142852999
634,618.1992810347183
635,618.2174061690768
636,618.2351260043289
637,618.2518605393598
638,618.2670299685158
639,618.2800712696364
640,618.2904539245316
641,618.2976939430177
642,618.3013655911057
643,618.3011105356749
644,618.296644456666
645,618.28776144535
646,618.2743366040389
647,618.2563271880836
648,618.2337724885999
649,618.206792546543
650,618.1755857365517
651,618.1404252049895
652,618.1016540370676
653,618.0596789035513
654,618.0149618984792
655,617.9680103626428
656,617.9193646458767
657,617.8695839507639
658,617.8192306177824
659,617.7688534459443
660,617.7189708483447
661,617.6700547652977
662,617.6225162576353
663,617.5766935748951
664,617.5328433050843
665,617.4911350642208
666,617.4516501036451
667,617.4143841401841
668,617.379254570756
669,617.3461119671307
670,617.3147553551144
671,617.2849503534908
672,617.2564489306517
673,617.2290094225601
674,617.2024155177645
675,617.1764930623397
676,617.1511237005471
677,617.1262545511012
678,617.1019033893887
679,617.0781591917671
680,617.055178313075
681,617.0331768819086
682,617.0124201707907
683,616.9932097830352
684,616.9758695345253
685,616.9607308830348
686,616.9481186436172
687,616.9383375419538
688,616.9316599792877
689,616.9283152892287
690,616.9284807349203
691,616.9322744450069
692,616.9397504171103
693,616.9508957019026
694,616.965629931299
695,616.9838073788642
696,617.0052216385126
697,617.0296127573814
698,617.0566763457642
699,617.0860739717275
700,617.1174441480889
701,617.1504133880076
702,617.1846069703165
703,617.219659102355
704,617.2552221453975
705,617.2909745943375
706,617.3266276066086
707,617.361929973898
708,617.3966714770305
709,617.4306846224819
710,617.4638448720434
711,617.4960695670972
712,617.5273157344324
713,617.5575768833727
714,617.5868788580226
715,617.6152748174716
716,617.6428394419322
717,617.6696624862251
718,617.6958418530727
719,617.721476465969
720,617.7466593705069
721,617.7714716256995
722,617.7959775912933
723,617.820222133748
724,617.8442300616204
725,617.8680077699886
726,617.8915466798095
727,617.9148277491224
728,617.9378262373514
729,617.9605160030454
730,617.9828728144129
731,618.004876392339
732,618.0265111359984
733,618.0477656407406
734,618.0686312036788
735,618.0890995709948
736,618.1091602301432
737,618.1287975767647
738,618.1479882897004
739,618.1666992277085
740,618.184886098324
741,618.2024930298962
742,618.2194530094216
743,618.2356889534237
744,618.2511150154918
745,618.2656376775158
746,618.2791562337353
747,618.291562411406
748,618.3027390696977
749,618.3125581884445
750,618.3208786155125
751,618.3275441504856
752,618.3323824902591
753,618.3352054613148
754,618.3358108884422
755,618.3339863892994
756,618.3295153220381
757,618.322185037902
758,618.3117974475784
759,618.2981816421692
760,618.2812079485633
761,618.2608024503005
762,618.2369607584078
763,618.209759724838
764,618.1793658978687
765,618.1460398367365
766,618.1101358674343
767,618.0720973377836
768,618.0324477737685
769,617.9917784877123
770,617.9507332097809
771,617.9099903224171
772,617.8702432987163
773,617.8321799366392
774,617.7964609540162
775,617.7636985367617
776,617.7344355468035
777,617.7091262530738
778,617.688119556264
779,617.6716456454473
780,617.6598068346746
781,617.6525730506559
782,617.6497821624154
783,617.6511450945894
784,617.6562554434724
785,617.6646031220376
786,617.6755914198754
787,617.6885567745393
788,617.7027904642598
789,617.7175613169766
790,617.732138427373
791,617.7458128633085
792,617.7579174880758
793,617.767844319702
794,617.7750591840025
795,617.7791136336998
796,617.7796541315624
797,617.7764284071501
798,617.7692888101702
799,617.7581924676847
800,617.7431981579794
801,617.724460062087
802,617.7022188618093
803,617.6767908772935
804,617.648556008213
805,617.6179451911988
806,617.5854279733767
807,617.5515006718202
808,617.5166754614644
809,617.481470615548
810,617.4464020103466
811,617.4119758803608
812,617.3786826543483
813,617.3469915615689
814,617.3173456763552
815,617.2901572042889
816,617.2658029791176
817,617.2446201647062
818,617.2269020266791
819,617.2128935255047
820,617.2027865577454
821,617.1967149277093
822,617.1947494196042
823,617.196893537972
824,617.2030805596352
825,617.2131724992479
826,617.2269614497625
827,617.2441735707888
828,617.2644758356832
829,617.2874855427078
830,617.3127824965629
831,617.3399235919144
832,617.3684592663042
833,617.3979510225456
834,617.4279890328235
835,617.458208719661
836,617.4883051521571
837,617.5180441771092
838,617.5472694846416
839,617.5759052155502
840,617.6039541326222
841,617.6314917603079
842,617.6586572528356
843,617.6856420252878
844,617.7126772669938
845,617.7400213063789
846,617.7679474995033
847,617.796733035351
848,617.8266488938359
849,617.8579511160034
850,617.8908734285649
851,617.9256210590725
852,617.9623653695614
853,618.0012388616633
854,618.042330245664
855,618.0856795875754
856,618.1312739075278
857,618.1790438272617
858,618.2288618798787
859,618.2805429624331
860,618.3338472287055
861,618.3884855150778
862,618.4441271505948
863,618.5004097365186
864,618.5569502430044
865,618.6133566208467
866,618.6692391114532
867,618.7242205654857
868,618.7779453005932
869,618.8300862564743
870,618.8803503647392
871,618.9284821241378
872,618.97426541829
873,619.017523698456
874,619.0581187526221
875,619.0959483072278
876,619.1309426470555
877,619.1630603976758
878,619.1922836877901
879,619.2186130572034
880,619.2420625722552
881,619.2626555626566
882,619.28042121164
883,619.2953920105107
884,619.3076019412964
885,619.31708523612
886,619.32387566473
887,619.3280064541532
888,619.3295110545807
889,619.3284249498121
890,619.3247885329632
891,619.3186507836101
892,619.3100732294712
893,619.299133573792
894,619.2859284223808
895,619.2705746833032
896,619.2532094032753
897,619.2339880368302
898,619.2130813598407
899,619.1906713632302
900,619.1669464686363
901,619.1420963215085
902,619.1163063164273
903,619.0897519899041
904,619.0625934865927
905,619.0349703773159
906,619.0069971427113
907,618.9787597054172
908,618.9503135243688
909,618.921683835033
910,618.8928684894513
911,618.8638435210081
912,618.8345711411367
913,618.8050094805355
914,618.7751231034489
915,618.744893222502
916,618.7143266546624
917,618.6834628435857
