frame_number,force
0,723.256530005962
1,723.2957029076504
2,723.3348225426774
3,723.373836417115
4,723.412693566013
5,723.4513452782988
6,723.48974577798
7,723.5278528516684
8,723.5656284140701
9,723.6030390041365
10,723.6400562056376
11,723.6766569874153
12,723.7128239605227
13,723.748545551761
14,723.7838160956479
15,723.8186358492742
16,723.8530109361185
17,723.8869532252141
18,723.9204801513899
19,723.953614481318
20,723.9863840292584
21,724.0188213258874
22,724.050963243651
23,724.0828505828376
24,724.114527623755
25,724.1460416515021
26,724.1774424604585
27,724.2087818455166
28,724.2401130860686
29,724.2714904268762
30,724.3029685577525
31,724.3346020923125
32,724.3664450455481
33,724.398550310951
34,724.4309691402484
35,724.4637506317665
36,724.496941235629
37,724.5305842844962
38,724.5647195576867
39,724.5993828852439
40,724.634605797314
41,724.6704152230938
42,724.706833242536
43,724.7438768928914
44,724.7815580310548
45,724.8198832519232
46,724.8588538629234
47,724.8984659150929
48,724.9387102906082
49,724.9795728450922
50,725.0210346010674
51,725.0630719872789
52,725.1056571173438
53,725.1487581001704
54,725.1923393739755
55,725.2363620557131
56,725.2807842983613
57,725.3255616495671
58,725.3706474062935
59,725.4159929610968
60,725.461548136549
61,725.5072615051341
62,725.5530806926097
63,725.5989526635002
64,725.6448239884696
65,725.6906410948541
66,725.736350503197
67,725.7818990536566
68,725.8272341262311
69,725.872303857682
70,725.9170573563676
71,725.9614449149905
72,726.0054182210058
73,726.0489305643956
74,726.0919370417276
75,726.134394753957
76,726.1762629942716
77,726.217503422313
78,726.2580802223813
79,726.2979602452616
80,726.3371131355134
81,726.3755114478267
82,726.4131307569924
83,726.4499497660004
84,726.4859504157174
85,726.5211179974992
86,726.5554412675968
87,726.588912560214
88,726.62152789482
89,726.6532870724412
90,726.6841937552082
91,726.7142555240168
92,726.743483910808
93,726.7718944038328
94,726.7995064253487
95,726.8263432812839
96,726.8524320822071
97,726.8778036351537
98,726.9024923064383
99,726.9265358560081
100,726.9499752439938
101,726.9728544101671
102,726.9952200273759
103,727.017121230919
104,727.0386093271653
105,727.0597374859145
106,727.0805604211774
107,727.1011340638751
108,727.1215152277337
109,727.1417612669494
110,727.1619297216678
111,727.1820779461176
112,727.2022627154324
113,727.2225398104811
114,727.2429635837751
115,727.2635865123971
116,727.2844587456805
117,727.3056276564377
118,727.3271374050385
119,727.3490285255792
120,727.3713375426432
121,727.394096625588
122,727.4173332850364
123,727.4410701138661
124,727.4653245730765
125,727.4901088217856
126,727.5154295904391
127,727.5412880971568
128,727.5676800084556
129,727.5945954464771
130,727.6220190447661
131,727.6499300537804
132,727.6783024961569
133,727.7071053706004
134,727.7363029022599
135,727.7658548369501
136,727.7957167767315
137,727.8258405547157
138,727.856174646346
139,727.8866646122797
140,727.9172535654182
141,727.9478826532811
142,727.9784915471766
143,728.0090189304726
144,728.039402979014
145,728.0695818276273
146,728.0994940180791
147,728.1290789256807
148,728.1582771635412
149,728.1870309648792
150,728.2152845445524
151,728.2429844409576
152,728.2700798386845
153,728.296522871022
154,728.3222689001751
155,728.347276772485
156,728.3715090461437
157,728.3949321895539
158,728.4175167490861
159,728.4392374851099
160,728.4600734745825
161,728.4800081774542
162,728.4990294633006
163,728.5171295945249
164,728.5343051634032
165,728.5505569819554
166,728.5658899257548
167,728.5803127349939
168,728.5938377780371
169,728.6064807840152
170,728.6182605517308
171,728.6291986426422
172,728.6393190661505
173,728.6486479653606
174,728.657213310111
175,728.6650446012761
176,728.6721725870995
177,728.6786289899542
178,728.6844462411331
179,728.689657221616
180,728.6942950074026
181,728.698392618519
182,728.7019827713153
183,728.7050976341625
184,728.7077685869156
185,728.7100259844752
186,728.7118989247662
187,728.7134150215664
188,728.7146001824952
189,728.7154783920124
190,728.7160714991605
191,728.7163990106673
192,728.7164778916733
193,728.7163223778368
194,728.7159438032926
195,728.7153504491293
196,728.7145474171587
197,728.7135365338759
198,728.7123162894966
199,728.7108818166959
200,728.7092249130222
201,728.7073341096933
202,728.7051947877065
203,728.7027893401781
204,728.700097377801
205,728.6970959726747
206,728.693759934883
207,728.6900621160887
208,728.6859737348542
209,728.6814647192932
210,728.6765040639127
211,728.6710601984843
212,728.6651013666832
213,728.658596011144
214,728.6515131604322
215,728.6438228129248
216,728.6354963127473
217,728.6265067135298
218,728.6168291265832
219,728.6064410506303
220,728.5953226799866
221,728.583457187266
222,728.5708309761098
223,728.5574338994165
224,728.5432594387532
225,728.5283048408492
226,728.5125712076458
227,728.4960635376674
228,728.4787907184871
229,728.4607654723358
230,728.4420042587101
231,728.4225271387413
232,728.4023576060481
233,728.3815223880259
234,728.360051220585
235,728.3379765989281
236,728.315333507296
237,728.2921591314229
238,728.2684925583446
239,728.2443744687307
240,728.2198468265977
241,728.1949525701267
242,728.1697353058036
243,728.1442390066704
244,728.1185077143131
245,728.0925852436674
246,728.0665148901869
247,728.0403391402028
248,728.0140993867672
249,727.9878356543461
250,727.9615863362335
251,727.935387948604
252,727.9092749051753
253,727.8832793168793
254,727.8574308214419
255,727.831756447546
256,727.8062805170431
257,727.7810245870927
258,727.7560074329709
259,727.7312450715947
260,727.7067508249949
261,727.6825354217742
262,727.6586071333601
263,727.6349719409579
264,727.6116337285894
265,727.5885944972612
266,727.5658545948664
267,727.5434129557547
268,727.5212673433804
269,727.4994145895265
270,727.4778508243983
271,727.4565716931918
272,727.4355725564149
273,727.4148486730477
274,727.3943953670843
275,727.3742081786723
276,727.3542830010518
277,727.3346162042185
278,727.3152047461251
279,727.2960462724864
280,727.277139206592
281,727.2584828302021
282,727.2400773551583
283,727.2219239834217
284,727.2040249519059
285,727.1863835583068
286,727.1690041651296
287,727.1518921808175
288,727.1350540184553
289,727.1184970332206
290,727.1022294395088
291,727.0862602080597
292,727.0705989432068
293,727.0552557409366
294,727.040241029595
295,727.0255653963662
296,727.0112394035659
297,726.9972733990254
298,726.9836773242688
299,726.9704605231285
300,726.9576315523555
301,726.9451979950647
302,726.933166277717
303,726.9215414919025
304,726.9103272236043
305,726.8995253944661
306,726.8891361207175
307,726.8791575947902
308,726.8695859926512
309,726.8604154077573
310,726.8516378111242
311,726.843243036194
312,726.8352187864689
313,726.8275506631275
314,726.8202222093965
315,726.8132149686926
316,726.8065085543649
317,726.8000807297394
318,726.793907497664
319,726.7879631990357
320,726.7822206202837
321,726.7766511105242
322,726.7712247094578
323,726.7659102865241
324,726.7606756907531
325,726.7554879100013
326,726.7503132380903
327,726.7451174484078
328,726.7398659726155
329,726.7345240835327
330,726.7290570821519
331,726.7234304897046
332,726.7176102462224
333,726.7115629169571
334,726.7052559076619
335,726.6986576895332
336,726.691738034498
337,726.6844682610757
338,726.6768214899928
339,726.6687729073651
340,726.6603000320234
341,726.6513829827405
342,726.6420047405473
343,726.6321514006596
344,726.6218124077793
345,726.6109807680633
346,726.5996532311093
347,726.5878304359483
348,726.5755170164113
349,726.5627216635237
350,726.5494571454717
351,726.5357402883116
352,726.5215919220107
353,726.5070367962958
354,726.4921034695952
355,726.476824172968
356,726.4612346500036
357,726.4453739735189
358,726.4292843401078
359,726.4130108435403
360,726.3966012273618
361,726.3801056162656
362,726.3635762256753
363,726.3470670497337
364,726.330633529192
365,726.314332201757
366,726.2982203376389
367,726.2823555623833
368,726.2667954683999
369,726.2515972166508
370,726.2368171306125
371,726.222510285333
372,726.2087300947867
373,726.1955279007514
374,726.1829525663342
375,726.1710500774442
376,726.159863156112
377,726.1494308904566
378,726.1397883869179
379,726.130966450849
380,726.1229913017347
381,726.115884329277
382,726.1096618962176
383,726.1043351926158
384,726.0999101440691
385,726.096387373434
386,726.0937622132043
387,726.0920247650012
388,726.091160003437
389,726.0911479224967
390,726.0919637225475
391,726.0935780355753
392,726.0959571862894
393,726.0990634875263
394,726.1028555690791
395,726.1072887387535
396,726.1123153729908
397,726.1178853324644
398,726.1239463965221
399,726.1304447098508
400,726.1373252354654
401,726.1445322094904
402,726.152009594131
403,726.1597015252173
404,726.1675527505798
405,726.1755090563522
406,726.1835176800823
407,726.1915277111128
408,726.1994904792253
409,726.2073599321789
410,726.2150930019718
411,726.2226499587939
412,726.229994750999
413,726.2370953289933
414,726.24392395023
415,726.2504574613614
416,726.2566775525343
417,726.2625709785696
418,726.2681297425377
419,726.2733512384601
420,726.2782383505757
421,726.282799506223
422,726.2870486781787
423,726.2910053314349
424,726.2946943099766
425,726.2981456609194
426,726.3013943951814
427,726.3044801851844
428,726.3074470013654
429,726.3103426908617
430,726.3132185031952
431,726.3161285686433
432,726.3191293353317
433,726.3222789714981
434,726.3256367402665
435,726.329262355495
436,726.3332153283048
437,726.3375543144041
438,726.3423364722848
439,726.3476168420154
440,726.3534477536774
441,726.3598782734027
442,726.3669536936874
443,726.37471507381
444,726.3831988358954
445,726.3924364215782
446,726.4024540125071
447,726.4132723153213
448,726.424906409145
449,726.4373656517341
450,726.4506536392968
451,726.4647682145803
452,726.4797015179528
453,726.4954400769789
454,726.5119649314472
455,726.5292517924063
456,726.547271234625
457,726.5659889218389
458,726.5853658639551
459,726.6053587058152
460,726.6259200480147
461,726.6469988009734
462,726.668540573587
463,726.690488097475
464,726.7127816870955
465,726.7353597346308
466,726.7581592366665
467,726.7811163476329
468,726.8041669530979
469,726.8272472545285
470,726.8502943563445
471,726.8732468459865
472,726.8960453579847
473,726.9186331134076
474,726.940956426603
475,726.9629651719944
476,726.9846132048375
477,727.0058587310867
478,727.0266646228325
479,727.0469986773033
480,727.0668338191261
481,727.0861482468955
482,727.1049255255788
483,727.1231546260066
484,727.1408299120915
485,727.1579510755795
486,727.174523017062
487,727.190555671115
488,727.206063773492
489,727.2210665695578
490,727.2355874651961
491,727.2496536235263
492,727.2632955125075
493,727.2765464100312
494,727.2894418746406
495,727.3020191913822
496,727.3143168030265
497,727.3263737367708
498,727.3382290359541
499,727.3499212056984
500,727.3614876805833
501,727.3729643209505
502,727.3843849422934
503,727.3957808802878
504,727.4071805932631
505,727.4186093043182
506,727.4300886860032
507,727.4416365907471
508,727.4532668298145
509,727.4649890026858
510,727.4768083778381
511,727.488725825444
512,727.5007378024033
513,727.512836389724
514,727.5250093812648
515,727.5372404216986
516,727.5495091909604
517,727.5617916326489
518,727.5740602244169
519,727.5862842885199
520,727.5984303399724
521,727.6104624684021
522,727.6223427482528
523,727.6340316709568
524,727.6454885923621
525,727.6566721892734
526,727.6675409204431
527,727.6780534890507
528,727.6881693045373
529,727.6978489409631
530,727.7070545874914
531,727.7157504854075
532,727.7239033459508
533,727.7314827437435
534,727.7384614808304
535,727.7448159158639
536,727.7505262523579
537,727.7555767798656
538,727.7599560623888
539,727.7636570689214
540,727.766677241633
541,727.7690184979243
542,727.7706871634049
543,727.7716938338328
544,727.7720531657292
545,727.7717835984736
546,727.7709070148072
547,727.7694483502545
548,727.7674351636842
549,727.7648971811388
550,727.7618658240896
551,727.7583737321165
552,727.7544542888011
553,727.7501411583911
554,727.7454678398393
555,727.7404672443786
556,727.7351713028552
557,727.729610609107
558,727.7238141051353
559,727.7178088123064
560,727.7116196106043
561,727.7052690657429
562,727.6987773024521
563,727.6921619217723
564,727.6854379604707
565,727.6786178911445
566,727.6717116618117
567,727.6647267737509
568,727.6576683960577
569,727.6505395148234
570,727.6433411138772
571,727.6360723826562
572,727.6287309452356
573,727.6213131033487
574,727.613814085831
575,727.6062282976359
576,727.598549563313
577,727.5907713619863
578,727.5828870524635
579,727.5748900876506
580,727.5667742172258
581,727.5585336772181
582,727.5501633651814
583,727.5416590001582
584,727.5330172673499
585,727.5242359480237
586,727.515314035468
587,727.5062518378625
588,727.4970510689619
589,727.4877149277811
590,727.4782481692216
591,727.4686571686042
592,727.4589499836325
593,727.4491364168305
594,727.4392280801593
595,727.4292384619799
596,727.4191829951702
597,727.4090791240728
598,727.3989463670981
599,727.3888063711884
600,727.3786829536996
601,727.3686021262839
602,727.358592094165
603,727.3486832234453
604,727.33890796943
605,727.3293007605276
606,727.3198978345857
607,727.3107370268866
608,727.3018575109362
609,727.293299494379
610,727.2851038729274
611,727.2773118454764
612,727.2699644940285
613,727.2631023329607
614,727.2567648336325
615,727.2509899321599
616,727.2458135298267
617,727.2412689964352
618,727.237386686665
619,727.2341934783623
620,727.2317123401504
621,727.2299619344107
622,727.2289562606383
623,727.2287043429553
624,727.2292099639712
625,727.2304714457821
626,727.2324814784355
627,727.2352269965481
628,727.2386891053139
629,727.2428430575408
630,727.2476582837013
631,727.2530984773001
632,727.2591217381505
633,727.2656807766001
634,727.2727231822487
635,727.2801917607195
636,727.2880249410748
637,727.2961572543733
638,727.3045198809442
639,727.3130412609804
640,727.3216477608344
641,727.330264386047
642,727.3388155312024
643,727.3472257558849
644,727.3554205752687
645,727.3633272532068
646,727.3708755852895
647,727.3779986595125
648,727.3846335828177
649,727.3907221622791
650,727.3962115297728
651,727.4010546989552
652,727.4052110439657
653,727.4086466910376
654,727.4113348171908
655,727.4132558537575
656,727.4143975957795
657,727.4147552208376
658,727.4143312225794
659,727.4131352649941
660,727.4111839634384
661,727.4085005980287
662,727.4051147646117
663,727.4010619679767
664,727.3963831611602
665,727.3911242339526
666,727.3853354536103
667,727.3790708614192
668,727.3723876298263
669,727.3653453859512
670,727.3580055083653
671,727.350430405114
672,727.3426827817359
673,727.3348249082328
674,727.3269178939025
675,727.3190209790957
676,727.3111908531132
677,727.3034810072259
678,727.2959411313373
679,727.2886165626272
680,727.2815477948076
681,727.2747700570932
682,727.2683129720916
683,727.2622003010887
684,727.256449783442
685,727.2510730741773
686,727.2460757808724
687,727.2414575980674
688,727.2372125350371
689,727.2333292308255
690,727.2297913488386
691,727.2265780419185
692,727.2236644777715
693,727.2210224140614
694,727.2186208121726
695,727.2164264781585
696,727.2144047187244
697,727.2125199996705
698,727.2107365942635
699,727.2090192096251
700,727.2073335805211
701,727.2056470218315
702,727.2039289330569
703,727.2021512499402
704,727.2002888393665
705,727.1983198341902
706,727.1962259050399
707,727.1939924670386
708,727.1916088207797
709,727.1890682282232
710,727.1863679250324
711,727.1835090716296
712,727.1804966462421
713,727.1773392840469
714,727.174049066513
715,727.1706412644563
716,727.1671340382826
717,727.163548100041
718,727.159906343522
719,727.1562334493742
720,727.1525554715229
721,727.1488994098235
722,727.1452927731501
723,727.1417631375674
724,727.138337705192
725,727.1350428697629
726,727.1319037944534
727,727.1289440065481
728,727.1261850128495
729,727.1236459393787
730,727.1213431991076
731,727.1192901920688
732,727.1174970429568
733,727.1159703819653
734,727.1147131747572
735,727.1137246068301
736,727.113000025968
737,727.1125309443763
738,727.1123051002268
739,727.1123065770264
740,727.1125159784483
741,727.1129106556749
742,727.1134649834498
743,727.1141506796902
744,727.114937162093
745,727.1157919341828
746,727.1166809925936
747,727.1175692468942
748,727.1184209434697
749,727.1192000863394
750,727.1198708496082
751,727.1203979773259
752,727.1207471666353
753,727.1208854298807
754,727.1207814312133
755,727.1204057930602
756,727.1197313675419
757,727.118733467761
758,727.1173900541091
759,727.115681871558
760,727.113592535284
761,727.1111085638311
762,727.1082193608464
763,727.1049171475274
764,727.1011968480711
765,727.0970559305699
766,727.0924942070689
767,727.0875135989404
768,727.0821178763223
769,727.0763123822832
770,727.0701037534263
771,727.0634996487533
772,727.0565084977102
773,727.0491392767645
774,727.0414013221529
775,727.0333041847593
776,727.0248575312539
777,727.0160710935654
778,727.0069546667398
779,726.997518153422
780,726.9877716513884
781,726.9777255786003
782,726.9673908286205
783,726.9567789487155
784,726.9459023335338
785,726.9347744278224
786,726.923409931347
787,726.9118249986551
788,726.9000374267684
789,726.888066825546
790,726.875934767445
791,726.8636649148509
792,726.8512831237301
793,726.838817522322
794,726.826298563356
795,726.8137590480528
796,726.8012341199462
797,726.7887612263822
798,726.7763800455352
799,726.764132376937
800,726.7520619936502
801,726.74021445435
802,726.7286368740863
803,726.7173776537664
804,726.706486170414
805,726.6960124326072
806,726.6860067076061
807,726.6765191279309
808,726.6675992853042
809,726.659295819252
810,726.6516560068615
811,726.6447253594969
812,726.6385472315069
813,726.6331624452062
814,726.6286089362844
815,726.6249214247433
816,726.6221311178675
817,726.6202654525239
818,726.619347883545
819,726.6193977229348
820,726.6204300315503
821,726.6224555618584
822,726.6254807486575
823,726.629507744805
824,726.6345345003022
825,726.6405548842542
826,726.6475588492856
827,726.6555326369954
828,726.6644590216852
829,726.6743175883693
830,726.6850850400416
831,726.6967355282973
832,726.7092410006859
833,726.7225715575723
834,726.7366958110696
835,726.7515812393074
836,726.7671945310436
837,726.7835019178806
838,726.8004694932732
839,726.8180635184196
840,726.8362507147484
841,726.8549985412544
842,726.8742754530532
843,726.8940511363155
844,726.9142967150657
845,726.9349849269272
846,726.9560902665925
847,726.9775890966788
848,726.9994597258406
849,727.0216824543074
850,727.0442395878024
851,727.0671154216868
852,727.0902961973437
853,727.1137700318775
854,727.1375268207815
855,727.161558112322
856,727.1858569523469
857,727.2104176986214
858,727.2352358042615
859,727.2603075704657
860,727.2856298697599
861,727.3111998424672
862,727.337014571003
863,727.3630707383236
864,727.3893642777974
865,727.415890021624
866,727.4426413539063
867,727.469609873157
868,727.4967850680388
869,727.5241540098073
870,727.5517010649496
871,727.5794076312151
872,727.6072518991539
873,727.63520863983
874,727.6632490184303
875,727.6913404333991
876,727.7194463810681
877,727.7475263461314
878,727.7755357187708
879,727.8034257399607
880,727.8311434774957
881,727.8586318364127
882,727.8858296083913
883,727.9126715651018
884,727.9390885999998
885,727.9650079216468
886,727.9903532998626
887,728.0150453647371
888,728.0390019577086
889,728.0621385326123
890,728.0843686023724
891,728.1056042245255
892,728.1257565171719
893,728.1447361967606
894,728.1624541298827
895,728.1788218921822
896,728.1937523282438
897,728.2071601072281
898,728.218962270623
899,728.2290787707221
900,728.2374330004897
901,728.243952316186
902,728.2485685531135
903,728.2512185328308
904,728.2518445583198
905,728.2503948925992
906,728.2468242161989
907,728.2410940593071
908,728.2331732047535
909,728.2230380581221
910,728.2106729813288
911,728.1960705861604
912,728.1792319845542
913,728.1601669925101
914,728.1388942842465
915,728.1154414927803
916,728.089845253149
917,728.0621511853512
