acceleration,velocity,displacement
-0.048341650385743014,0.0,0.0
-0.047812941045445645,-2.4038647857797163e-05,-6.0096619644492905e-09
-0.04728495063533101,-4.7813120777991325e-05,-2.397260412339641e-08
-0.04675838765614783,-7.132395535086104e-05,-5.37568731556095e-08
-0.046233939972309165,-9.457203725797528e-05,-9.523087130781857e-08
-0.045712265028069125,-0.00011755858850806986,-1.4826352774932986e-07
-0.04519398065345153,-0.00014028514992845003,-2.1272446235845984e-07
-0.044679656594674856,-0.00016275355924048163,-2.8848413965069275e-07
-0.04416980688183872,-0.00018496592510961003,-3.7541401073821567e-07
-0.043664883132471626,-0.0002069245976131876,-4.733866414189151e-07
-0.04316526887512071,-0.0002286321356150857,-5.822758247259835e-07
-0.04267127495702979,-0.00025009127157312334,-7.019566765230357e-07
-0.04218313607356781,-0.00027130487433077276,-8.323057129990097e-07
-0.041701008426036336,-0.0002922759104556738,-9.732009091956215e-07
-0.041224968480394766,-0.0003130074046822816,-1.1245217379801103e-06
-0.04075501276673595,-0.00033350239999406424,-1.2861491891491967e-06
-0.040291058637611565,-0.0003537639178451511,-1.4579657686090006e-06
-0.039832945898895154,-0.0003737949189792778,-1.6398554778151078e-06
-0.039380439235957514,-0.000393598265262991,-1.831703773875675e-06
-0.03893323137127534,-0.0004131766829147992,-2.0333975109201225e-06
-0.038490946900974966,-0.0004325327274828618,-2.244824863519538e-06
-0.038053146764590186,-0.00045166875089925305,-2.4658752331150667e-06
-0.037619333301603115,-0.0004705868709158014,-2.6964391385688305e-06
-0.037188955838139005,-0.000489288943200737,-2.936408092097965e-06
-0.036761416731151554,-0.0005077765363430596,-3.185674461983914e-06
-0.03633607778248698,-0.0005260509099714693,-3.4441313235625463e-06
-0.03591226692670214,-0.0005441129961487666,-3.7116723000926056e-06
-0.03548928509780413,-0.0005619633841548932,-3.98819139516852e-06
-0.035066413193783896,-0.0005796023087277902,-4.273582818389191e-06
-0.03464291908322193,-0.0005970296417970416,-4.567740806020399e-06
-0.03421806462792077,-0.0006142448877248273,-4.870559438400866e-06
-0.03379111271811513,-0.0006312471820613362,-5.1819324558474065e-06
-0.03336133432354476,-0.0006480352938217511,-5.501753074818178e-06
-0.032928015550626556,-0.000664607631290294,-5.829913806096189e-06
-0.03249046466436901,-0.0006809622513440429,-6.166306276754773e-06
-0.03204801899382952,-0.0006970968722585925,-6.5108210576554324e-06
-0.03160005161036095,-0.0007130088899096401,-6.863347498197491e-06
-0.031145977661139048,-0.0007286953972275151,-7.22377356998178e-06
-0.03068526025212578,-0.0007441532067058313,-7.591985720965117e-06
-0.03021741579191464,-0.0007593788757168414,-7.967868741570785e-06
-0.02974201872401224,-0.0007743687343458231,-8.351305644086451e-06
-0.02925870559007424,-0.0007891189154243447,-8.742177556528993e-06
-0.028767178381101297,-0.0008036253864171386,-9.140363631989363e-06
-0.02826720714850319,-0.0008178839827995397,-9.545740974293532e-06
-0.027758631861982436,-0.0008318904425521611,-9.958184580631458e-06
-0.02724136351144626,-0.0008456404413955183,-1.0377567301618378e-05
-0.026715384450798872,-0.0008591296283860795,-1.0803759819063778e-05
-0.026180747978450623,-0.0008723536614933919,-1.1236630641533646e-05
-0.025637577155960385,-0.0008853082427769947,-1.1676046117601242e-05
-0.02508606288734856,-0.000897989152787822,-1.2121870466492446e-05
-0.02452646130808359,-0.00091039228383668,-1.2573965825648572e-05
-0.023959090554992363,-0.000922513671802449,-1.3032192314558353e-05
-0.02338432700537982,-0.000934349526192542,-1.3496408114057102e-05
-0.02280260108735306,-0.0009458962582157253,-1.3966469560159169e-05
-0.02221439277166333,-0.0009571505066804794,-1.4442231251383221e-05
-0.021620226855521892,-0.0009681091615872757,-1.492354616845016e-05
-0.021020668140371294,-0.000978769385336249,-1.541026580518104e-05
-0.02041631659131734,-0.000989128631519171,-1.5902240309394896e-05
-0.01980780255053398,-0.0009991846613046338,-1.6399318632600848e-05
-0.019195782063613012,-0.0010089355574581706,-1.6901348687291547e-05
-0.018580932365929764,-0.0010183797360655564,-1.740817751067248e-05
-0.01796394756506798,-0.0010275159560483057,-1.7919651433700944e-05
-0.017345534546398603,-0.0010363433265761725,-1.8435616254357063e-05
-0.016726409119832485,-0.0010448613124927303,-1.8955917414124287e-05
-0.016107292411142733,-0.001053069737875474,-1.948040017671634e-05
-0.015488907480571528,-0.0010609687878484026,-2.0008909808147307e-05
-0.014871976130359656,-0.0010685590087511354,-2.054129175729719e-05
-0.01425721584896433,-0.0010758413067459664,-2.1077391836171465e-05
-0.013645336838727462,-0.0010828169449178893,-2.161705639908743e-05
-0.013037039088095512,-0.001089487538899595,-2.21601325200418e-05
-0.012433009472054082,-0.0010958550510396323,-2.2706468167526606e-05
-0.011833918880717378,-0.0011019217831278252,-2.325591237606847e-05
-0.011240419379480514,-0.0011076903676928748,-2.3808315413773645e-05
-0.010653141404736352,-0.001113163757888929,-2.4363528945169095e-05
-0.010072691009726121,-0.0011183452159925446,-2.4921406188639463e-05
-0.009499647194848582,-0.0011232383005436882,-2.548180206777352e-05
-0.008934559372348203,-0.0011278468521854874,-2.6044573355955815e-05
-0.008377945014882439,-0.0011321749782822951,-2.660957881357276e-05
-0.007830287520267425,-0.0011362270364160827,-2.7176679317247354e-05
-0.007292034297266193,-0.0011400076168704661,-2.774573798056899e-05
-0.0067635950475926155,-0.0011435215242066809,-2.831662026583828e-05
-0.006245340195470374,-0.0011467737580174466,-2.888919408639431e-05
-0.0057375994033889354,-0.0011497694929171614,-2.9463329899127963e-05
-0.005240660113114385,-0.0011525140577962872,-3.0038900786806324e-05
-0.004754766065398047,-0.0011550129143409152,-3.0615782529840626e-05
-0.004280115780065096,-0.001157271634802281,-3.119385366712643e-05
-0.0038168610118963302,-0.0011592958790002713,-3.177299554557707e-05
-0.003365105224712637,-0.0011610913705594236,-3.235309235796699e-05
-0.002924902142993205,-0.0011626638724013501,-3.293403116870718e-05
-0.0024962544522486464,-0.0011640191615501607,-3.351570192719506e-05
-0.002079112725386632,-0.0011651630033445695,-3.4097997468418743e-05
-0.0016733746444698697,-0.0011661011251870336,-3.4680813500551644e-05
-0.001278884565046462,-0.0011668391899894127,-3.526404857934575e-05
-0.0008954334450821729,-0.0011673827694919448,-3.584760406921609e-05
-0.0005227591459947943,-0.001167737317639714,-3.643138409099901e-05
-0.00016054711202185688,-0.0011679081442042183,-3.701529545645999e-05
0.0001915685631188991,-0.001167900388841444,-3.7599247589721407e-05
0.0005340036762337836,-0.001167718995781606,-3.818315243587717e-05
0.0008672220630544977,-0.0011673686893467839,-3.876692435715927e-05
0.0011917333625382845,-0.0011668539504903856,-3.9350480017118564e-05
0.001508090405921973,-0.0011661789945482705,-3.993373825337823e-05
0.0018168862401000266,-0.001165347750386765,-4.0516619939611984e-05
0.0021187507997868795,-0.0011643638411267933,-4.109904783749037e-05
0.0024143472549352017,-0.0011632305666131127,-4.168094643942535e-05
0.0027043680780292003,-0.0011619508877798717,-4.226224180302359e-05
0.0029895308919265996,-0.0011605274130373827,-4.28428613782279e-05
0.0032705741614163595,-0.001158962386774047,-4.342273382818076e-05
0.003548252775696715,-0.0011572576800397687,-4.400178884488422e-05
0.0038233335390233836,-0.0011554147834610888,-4.457995696075943e-05
0.004096590550274158,-0.0011534348024387644,-4.5157169357234394e-05
0.0043688004180492904,-0.0011513184546966834,-4.5733357671518255e-05
0.004640737241666949,-0.0011490660702817544,-4.630845380276286e-05
0.004913167304504354,-0.0011466775941452116,-4.6882389718869605e-05
0.0051868434705333805,-0.0011441525914514521,-4.745509726526877e-05
0.00546249932545515,-0.001141490255752455,-4.802650797706975e-05
0.005740843142654099,-0.0011386894201354278,-4.859655289604172e-05
0.006022551778322146,-0.0011357485714051838,-4.916516239392687e-05
0.006308264614462581,-0.0011326658673069877,-4.9732266003604917e-05
0.0065985776753421455,-0.0011294391567345365,-5.0297792259615296e-05
0.006894038042091242,-0.0011260660028051782,-5.0861668549500224e-05
0.007195138680190867,-0.0011225437086246077,-5.142382097735767e-05
0.007502313773452955,-0.0011188693455111967,-5.198417424089162e-05
0.007815934627619744,-0.0011150397834109285,-5.2542651523122155e-05
0.008136306174540442,-0.0011110517232103885,-5.3099174399777485e-05
0.008463664082065447,-0.001106901730646237,-5.365366276324164e-05
0.008798172459540243,-0.0011025862715108358,-5.4206034763780913e-05
0.009139922146533124,-0.0010981017478593174,-5.475620676862345e-05
0.009488929583779494,-0.0010934445349267392,-5.530409333931997e-05
0.009845136283067735,-0.0010886110184600275,-5.584960722766666e-05
0.010208408924787806,-0.0010835976321580637,-5.6392659390321186e-05
0.01057854011076189,-0.0010784008948991762,-5.6933159022085497e-05
0.010955249788291984,-0.0010730174474244127,-5.747101360766639e-05
0.011338187345760432,-0.0010674440881408996,-5.800612899155772e-05
0.011726934364473088,-0.0010616778077133413,-5.853840946552128e-05
0.01212100799794575,-0.0010557158221227367,-5.90677578729803e-05
0.012519864942954225,-0.0010495556038875116,-5.959407572948286e-05
0.012922905968799697,-0.001043194911159573,-6.011726335824463e-05
0.013329480975980846,-0.0010366318144233778,-6.063722003964037e-05
0.01373889454717682,-0.0010298647205425884,-6.115384417338186e-05
0.014150411924744016,-0.0010228923939246083,-6.166703345199866e-05
0.014563265314132295,-0.0010157139746148891,-6.217668504413354e-05
0.014976660394403596,-0.001008328993187755,-6.26826957860842e-05
0.015389782920466817,-0.0010007373823590375,-6.31849623799709e-05
0.015801805313186285,-0.000992939485300624,-6.368338159688582e-05
0.016211893143483938,-0.0009849360606864566,-6.417785048338259e-05
0.01661921142866506,-0.0009767282845434193,-6.466826656969007e-05
0.017022930678426442,-0.0009683177490166463,-6.515452807808008e-05
0.017422232652664033,-0.0009597064581838737,-6.563653412988021e-05
0.01781631581760022,-0.0009508968210663076,-6.611418494969275e-05
0.01820440050576995,-0.000941891641985465,-6.65873820654557e-05
0.018585733795524414,-0.0009326941084101414,-6.70560285030546e-05
0.018959594125585042,-0.000923307776429864,-6.75200289742646e-05
0.019325295649849535,-0.0009137365539860054,-6.797929005686857e-05
0.01968219232025285,-0.0009039846819934797,-6.843372036586345e-05
0.02002968166881018,-0.000894056713496214,-6.888323071473587e-05
0.02036720825227233,-0.0008839574910159434,-6.932773426586391e-05
0.02069426672554897,-0.0008736921222714881,-6.976714666918577e-05
0.021010404518928865,-0.0008632659544603686,-7.020138618836873e-05
0.02131522410227675,-0.0008526845473050672,-7.063037381381009e-05
0.021608384821011718,-0.0008419536450742451,-7.105403336190491e-05
0.021889604280732732,-0.000831079147798809,-7.147229156012318e-05
0.022158659243476733,-0.0008200670819177566,-7.188507811755232e-05
0.02241538598716952,-0.000808923570610095,-7.229232578068428e-05
0.02265968007891207,-0.0007976548040935746,-7.26939703743602e-05
0.022891495525291787,-0.0007862670101925236,-7.308995082793172e-05
0.023110843285988773,-0.0007747664254897034,-7.348020918685228e-05
0.023317789165706662,-0.0007631592673767796,-7.38646906100689e-05
0.023512451129189843,-0.0007514517073030554,-7.424334335373886e-05
0.023694996109946773,-0.0007396498454932713,-7.461611874193795e-05
0.02386563640111504,-0.0007277596873655059,-7.498297112515265e-05
0.024024625726627523,-0.0007157871218335702,-7.534385782745241e-05
0.02417225509745834,-0.0007037379016275487,-7.569873908331769e-05
0.024308848564012248,-0.0006916176257121811,-7.604757796515262e-05
0.024434758974895655,-0.0006794317238274541,-7.639034030253754e-05
0.024550363833796274,-0.0006671854431252811,-7.672699459427572e-05
0.024656061308507202,-0.0006548838368397053,-7.705751191426698e-05
0.02475226640233149,-0.0006425317549119956,-7.73818658122049e-05
0.02483940726621663,-0.0006301338364948585,-7.770003221005661e-05
0.02491792161926599,-0.0006176945042734878,-7.801198929524869e-05
0.024988253249926432,-0.0006052179605561897,-7.83177174114561e-05
0.02505084857878866,-0.0005927081850990109,-7.861719894786991e-05
0.025106153270981202,-0.0005801689346365685,-7.89104182278038e-05
0.025154608892971768,-0.0005676037440955803,-7.919736139748684e-05
0.025196649615258214,-0.0005550159294685227,-7.947801631587786e-05
0.025232698965885297,-0.0005424085923232369,-7.97523724463258e-05
0.02526316663927998,-0.0005297846259219455,-8.00204207508871e-05
0.02528844536469856,-0.0005171467229209509,-8.028215358809782e-05
0.02530890784014863,-0.0005044973846197391,-8.0537564614983e-05
0.02532490373592872,-0.0004918389317257198,-8.078664869406936e-05
0.025336756765815507,-0.0004791735166002837,-8.102940180615086e-05
0.025344761822257394,-0.00046650313695326546,-8.126582096953925e-05
0.025349182183915513,-0.0004538296509517222,-8.14959041665155e-05
0.025350246826126813,-0.00044115479369921163,-8.171965027767823e-05
0.025348147884910986,-0.0004284801950214522,-8.193705902485839e-05
0.025343038334969238,-0.0004158073984664821,-8.214813092323037e-05
0.025335029944610357,-0.0004031378813965872,-8.235286724319613e-05
0.025324191572032327,-0.0003904730760174265,-8.255126998254964e-05
0.02531054786910187,-0.000377814391157143,-8.274334184934328e-05
0.02529407845854086,-0.00036516323457523234,-8.292908625577637e-05
0.025274717646973255,-0.0003525210355488538,-8.310850732330739e-05
0.025252354727443214,-0.0003398892674552497,-8.328160989905841e-05
0.025226834907935727,-0.00032726947004640494,-8.344839958343382e-05
0.02519796087850332,-0.0003146632710997952,-8.360888276872038e-05
0.025165495002322232,-0.0003020724071295888,-8.376306668827772e-05
0.025129162088721197,-0.00028949874285682793,-8.391095947577432e-05
0.025088652684110382,-0.00027694428916362,-8.405257023377943e-05
0.025043626804892576,-0.0002644112192913693,-8.418790911089317e-05
0.02499371803502842,-0.00025190188308138906,-8.431698738648636e-05
0.02493853791682896,-0.0002394188190934247,-8.443981756203006e-05
0.024877680575659762,-0.00022696476447030254,-8.4556413457921e-05
0.024810727536170134,-0.00021454266244234506,-8.466679031464917e-05
0.02473725270088128,-0.0002021556673830822,-8.477096489710552e-05
0.02465682746060797,-0.0001898071473427099,-8.486895560078698e-05
0.024569025891480707,-0.00017750068400468772,-8.496078255862383e-05
0.024473429977828875,-0.00016524007003736033,-8.504646774713435e-05
0.024369634793350956,-0.00015302930384456537,-8.512603509060483e-05
0.024257253575057085,-0.00014087258175246337,-8.519951056200409e-05
0.024135922632825678,-0.00012877428770049267,-8.526692227936733e-05
0.024005306048664535,-0.00011673898053012012,-8.532830059642498e-05
0.023865100127038505,-0.00010477137898619436,-8.538367818630406e-05
0.023715037554318998,-9.287634456585498e-05,-8.543309011719208e-05
0.023554891214421357,-8.105886237366989e-05,-8.547657391892696e-05
0.023384477599827484,-6.932402017010768e-05,-8.55141696395629e-05
0.02320365975700402,-5.7676985830899805e-05,-8.554591989106315e-05
0.023012349707879368,-4.612298346467896e-05,-8.557186988338704e-05
0.022810510292071706,-3.466726846469119e-05,-8.559206744636939e-05
0.02259815638227981,-2.3315101796103308e-05,-8.560656303893459e-05
0.022375355442651807,-1.2071723839870404e-05,-8.561540974534358e-05
0.022142227427102885,-9.423281224317306e-07,-8.561866325833417e-05
0.021898944045209045,1.0067964745646252e-05,-8.561638184917836e-05
0.021645727447722522,2.0954132618879145e-05,-8.560862632483723e-05
0.02138284839598688,3.17112765798065e-05,-8.559545997253757e-05
0.02111062397898655,4.233464467354986e-05,-8.557694849222422e-05
0.020829414931388346,5.281965440114358e-05,-8.555315991745555e-05
0.02053962259322005,6.316191378229568e-05,-8.55241645254097e-05
0.020241685546167433,7.335724081714255e-05,-8.549003473675984e-05
0.019936075965996232,8.340168119518347e-05,-8.545084500625676e-05
0.019623295741616444,9.329152412208663e-05,-8.540667170492744e-05
0.019303872423455787,0.00010302331616335469,-8.535759299485608e-05
0.01897835507091348,0.000112593873036947,-8.5303688697556e-05
0.01864731006448727,0.00012200028932079719,-8.524504015696655e-05
0.0183113169327889,0.00013123994607011624,-8.518173009811883e-05
0.017970964224418,0.00014031051635941797,-8.511384248251144e-05
0.017626845435314124,0.000149209968774351,-8.5041462361228e-05
0.01727955498653718,0.00015793656887981382,-8.496467572681446e-05
0.016929684240096627,0.00016648887868647228,-8.488356936492289e-05
0.01657781754664574,0.00017486575413315787,-8.479823070671798e-05
0.016224528336263675,0.00018306634060388522,-8.470874768303372e-05
0.015870375283245176,0.00019109006650876243,-8.461520858125555e-05
0.015515898590337978,0.00019893663497715824,-8.451770190588407e-05
0.015161616444660736,0.0002066060137359079,-8.441631624370581e-05
0.01480802169820488,0.00021409842327162432,-8.431114013445393e-05
0.014455578826492784,0.00022141432340279873,-8.420226194778533e-05
0.014104721224778514,0.00022855439841561656,-8.408976976733072e-05
0.013755848907911983,0.0002355195409487892,-8.397375128248962e-05
0.013409326676982872,0.0002423108348450129,-8.385429368854117e-05
0.013065482799477912,0.0002489295372141281,-8.373148359552638e-05
0.012724608228355179,0.00025537705997108636,-8.360540694623007e-05
0.012386956370010608,0.0002616549511206778,-8.347614894345713e-05
0.01205274340178118,0.00026776487606362576,-8.334379398666106e-05
0.011722149128630599,0.0002737085991962287,-8.32084256178461e-05
0.011395318352507415,0.0002794879660665132,-8.307012647653041e-05
0.011072362711321644,0.00028510488633247047,-8.292897826343066e-05
0.010753362932287255,0.0002905613177433727,-8.27850617124117e-05
0.010438371437318161,0.000295859251335774,-8.263845657014191e-05
0.010127415233629622,0.00030100069800351095,-8.248924158280709e-05
0.009820499016669747,0.0003059876765660858,-8.23374944891647e-05
0.009517608403552587,0.00031082220342114135,-8.218329201916789e-05
0.009218713208041516,0.00031550628382403986,-8.202670989735659e-05
0.008923770669302354,0.0003200419047933758,-8.186782285020224e-05
0.008632728557437259,0.0003244310296000607,-8.170670461660388e-05
0.00834552809647136,0.00032867559376353786,-8.154342796076298e-05
0.0080621066680446,0.0003327775024546668,-8.137806468670843e-05
0.007782400283498192,0.0003367386291925525,-8.121068565379663e-05
0.0075063458316518014,0.00034056081572134,-8.104136079256816e-05
0.007233883118712682,0.00034424587295893113,-8.08701591203981e-05
0.0069649567165063035,0.00034779558291773586,-8.069714875642893e-05
0.006699517631543127,0.0003512117015047482,-8.052239693532331e-05
0.0064375248058802905,0.00035449596211410407,-8.034597001941861e-05
0.006178946464167888,0.0003576500799316161,-8.016793350890717e-05
0.005923761325842101,0.0003606757568791186,-7.998835204970449e-05
0.005671959696953054,0.0003635746871348174,-7.9807289438701e-05
0.005423544436688163,0.00036634856316822767,-7.962480862612523e-05
0.005178531767690992,0.00036899908221932245,-7.944097171477834e-05
0.004936951881168124,0.0003715279531315372,-7.925583995594063e-05
0.004698849285504051,0.00037393690342320523,-7.906947374180194e-05
0.004464282860617645,0.00037622768645973565,-7.88819325943312e-05
0.004233325603256237,0.00037840208857570413,-7.869327515057234e-05
0.004006064069628843,0.0003804619359939254,-7.850355914442994e-05
0.0037825975311937187,0.00038240910139413105,-7.831284138508292e-05
0.0035630368561133507,0.0003842455099909578,-7.812117773223665e-05
0.0033475031207852346,0.00038597314498518246,-7.792862306849261e-05
0.003136125953108689,0.00038759405225365594,-7.77352312691829e-05
0.0029290416167248394,0.0003891103441461143,-7.754105517008295e-05
0.002726390861074946,0.0003905242022655642,-7.734614653348003e-05
0.0025283165794058363,0.00039183787912568444,-7.715055601313222e-05
0.0023349613293198158,0.00039305369860286586,-7.695433311870007e-05
0.002146464773564417,0.00039417405512858693,-7.675752618026721e-05
