frame_number,force
0,557.3278800000282
1,557.0880003124679
2,556.8601247496088
3,556.6548267772666
4,556.4800649783034
5,556.3404239763256
6,556.2368592644224
7,556.1669330735227
8,556.125465718133
9,556.1054912564015
10,556.0993834362894
11,556.0999978361065
12,556.1016665719231
13,556.1008985609469
14,556.0966859971508
15,556.0903883530002
16,556.0852430418882
17,556.0856168757257
18,556.0961481830003
19,556.1209301359188
20,556.1628588512866
21,556.2232301750631
22,556.3016253299943
23,556.3960781914809
24,556.5034704477267
25,556.6200630898454
26,556.7420464744043
27,556.8659831776633
28,556.9890448851506
29,557.109014896313
30,557.2241166284401
31,557.3327852101377
32,557.4334917623863
33,557.5246767983592
34,557.6047959922404
35,557.6724553849637
36,557.7266088963601
37,557.7667887750608
38,557.7933272152217
39,557.8075142520298
40,557.8116429470421
41,557.8089202978259
42,557.8032505487333
43,557.7989104391215
44,557.8001430737736
45,557.8107151599891
46,557.8335076821095
47,557.8702239344564
48,557.9212857180512
49,557.9859453959135
50,558.0625845192417
51,558.1491255765583
52,558.2434641868748
53,558.3438292400414
54,558.4489954386413
55,558.5583096108409
56,558.6715428889025
57,558.7886273822078
58,558.909360507178
59,559.0331538642248
60,559.1588698201027
61,559.2847455181266
62,559.4083779714348
63,559.5267543526282
64,559.6363504628096
65,559.7333507662964
66,559.8140293127582
67,559.8752719125182
68,559.9151483078815
69,559.9333955558914
70,559.9316763981157
71,559.9135349934851
72,559.8840610534879
73,559.8493468349035
74,559.8158522792153
75,559.7897879175039
76,559.7765993064364
77,559.780597601684
78,559.8047355286793
79,559.8504934182167
80,559.917830795602
81,560.005175212315
82,560.1094500667319
83,560.2261729799017
84,560.3496751391127
85,560.4734923494445
86,560.590951685707
87,560.6959183160731
88,560.7835895818585
89,560.851166034437
90,560.898227228561
91,560.9266960606753
92,560.940366776217
93,560.9440760235319
94,560.942688629903
95,560.9401159921734
96,560.9385668357693
97,560.9381641655228
98,560.9369788381406
99,560.9314499930258
100,560.9170967336555
101,560.8893804618997
102,560.8445585059484
103,560.7803842903676
104,560.696557968969
105,560.5948964021319
106,560.4792427741545
107,560.3551576142376
108,560.229435952727
109,560.1095015864736
110,560.0027450317631
111,559.9158828835707
112,559.8544056209192
113,559.8221494666806
114,559.8209995480693
115,559.850726068741
116,559.908965322501
117,559.9913639664115
118,560.0919002249589
119,560.203381704256
120,560.3180976290711
121,560.4285739445439
122,560.5283470923454
123,560.6126477063888
124,560.6788842244445
125,560.726846915706
126,560.7586085338916
127,560.7781574591714
128,560.7908380524583
129,560.8026829449493
130,560.8197151249982
131,560.8472859842684
132,560.889501813721
133,560.9487782071378
134,561.0255530453111
135,561.1181826820704
136,561.2230387257534
137,561.3348134130415
138,561.4470273235462
139,561.5527079245965
140,561.645173601474
141,561.7188280618517
142,561.7698507342676
143,561.7966626651156
144,561.8000705709433
145,561.7830563267348
146,561.7502603814122
147,561.7072589226738
148,561.6597396094894
149,561.6126695905575
150,561.5695567940643
151,561.531922487471
152,561.499091083394
153,561.4683471222144
154,561.4354356409241
155,561.395323502832
156,561.3431046684332
157,561.2749145778168
158,561.1887135620865
159,561.0848100600961
160,560.9660272571256
161,560.8374703530404
162,560.7059119707064
163,560.5788658131573
164,560.4634666268989
165,560.3653288615567
166,560.2876051905772
167,560.2304671395835
168,560.1911478517279
169,560.1645381541751
170,560.1441824003413
171,560.1234504657567
172,560.0966761638474
173,560.060100709298
174,560.0124981915187
175,559.9553907305823
176,559.8928078142121
177,559.8306149465492
178,559.7755189791021
179,559.7339276815644
180,559.7108728211575
181,559.7091868206691
182,559.729063036062
183,559.7680490231392
184,559.8214395171619
185,559.8829713450916
186,559.9456920619648
187,560.0028714811092
188,560.0488307335481
189,560.0795751660733
190,560.0931485434403
191,560.0896758934073
192,560.0711174793463
193,560.0408084973949
194,560.0028983345742
195,559.9618128752135
196,559.9218376178909
197,559.886870381615
198,559.8603362213439
199,559.8452087419275
200,559.8440587453435
201,559.8590629277969
202,559.891940212924
203,559.9438168489545
204,560.0150420382024
205,560.1049891741211
206,560.2118865241138
207,560.3327205445311
208,560.4632485937171
209,560.5981558865359
210,560.731389094106
211,560.8566752089217
212,560.9681794829578
213,561.0611901530314
214,561.1326792944901
215,561.1816091798302
216,561.208929719167
217,561.2173077510454
218,561.2106965236334
219,561.1938677889245
220,561.1719937873617
221,561.1503070045153
222,561.1338141213542
223,561.127021523487
224,561.1336455609908
225,561.1563136316121
226,561.1962935673569
227,561.2533099685988
228,561.3255093517457
229,561.4096129632778
230,561.501250334065
231,561.5954172588479
232,561.6869739821141
233,561.7711085635474
234,561.8437273496698
235,561.9017686630618
236,561.9434442481077
237,561.9683990898283
238,561.9777628279745
239,561.9740640290669
240,561.9610023811287
241,561.9431120562015
242,561.9253703717263
243,561.9127918456009
244,561.910021390652
245,561.9209366167244
246,561.948287343584
247,561.9934105635418
248,562.0560507723511
249,562.1343062172677
250,562.2247202114104
251,562.3225305175505
252,562.4220667890836
253,562.5172549982894
254,562.602171411574
255,562.6715949692559
256,562.721518785633
257,562.7495828810152
258,562.7553873816108
259,562.7406522018495
260,562.7092045229376
261,562.6667867566989
262,562.6206827121923
263,562.5791685705956
264,562.5508123852846
265,562.5436660882277
266,562.5644183343317
267,562.6176102973237
268,562.7050475651164
269,562.8255366486424
270,562.9750106128616
271,563.1470021420217
272,563.3333294297229
273,563.5248349044942
274,563.7120695270377
275,563.8859042259604
276,564.038111427088
277,564.1619565063822
278,564.2527881107633
279,564.3085655581871
280,564.3302387929002
281,564.3218951818674
282,564.2906025235687
283,564.2459185881811
284,564.1990966414395
285,564.1620635061252
286,564.1462683037754
287,564.1615113234582
288,564.2148778153503
289,564.3099149780942
290,564.4461826561596
291,564.6192649045574
292,564.8212575408941
293,565.0416708937884
294,565.26862849486
295,565.4902066866595
296,565.6957431545503
297,565.87694337547
298,566.0286377006624
299,566.1490904614142
300,566.2398298910831
301,566.3050442259015
302,566.3506657081017
303,566.383326142571
304,566.4093936283159
305,566.4342701324647
306,566.4620443768874
307,566.4954859632643
308,566.5362800784575
309,566.5853679850866
310,566.6432790310162
311,566.7103901184057
312,566.7870939030935
313,566.873879006662
314,566.9713272937602
315,567.080026872485
316,567.2003985663197
317,567.3324479275216
318,567.4754813729697
319,567.6278490927388
320,567.7867853460655
321,567.9484045626064
322,568.1078831257062
323,568.2598182666724
324,568.3987164944938
325,568.5195378505204
326,568.6182155565161
327,568.6920748893767
328,568.7400849226618
329,568.7629042975932
330,568.7627334163276
331,568.7430364458079
332,568.7082165717947
333,568.6633145431435
334,568.6137700304266
335,568.5652439072384
336,568.5234521731114
337,568.4939344866003
338,568.4816978163348
339,568.490731020358
340,568.5234475339621
341,568.5801558806174
342,568.6586715293995
343,568.7541631280585
344,568.8592730856857
345,568.9644919675429
346,569.058734839567
347,569.1300732038364
348,569.1665893589718
349,569.1573155365445
350,569.0932013167067
351,568.968032575719
352,568.7792086585229
353,568.528277416347
354,568.2211412196488
355,567.8678815427353
356,567.482191508601
357,567.0804492111205
358,566.6805159092929
359,566.3003927948905
360,565.9568905383177
361,565.6644481380663
362,565.4342029832089
363,565.2733833387779
364,565.1850679275867
365,565.1683262826069
366,565.2187129911879
367,565.3290384524364
368,565.4902878890805
369,565.6925322556589
370,565.9256890240462
371,566.1800425119745
372,566.4464991199965
373,566.7166118080834
374,566.9824480559331
375,567.2363925901816
376,567.4709772285183
377,567.6788232309395
378,567.8527639364645
379,567.9861785490529
380,568.0735104705143
381,568.1108824716306
382,568.0966854760708
383,568.0320226952681
384,567.920923770076
385,567.7702846489238
386,567.5895284571336
387,567.3900146623124
388,567.1842421878438
389,566.9848991395814
390,566.8038199043534
391,566.650929390251
392,566.5332813098296
393,566.4543187336827
394,566.4134836067366
395,566.4062669286722
396,566.4247238738375
397,566.4583935706846
398,566.4954935861922
399,566.5242329621423
400,566.5340973255013
401,566.5169732700259
402,566.4679862551449
403,566.3859450952763
404,566.2733323829668
405,566.1358473624455
406,565.9815755386944
407,565.8199101327692
408,565.660378178175
409,565.5115320909804
410,565.3800581137077
411,565.2702167334908
412,565.1836599979608
413,565.1195897513287
414,565.0751711516518
415,565.0461093597629
416,565.0273060669579
417,565.0135144354103
418,564.9999142697916
419,564.9825447640831
420,564.9585538184126
421,564.9262474252307
422,564.8849603166019
423,564.8348163012545
424,564.7764732202852
425,564.7109313338746
426,564.6394385454215
427,564.5634792259326
428,564.4848017292425
429,564.4054277193202
430,564.3275946391507
431,564.2536068508641
432,564.1856045671088
433,564.1252963163533
434,564.0737288333737
435,564.0311711583195
436,563.9971595321261
437,563.9706974595973
438,563.9505539579702
439,563.9355737271345
440,563.9249139957635
441,563.9181469068245
442,563.9152065465646
443,563.9162191795747
444,563.9213195438352
445,563.9305738390797
446,563.9440633326321
447,563.9620687579129
448,563.985221014888
449,564.0144989871175
450,564.0510402214571
451,564.0958227850517
452,564.1493225169529
453,564.2112398478307
454,564.280356016022
455,564.3545482734983
456,564.4309682085114
457,564.5063604704364
458,564.5774749909478
459,564.6415062898799
460,564.6964750904027
461,564.741460295133
462,564.7766172425706
463,564.8029837228178
464,564.8221398958866
465,564.8358078024711
466,564.8454527090562
467,564.8519258986646
468,564.8551953430283
469,564.8542318559428
470,564.847120106948
471,564.8314253651104
472,564.8047748668678
473,564.7655385683892
474,564.7134489582678
475,564.6499964239918
476,564.5784770333178
477,564.5036498780872
478,564.43106306072
479,564.3661958350168
480,564.3136046561401
481,564.2762413158327
482,564.2550502622715
483,564.2488823567389
484,564.254709184669
485,564.2680924616212
486,564.2838448987511
487,564.296794287771
488,564.3025309445354
489,564.2980035993332
490,564.2818549609974
491,564.2544526455814
492,564.2176438713018
493,564.1743132750098
494,564.1278436307018
495,564.0815765216395
496,564.0383503913259
497,564.0001604378057
498,563.9679529646176
499,563.941556321054
500,563.9197596301019
501,563.900549604516
502,563.8814815529624
503,563.8601072018474
504,563.834350868627
505,563.8027443570164
506,563.7644853062785
507,563.719337669308
508,563.6674274202547
509,563.6090050219652
510,563.5442546824187
511,563.4732251356904
512,563.3959273103956
513,563.3125896455592
514,563.2240010594936
515,563.131830968174
516,563.0388096802445
517,562.9486826138368
518,562.8659104987998
519,562.7951559004994
520,562.7406486088548
521,562.7055417786875
522,562.6913605364157
523,562.6976240172995
524,562.7217031868043
525,562.7589542511396
526,562.8031329396845
527,562.847057243951
528,562.8834581423406
529,562.9059348829579
530,562.9099013897978
531,562.8933779165393
532,562.8574683837628
533,562.8063878932787
534,562.7469735633631
535,562.687717143375
536,562.6374715985187
537,562.6040628031512
538,562.5930492728997
539,562.606819653138
540,562.6441322916335
541,562.7001201134938
542,562.7667248777436
543,562.8334859907792
544,562.8885801729438
545,562.919983516437
546,562.9166154369185
547,562.8693383085102
548,562.7717240097711
549,562.6205419398593
550,562.415960694389
551,562.1614820129258
552,561.8636329183763
553,561.531431106878
554,561.1756351198967
555,560.8078252353318
556,560.4394230273107
557,560.0807933133638
558,559.7405473523913
559,559.4251072506072
560,559.1385435226061
561,558.882667862887
562,558.6573324178275
563,558.4608530057561
564,558.290456415114
565,558.1426658816508
566,558.013578417674
567,557.8990328601813
568,557.7946989460173
569,557.6961295955801
570,557.5988189081635
571,557.4983042135158
572,557.3903396690671
573,557.2711493116605
574,557.1377427561496
575,556.9882495251891
576,556.822201864386
577,556.6406847010466
578,556.446291263211
579,556.2428718597909
580,556.0351202212885
581,555.8280827639063
582,555.62668592013
583,555.4353535817104
584,555.2577446948654
585,555.0966036598427
586,554.9537032508765
587,554.8298718624773
588,554.725110509044
589,554.6387933161856
590,554.5699076810195
591,554.517255125752
592,554.4795307581965
593,554.4552358597633
594,554.4424421099526
595,554.4384948457147
596,554.4397852498033
597,554.4417076933569
598,554.4388498312424
599,554.4253819035376
600,554.3955645029919
601,554.344291307996
602,554.2676043596788
603,554.1631394713851
604,554.0304646612935
605,553.8712694038223
606,553.6893658584263
607,553.4904905694189
608,553.2819393359619
609,553.0720994366907
610,552.869938265598
611,552.6844745465019
612,552.5242294433021
613,552.3966557978032
614,552.3075779420783
615,552.2607175509572
616,552.2573904918282
617,552.2964166254136
618,552.3742229696007
619,552.4850919512334
620,552.6215228673874
621,552.7747064877138
622,552.9351222920712
623,553.0932352758566
624,553.2402124357346
625,553.3685492052974
626,553.4725253873538
627,553.5484710390938
628,553.5948621988372
629,553.6122666554278
630,553.6031473825038
631,553.5715351598386
632,553.522603506093
633,553.4621970987464
634,553.39636193436
635,553.3309072713149
636,553.2710175866546
637,553.2209380204354
638,553.1837638608289
639,553.1613511946645
640,553.1543332209216
641,553.1622007309453
642,553.1834058409449
643,553.2154713107968
644,553.2551174305062
645,553.2984394178864
646,553.3411710362699
647,553.379052790059
648,553.4082874208204
649,553.4260182089326
650,553.4307278839793
651,553.4224527959266
652,553.4027429133708
653,553.3743565607622
654,553.3407392545247
655,553.305382326599
656,553.2711770946196
657,553.2398713515912
658,553.2117090955403
659,553.1853083459682
660,553.157805840201
661,553.1252580202855
662,553.0832358436646
663,553.0275081737367
664,552.9546939948948
665,552.8627813089405
666,552.7514516476615
667,552.6221939476548
668,552.4782207775551
669,552.3242117646683
670,552.1659150791118
671,552.0096467167477
672,551.8617395071776
673,551.7280052422608
674,551.6132808598994
675,551.5211269405419
676,551.4537177451998
677,551.4119013628846
678,551.3953497543574
679,551.4027086143407
680,551.4316998771085
681,551.479182072183
682,551.541199482665
683,551.6130533911324
684,551.6894259026752
685,551.76458503669
686,551.8326954679289
687,551.8882456227456
688,551.9265713832433
689,551.9444125070739
690,551.9403987563303
691,551.9153510054018
692,551.8723102550683
693,551.8162704148965
694,551.7536672398152
695,551.6917329495376
696,551.6378380101744
697,551.5989075216463
698,551.5809462728201
699,551.5886700240676
700,551.6252374937967
701,551.6920923812381
702,551.7889299101897
703,551.9137871676784
704,552.0632374688922
705,552.2326705333667
706,552.4166605801913
707,552.609431263369
708,552.8053980343178
709,552.9997251450153
710,553.1888150509258
711,553.370666196606
712,553.5450687136015
713,553.7136276179718
714,553.8796066977843
715,554.0475944583336
716,554.2230199746583
717,554.411578416946
718,554.6186414473555
719,554.8487209446873
720,555.1050357938661
721,555.3892136917503
722,555.7011500509547
723,556.0390405705996
724,556.3995939070415
725,556.7784113216176
726,557.1704915911494
727,557.5707876535224
728,557.9747206099688
729,558.3785613451765
730,558.7796201020027
731,559.1762265451406
732,559.567527478932
733,559.9531728220495
734,560.3329897328164
735,560.7067389635329
736,561.0740042865344
737,561.4342143112082
738,561.7867678306467
739,562.1312286168901
740,562.4675527851798
741,562.7963063814179
742,563.1188337503502
743,563.4373494299335
744,563.7549349918152
745,564.0754236137344
746,564.4031620289552
747,564.7426587866995
748,565.0981474979344
749,565.4731023673497
750,565.8697446029328
751,566.2885793741041
752,566.7280044406921
753,567.1840341719237
754,567.650189043982
755,568.117605923634
756,568.5754155082719
757,569.0114006949536
758,569.4128956730384
759,569.7678272150976
760,570.065763846996
761,570.2988403371734
762,570.4624528854151
763,570.5556546858355
764,570.5812157243612
765,570.5453484499636
766,570.4571442097542
767,570.3278077896391
768,570.169804103937
769,569.9960292800866
770,569.8190906964222
771,569.6507416657093
772,569.5014793304885
773,569.3802839078292
774,569.2944551123039
775,569.2494901581724
776,569.2489515228217
777,569.2942959063591
778,569.3846759601305
779,569.5167656921984
780,569.6846778312707
781,569.8800361573028
782,570.0922552836296
783,570.3090717027176
784,570.517345205462
785,570.704088120684
786,570.8575965938355
787,570.9685063934612
788,571.0306114821732
789,571.0413456277026
790,571.0018881901403
791,570.9168956681975
792,570.79389509803
793,570.6424157792178
794,570.4729745612813
795,570.2960547167909
796,570.1212182603792
797,569.9564558572581
798,569.8078135947936
799,569.6792734274625
800,569.5728319964287
801,569.4887184190934
802,569.4256993423803
803,569.3814330373295
804,569.352847792624
805,569.3365180906952
806,569.3289942175869
807,569.3270348323116
808,569.3277226944404
809,569.3284995539009
810,569.327195868345
811,569.3221192170415
812,569.3122047024145
813,569.2971631125306
814,569.2775336614659
815,569.2545708639102
816,569.2299484117385
817,569.2053177775647
818,569.1818028165601
819,569.1595398439075
820,569.1373704480632
821,569.1127523034904
822,569.0818958971989
823,569.0400973585198
824,568.9822224181189
825,568.9032806692578
826,568.7990026041658
827,568.6663152305056
828,568.5036350769009
829,568.3109593086153
830,568.0897958996701
831,567.8429916286851
832,567.5744940563834
833,567.2890570715907
834,566.9918973383094
835,566.6883294885876
836,566.3834307874664
837,566.0817895146503
838,565.7873652268479
839,565.5034442000634
840,565.2326405729673
841,564.9769015152824
842,564.7375168399502
843,564.5151679657178
844,564.3100432195224
845,564.122004097844
846,563.9507479940083
847,563.7959037625951
848,563.6570139417508
849,563.5333864255804
850,563.4238339593521
851,563.3263634414617
852,563.2379181873944
853,563.154287589904
854,563.0702598860661
855,562.9800204826868
856,562.8777286309312
857,562.7581624696932
858,562.6173087115972
859,562.4527903554674
860,562.2640759407099
861,562.0524793823546
862,561.821005194326
863,561.5740989115968
864,561.3173376829253
865,561.0570669762936
866,560.7999743304285
867,560.5525986209401
868,560.3208050010417
869,560.1092985276971
870,559.9212734479767
871,559.7582733282442
872,559.6202734988883
873,559.5059284920147
874,559.4128932084938
875,559.3381378502819
876,559.2782101641398
877,559.2294257718715
878,559.1879837117118
879,559.1500233087488
880,559.1116618447483
881,559.0690640234818
882,559.0185821680675
883,558.9569750036337
884,558.8816774452747
885,558.7910716872146
886,558.6847109318164
887,558.5634646420839
888,558.4295755719419
889,558.2866356580541
890,558.1394900532223
891,557.9940606906789
892,557.8570606763142
893,557.7355782113284
894,557.6365493847895
895,557.5661862766451
896,557.5294497794674
897,557.5296468601637
898,557.5682001944322
899,557.6445974515451
900,557.7564902040783
901,557.8998957393334
902,558.0694691152349
903,558.258839765162
904,558.4610184658543
905,558.6688735280818
906,558.8756619233442
907,559.0755809407103
908,559.264277755481
909,559.4392370475271
910,559.599981136782
911,559.748057284266
912,559.8868256954765
913,560.0210785454401
914,560.1565179815749
915,560.2991193567133
916,560.4544200904193
917,560.6268002085869
