frame_number,force
0,624.495970000044
1,624.6204136536229
2,624.7404780946042
3,624.8520651380933
4,624.9515692026363
5,625.0360013576001
6,625.1030654078814
7,625.1512423419056
8,625.1799084160672
9,625.1894644033121
10,625.1814216683309
11,625.1583872895587
12,625.1239139639218
13,625.0822212854889
14,625.0378367932802
15,624.9952312781289
16,624.9585214125159
17,624.9312826146574
18,624.9164729469262
19,624.9164371715124
20,624.9329443186087
21,624.9672078242766
22,625.0198475313354
23,625.0907760728322
24,625.1790147407726
25,625.2824627871738
26,625.3976708573728
27,625.5197045905271
28,625.642209467038
29,625.7577780347389
30,625.8586581658379
31,625.9377331707796
32,625.9895959712104
33,626.0114862354125
34,626.0038830455866
35,625.9706242013989
36,625.9185212809194
37,625.8565336692161
38,625.794642706412
39,625.7426149867255
40,625.7088464247079
41,625.6994393323223
42,625.717609451483
43,625.76346785698
44,625.8341720352605
45,625.9243926427247
46,626.0270124722617
47,626.1339685991816
48,626.2371549955162
49,626.3293047966877
50,626.4047663208978
51,626.4600875172072
52,626.4943406589717
53,626.509148602351
54,626.5084081048933
55,626.4977459386052
56,626.483786991601
57,626.4733435685876
58,626.4726395200956
59,626.486664418004
60,626.5187178566669
61,626.5701635537769
62,626.6403897588224
63,626.7269753189678
64,626.8260661837053
65,626.9329472069246
66,627.0427488363396
67,627.1511806905014
68,627.2551582956736
69,627.3531985149708
70,627.4455018814459
71,627.5337031010042
72,627.6203407138635
73,627.7081628887456
74,627.7994286757328
75,627.8953528377207
76,627.9957739719737
77,628.0990466406541
78,628.2021235220299
79,628.3008074820206
80,628.3901740948221
81,628.4651568625384
82,628.5212500077857
83,628.5552394831167
84,628.5658430834275
85,628.5541358201349
86,628.5236607085171
87,628.4801776724547
88,628.4310735182221
89,628.3845220054883
90,628.3485257601767
91,628.3299823475026
92,628.3338982380172
93,628.3628443524127
94,628.4167216548747
95,628.492874643666
96,628.5865345257301
97,628.6915052184426
98,628.8009651599496
99,628.908265478014
100,629.0076362213708
101,629.0947315376179
102,629.1669451720202
103,629.2234367192539
104,629.2648557810805
105,629.2928291852538
106,629.3093432088323
107,629.3161696143015
108,629.3144489084541
109,629.3044837631473
110,629.2857409005078
111,629.257026132128
112,629.2167810486658
113,629.1634447822397
114,629.0958317645172
115,629.0134905548683
116,628.9170107810253
117,628.8082282469503
118,628.6902602946756
119,628.5673099961741
120,628.4442247352847
121,628.3258759669058
122,628.216502183393
123,628.119175073847
124,628.0354990306461
125,627.9655768805991
126,627.9082123652347
127,627.8612819957201
128,627.8221881899818
129,627.7882993711493
130,627.7572895597649
131,627.7273057156157
132,627.696917965034
133,627.6648563390286
134,627.6296073927904
135,627.5890085005607
136,627.5399984792363
137,627.4786424904514
138,627.400466135612
139,627.3010502923914
140,627.1767848456334
141,627.0256549416379
142,626.8479206531401
143,626.6465462721508
144,626.4272581171895
145,626.1981783473075
146,625.9690807562257
147,625.7503961414543
148,625.5521282647941
149,625.382836571503
150,625.2488220233539
151,625.1536196474301
152,625.0978440170185
153,625.0793591651245
154,625.0936873827296
155,625.134562717772
156,625.194565783654
157,625.265806599663
158,625.340621702073
159,625.4122242799397
160,625.4752215917367
161,625.5259240061602
162,625.5624155762247
163,625.5844038748169
164,625.5928913281682
165,625.5897221424812
166,625.5770785799059
167,625.5570240302095
168,625.5311963454362
169,625.5007276601222
170,625.4664066757555
171,625.4290224200923
172,625.3897636788341
173,625.3505257359247
174,625.3140110451657
175,625.2835899846687
176,625.2629718970028
177,625.2557838476831
178,625.2651509876346
179,625.2933348256997
180,625.3414445141804
181,625.4092158901094
182,625.4948598283706
183,625.5950043431876
184,625.7047735670978
185,625.8180421549102
186,625.9278704947417
187,626.0270781555216
188,626.1088720592444
189,626.1674255836814
190,626.1983098442695
191,626.1987143086486
192,626.1674585865558
193,626.1048626002415
194,626.0125701728283
195,625.8934015528488
196,625.7512668261363
197,625.5911310828478
198,625.4189925715765
199,625.2418142693467
200,625.067341226307
201,624.9037545623981
202,624.7591609538102
203,624.640971107267
204,624.5552533871515
205,624.506153885729
206,624.49546663413
207,624.5224243843544
208,624.5837517509148
209,624.6739740716581
210,624.785922906594
211,624.9113454612761
212,625.0415232163175
213,625.1678334330823
214,625.2822312361203
215,625.377666780448
216,625.4484640583628
217,625.4906701877364
218,625.5023440555224
219,625.4837173855439
220,625.4371663182409
221,625.3669834287479
222,625.278996650715
223,625.180098759048
224,625.0777302861815
225,624.9793337293955
226,624.8917924993481
227,624.8208856386946
228,624.7708173509138
229,624.7439005682102
230,624.740463395402
231,624.7589982259445
232,624.796511787873
233,624.8489999549363
234,624.9119742162609
235,624.9809834828342
236,625.052081924776
237,625.1221911023342
238,625.1893094503243
239,625.2525456692134
240,625.3119868306155
241,625.3684384647548
242,625.4230855301802
243,625.4771281740225
244,625.5314508090247
245,625.5863828560035
246,625.6415973465062
247,625.6961692624262
248,625.7487870512491
249,625.7980820474114
250,625.8430039444548
251,625.8831312881944
252,625.9188012452688
253,625.9510021971149
254,625.9810703446431
255,626.0103073751535
256,626.0396511538596
257,626.0694865291606
258,626.0996080927549
259,626.1292819592978
260,626.1573314413275
261,626.1821987136321
262,626.2019894771804
263,626.2145493876728
264,626.2176155676192
265,626.2090397753796
266,626.1870369883354
267,626.1504106813135
268,626.0987333674548
269,626.0324820450238
270,625.9531247238616
271,625.8631336761331
272,625.7658845219643
273,625.6654131623933
274,625.5660506160032
275,625.4720057582297
276,625.3869785432039
277,625.3138625993455
278,625.2545646369824
279,625.2099413242504
280,625.1798284201137
281,625.1631205103486
282,625.1578691083026
283,625.1613983766716
284,625.1704661225384
285,625.1815002367529
286,625.1909117328813
287,625.195438875251
288,625.1924412611888
289,625.1800627819863
290,625.1572199484553
291,625.1234280657961
292,625.0785274003263
293,625.0223977209995
294,624.9547478842763
295,624.8750426752104
296,624.7825938403315
297,624.676806980663
298,624.5575411201801
299,624.4255029841142
300,624.2825748373521
301,624.1319744856618
302,623.9781685808038
303,623.8265045461543
304,623.6825937550324
305,623.551555930781
306,623.4372883475672
307,623.3419246888956
308,623.2655977750669
309,623.2065398648632
310,623.1614729304031
311,623.1261879090125
312,623.0961985985009
313,623.0673689394301
314,623.0364337355359
315,623.0013581938838
316,622.9615078967562
317,622.9176201557851
318,622.8715866318803
319,622.8260908480495
320,622.7841837980037
321,622.7488945774887
322,622.722944746271
323,622.708581651591
324,622.707497854526
325,622.7207823930955
326,622.7488596818798
327,622.7914059378897
328,622.8472740603108
329,622.9144819294736
330,622.9903091252256
331,623.0715072351387
332,623.1545811447078
333,623.2360697831399
334,623.3127653300083
335,623.3818594677481
336,623.4410607353409
337,623.4887397372637
338,623.5241115068407
339,623.5473951583868
340,623.559857848849
341,623.563677015118
342,623.5616232323441
343,623.5566370742807
344,623.5514077625999
345,623.5480417716464
346,623.5478573170632
347,623.5512948054484
348,623.5579132293002
349,623.5664464545522
350,623.5749170854602
351,623.5808364102481
352,623.5815264228436
353,623.5745622615793
354,623.5582679517842
355,623.5321469273741
356,623.4971211606728
357,623.4554942610824
358,623.4106297563359
359,623.3664139634388
360,623.3266203533072
361,623.2942989925688
362,623.271293462741
363,623.2579523311127
364,623.2530595093423
365,623.2539695582236
366,623.256914855177
367,623.2574499143716
368,623.250996139773
369,623.2334363654365
370,623.2016896375202
371,623.1541867123561
372,623.0911713670893
373,623.0147691107654
374,622.9287895500509
375,622.838259321708
376,622.748720759573
377,622.6653829859086
378,622.5922713661885
379,622.531557831545
380,622.4832346298531
381,622.445216147214
382,622.4138484827963
383,622.3847122724272
384,622.3535499781648
385,622.3171428734497
386,622.2739877030449
387,622.2246591965555
388,622.1717959532136
389,622.1197220440663
390,622.0737939835204
391,622.039603060657
392,622.0221540603306
393,622.02510911887
394,622.050161604615
395,622.0966032016944
396,622.1611593335374
397,622.2381629441824
398,622.3200835317143
399,622.3983353865386
400,622.464207603621
401,622.5097389225307
402,622.5284088967368
403,622.5155963769201
404,622.468822657458
405,622.3878254171585
406,622.2744990872444
407,622.132707236275
408,621.9679562783432
409,621.7869378096755
410,621.5969854822865
411,621.4055165386112
412,621.2195191285082
413,621.0451222831772
414,620.8872760221184
415,620.7495747944863
416,620.6342485002891
417,620.5423069616363
418,620.4737807742476
419,620.4279849847643
420,620.4037404841637
421,620.3995019518345
422,620.4133599811487
423,620.4429224907876
424,620.485132768216
425,620.5361222814748
426,620.5912025782516
427,620.645068710108
428,620.6922274936062
429,620.7275937039637
430,620.7471358780048
431,620.7484210244331
432,620.73091936882
433,620.695992868722
434,620.6465886266458
435,620.5867425465775
436,620.5210230651053
437,620.45400995829
438,620.3898490831073
439,620.3318874459326
440,620.2823868722177
441,620.242331411217
442,620.211367534185
443,620.187930100667
444,620.1695922117331
445,620.1536220263904
446,620.1376504073711
447,620.1202911328112
448,620.1015465245825
449,620.0828824482186
450,620.0669461628768
451,620.0569959597897
452,620.0561859811189
453,620.0668851395827
454,620.0901933783387
455,620.1257533403945
456,620.1718683797744
457,620.2258652666499
458,620.2845961579767
459,620.3449539931764
460,620.4042789871352
461,620.4605683510935
462,620.5124615545172
463,620.5590396369616
464,620.5995271710675
465,620.6330043237605
466,620.6582236128306
467,620.6735945834358
468,620.677358721367
469,620.6679250924177
470,620.6442836449679
471,620.6063838158549
472,620.5553776767301
473,620.4936713732077
474,620.4247844554765
475,620.3530614658915
476,620.2833003459235
477,620.2203600763327
478,620.1687991548343
479,620.1325907079804
480,620.1149591767604
481,620.1183701887719
482,620.1446640359981
483,620.1952621009851
484,620.2713274688241
485,620.3737664491313
486,620.503029688593
487,620.6587712169443
488,620.8394906875334
489,621.0422888009684
490,621.262823182699
491,621.4954934200174
492,621.733830037316
493,621.9710206279707
494,622.2004855876529
495,622.416420818504
496,622.6142421107559
497,622.7908778290436
498,622.9448689642197
499,623.0762686599893
500,623.1863838539974
501,623.2774391801696
502,623.3522442625398
503,623.4139155490774
504,623.4656656923731
505,623.5106454707277
506,623.5518124739913
507,623.5918077543661
508,623.6328394883865
509,623.6765872637427
510,623.7241428608193
511,623.7759973434627
512,623.8320764679253
513,623.8918170226035
514,623.9542666073368
515,624.0181854465854
516,624.082135201635
517,624.1445499898814
518,624.2037896237434
519,624.2581751739248
520,624.3060115032267
521,624.3456137214096
522,624.3753654324452
523,624.3938325956252
524,624.3999328995897
525,624.3931269503302
526,624.373572279856
527,624.342178418743
528,624.300527802066
529,624.2506766367442
530,624.1948963247468
531,624.1354340373522
532,624.0743609903709
533,624.013550554692
534,623.9547835556361
535,623.8999197844304
536,623.851037782365
537,623.8104610855637
538,623.7806427902835
539,623.7639246740096
540,623.7622004643661
541,623.7765180281735
542,623.8066793039218
543,623.8509345239527
544,623.9058907786368
545,623.9667353666958
546,624.0277987941166
547,624.0833747999498
548,624.1286287025646
549,624.1603984161052
550,624.1777217987642
551,624.1819862748403
552,624.1766749233868
553,624.1667665921394
554,624.1579175580011
555,624.1555861971276
556,624.1642511508878
557,624.186827587776
558,624.2243264124005
559,624.2757526347737
560,624.3382195934265
561,624.407261434936
562,624.4773343335924
563,624.542489260963
564,624.5971724192553
565,624.6370651794225
566,624.6598250629307
567,624.6655666353355
568,624.6569565843969
569,624.6388817255757
570,624.6177441496619
571,624.6005127008856
572,624.5937009354487
573,624.6024476612312
574,624.6298527803754
575,624.6766711128934
576,624.7413919291287
577,624.8206501559227
578,624.9098579045315
579,625.00392879228
580,625.09798324209
581,625.1879509242669
582,625.2710123255637
583,625.3458408748013
584,625.4126269731224
585,625.4728952491306
586,625.529162535528
587,625.5845089895298
588,625.6421380909027
589,625.7049888865752
590,625.7754430352564
591,625.8551411896314
592,625.9448955326416
593,626.0446724817452
594,626.1536282861507
595,626.2702033592748
596,626.3923010306661
597,626.5175701150529
598,626.6437685132877
599,626.769128631124
600,626.8926164447491
601,627.0140018156128
602,627.1337291620799
603,627.2526552777779
604,627.3717593423655
605,627.4919107585023
606,627.613727413518
607,627.7375083475258
608,627.863197449537
609,627.9903296557426
610,628.1179326975258
611,628.2444043307723
612,628.3674339550017
613,628.4840564395092
614,628.590898135494
615,628.6846083618559
616,628.762394112469
617,628.8225320727477
618,628.8647439476848
619,628.8903716014198
620,628.9023364622311
621,628.9048912675593
622,628.9031843710645
623,628.9026783790284
624,628.9084977757285
625,628.9248087756938
626,628.9543401437345
627,628.9981236931732
628,629.0554725810556
629,629.1241556010649
630,629.2007018694675
631,629.2807820742479
632,629.3596260691902
633,629.4324345039017
634,629.4947439651139
635,629.5427295392531
636,629.5734598121016
637,629.5851252363642
638,629.5772330371169
639,629.5507247466911
640,629.5079598577987
641,629.4525359301281
642,629.388967375172
643,629.3222902058085
644,629.2576698666633
645,629.2000565031099
646,629.1538809162641
647,629.1227571410467
648,629.1091764017863
649,629.1142264989361
650,629.1374142626928
651,629.1766739395702
652,629.2286004389254
653,629.2888725586357
654,629.3527653747876
655,629.4156264383452
656,629.4732178894409
657,629.5218868581403
658,629.5585850674875
659,629.5807939613462
660,629.5864254772233
661,629.5737686019205
662,629.5415384213827
663,629.4890520974725
664,629.4165029699824
665,629.3252449059396
666,629.2179680214134
667,629.0986707552987
668,628.9724030651755
669,628.8448293534949
670,628.7216978304638
671,628.6082985909163
672,628.5089659146645
673,628.4266555128689
674,628.3626211491655
675,628.316226538245
676,628.2849377598411
677,628.2645288671328
678,628.2494970216896
679,628.2336364835637
680,628.2106810655581
681,628.174908007435
682,628.1216138401469
683,628.0474276323812
684,627.9504986251397
685,627.830634889987
686,627.6894378295674
687,627.5303926569366
688,627.3588077078934
689,627.1815048911344
690,627.0062452530159
691,626.8409703903307
692,626.693000322282
693,626.5683381275823
694,626.471200171837
695,626.4038301797492
696,626.3665834688214
697,626.3582071282393
698,626.3762108822705
699,626.4172317900923
700,626.4773408802208
701,626.5522947851057
702,626.6377621218702
703,626.7295395053095
704,626.8237394546459
705,626.9169126713265
706,627.0060719580247
707,627.0886116771392
708,627.1621557096047
709,627.2243993549835
710,627.2730163894747
711,627.3056827511685
712,627.3202429691584
713,627.3150208055412
714,627.2892383258129
715,627.2434593243773
716,627.1799416146637
717,627.1027862304697
718,627.0177989201653
719,626.9320206367291
720,626.8529486707511
721,626.7875568497064
722,626.7412965091689
723,626.7172773653571
724,626.7157775213957
725,626.7341445966133
726,626.7670747399361
727,626.8072192743102
728,626.8460523044038
729,626.8749095667416
730,626.8860809244894
731,626.8738218211024
732,626.8351450298361
733,626.7702657810128
734,626.6826176906616
735,626.5784385133642
736,626.466013965121
737,626.3547251669526
738,626.254053615813
739,626.1726646455897
740,626.1176396607678
741,626.0938880657194
742,626.1037541964447
743,626.1468301436306
744,626.2199788721191
745,626.3175668678538
746,626.431902930691
747,626.5538632524723
748,626.6736428950258
749,626.7815342717151
750,626.8686309125573
751,626.927394515153
752,626.9520729552034
753,626.9389851743356
754,626.8866931437708
755,626.7960760988431
756,626.6703126683984
757,626.5147564436977
758,626.3366677046012
759,626.1447625774314
760,625.9485717808509
761,625.7576494075672
762,625.5807187726627
763,625.4248750176473
764,625.2949671796255
765,625.193246827864
766,625.1193155550187
767,625.0703607606636
768,625.0416455909349
769,625.0271983293893
770,625.0206172112315
771,625.0158749631552
772,625.0079902167148
773,624.9934472874394
774,624.9703012059591
775,624.9379925787615
776,624.8969820233716
777,624.8483488856956
778,624.7934601220046
779,624.7337314507095
780,624.6704357265703
781,624.6045040509806
782,624.5363058425403
783,624.4654484137046
784,624.3906730917574
785,624.3099296292115
786,624.2206783239443
787,624.1204009975166
788,624.0072184172369
789,623.8804549162317
790,623.7409963013308
791,623.5913506183323
792,623.4354033940857
793,623.2779255729625
794,623.1239382167837
795,622.9780638906756
796,622.8439888114058
797,622.7241190468876
798,622.6194599960796
799,622.5297056475522
800,622.4534972024948
801,622.3887918933691
802,622.3332682354516
803,622.2846863397223
804,622.2411295875146
805,622.2010836304572
806,622.163353423559
807,622.1268639479431
808,622.0904267828182
809,622.0525712244437
810,622.0115174379703
811,621.9653146750398
812,621.9121102500136
813,621.8504752359449
814,621.7796947294908
815,621.6999412449665
816,621.6122906209761
817,621.5185904351126
818,621.4212257015962
819,621.3228366763027
820,621.2260364374597
821,621.1331646662767
822,621.0461085668253
823,620.9662201479632
824,620.8943468893555
825,620.8309612420405
826,620.7763371472931
827,620.730705441228
828,620.6943361458127
829,620.6675283425557
830,620.6505155829944
831,620.6433137389372
832,620.6455542922213
833,620.6563502519869
834,620.6742247404306
835,620.697108686559
836,620.7224067832266
837,620.7471398944499
838,620.7681795676642
839,620.7825828822954
840,620.788008816378
841,620.7831531601304
842,620.7680954807809
843,620.7444386579291
844,620.7151605647073
845,620.684181612539
846,620.6557413463692
847,620.6337249258568
848,620.6210728347028
849,620.619370036464
850,620.6286695405533
851,620.647562402034
852,620.673459617624
853,620.7030120168181
854,620.7325744527645
855,620.758622800966
856,620.7780555108349
857,620.7883525380649
858,620.7876072992613
859,620.7744712596782
860,620.7480553767119
861,620.7078336117593
862,620.6535956294261
863,620.585487555762
864,620.504151541934
865,620.4109291792679
866,620.3080498577204
867,620.1987116307649
868,620.0869903142435
869,619.9775653146206
870,619.8753034425328
871,619.7847778585493
872,619.7098060638069
873,619.6530673685405
874,619.6158274169419
875,619.5977813571608
876,619.5970297785087
877,619.6101999767108
878,619.6327045844939
879,619.6591019287517
880,619.6835064425675
881,619.6999965885168
882,619.7029798936428
883,619.6875007313333
884,619.6495040064397
885,619.5860733764887
886,619.4956437392598
887,619.378169385396
888,619.2352301467268
889,619.0700690231662
890,618.887554310639
891,618.6940400744588
892,618.4970813959233
893,618.3049763249451
894,618.1261590140451
895,617.9685228837612
896,617.8387729525707
897,617.7418917702067
898,617.6807728689867
899,617.6560428033038
900,617.6660659957818
901,617.707111156894
902,617.7736522387761
903,617.8587754844812
904,617.9546640632577
905,618.0531328606834
906,618.1461872830068
907,618.2265768124375
908,618.2883053760402
909,618.3270539649976
910,618.3404743899525
911,618.3283289426953
912,618.2924748536243
913,618.2367114987997
914,618.166511033539
915,618.0886473926344
916,618.0107394839048
917,617.9407318690271
