acceleration,velocity,displacement
0.05191252499803473,0.0,0.0
0.04857861581930013,2.512278520433372e-05,6.2806963010834305e-09
0.04525253525241467,4.858057297226242e-05,2.4706535845232464e-08
0.041942061454421024,7.037922214897134e-05,5.4446484625540904e-08
0.03865487250505348,9.052845563883996e-05,9.467340407249372e-08
0.035398498386481285,0.00010904179836172364,1.4456596757263462e-07
0.03218027523088466,0.00012593649176606512,2.0331054010458182e-07
0.029007302379776813,0.00014123338616873048,2.701030095882807e-07
0.025886402674264102,0.00015495681243224072,3.441505592385235e-07
0.022824086277542576,0.00016713443467019238,4.246733710141318e-07
0.01982651823213174,0.00017779708579761095,5.109062511310827e-07
0.016899489887411932,0.00018697858782749688,6.021001695373596e-07
0.01404839429709894,0.0001947155588736246,6.9752370621264e-07
0.01127820566070946,0.0002010472088630767,7.964643981468153e-07
0.00859346284611548,0.00020601512598978294,8.982299818600302e-07
0.0059982569798479515,0.0002096630559462738,1.0021495273440443e-06
0.0034962230373106543,0.00021203667595056345,1.1075744603182537e-06
0.0010905353074916583,0.00021318336553676403,1.2138794706900856e-06
-0.0012160934583073833,0.0002131519759990601,1.3204633060740417e-06
-0.003421409468795042,0.00021199260026728449,1.4267494501406279e-06
-0.00552361218653096,0.000209756344853453,1.5321866864208122e-06
-0.007521345810830116,0.00020649510535411273,1.6362495489727037e-06
-0.009413688262726825,0.0002022613468357235,1.7384386620201628e-06
-0.011200137968208354,0.0001971078902779897,1.8382809712985911e-06
-0.012880598714368068,0.0001910877061073456,1.935329870394925e-06
-0.014455362837086734,0.0001842537157194819,2.029165225851632e-06
-0.015925092997962693,0.00017665860176071954,2.1193933052216822e-06
-0.017290802820292533,0.00016835462780615573,2.205646612613401e-06
-0.018553836666786207,0.00015939346793438603,2.2875836365485367e-06
-0.019715848842832846,0.00014982604655698126,2.3648885151713784e-06
-0.02077878249407561,0.00013970238872275414,2.437270623991312e-06
-0.02174484843721148,0.00012907148098993237,2.5044640914194835e-06
-0.022616504119540654,0.00011798114285074433,2.566227247379653e-06
-0.023396432846268196,0.00010647790860929211,2.622342010244662e-06
-0.024087523350075243,9.460691956020626e-05,2.6726132172870366e-06
-0.024692849717036374,8.241182629342835e-05,2.7168679037504453e-06
-0.025215651639208338,6.993470095436718e-05,2.754954535562394e-06
-0.025659314942845703,5.721595930885367e-05,2.786742200628199e-06
-0.026027352339023438,4.429429248838638e-05,2.812119763577509e-06
-0.02632338435407204,3.1206608315112515e-05,2.830994988778384e-06
-0.026551120420821823,1.798798212138905e-05,2.8432936363875093e-06
-0.026714340151299292,4.67161697835877e-06,2.848958536162446e-06
-0.026816874861739167,-8.711186774900845e-06,2.847948643713311e-06
-0.02686258946659496,-2.2131052856984376e-05,2.8402380838053396e-06
-0.026855364887386348,-3.5560541445479704e-05,2.8258151852297234e-06
-0.026799081129707032,-4.897415294975305e-05,2.8046815116309154e-06
-0.02669760116950723,-6.234832352455661e-05,2.776850892512338e-06
-0.026554755772380506,-7.566141276002854e-05,2.7423484584411917e-06
-0.02637432936515649,-8.889368404441279e-05,2.7012096842400814e-06
-0.026160047085261796,-0.00010202727815701736,2.653479443689724e-06
-0.025915563124904697,-0.00011504618070955898,2.5992110789730797e-06
-0.025644450448786566,-0.0001279361841029818,2.5384654877699447e-06
-0.025350191910352943,-0.00014068484469276666,2.4713102305710074e-06
-0.02503617274795347,-0.00015328143585734326,2.3978186604334798e-06
-0.024705674413994,-0.00016571689764783011,2.3180690770571864e-06
-0.0243618696621476,-0.00017798378366686552,2.2321439067285127e-06
-0.02400781878009614,-0.00019007620577742647,2.1401289093674397e-06
-0.023646466816350183,-0.00020198977717653804,2.0421124136289486e-06
-0.02328064162229714,-0.0002137215542861999,1.9381845807632642e-06
-0.02291305251963139,-0.00022526997782168202,1.8284366977362937e-06
-0.022546289407433265,-0.0002366348133034482,1.7129604999550111e-06
-0.022182822136729126,-0.0002478170911894888,1.591847523831777e-06
-0.021824999997488697,-0.00025881904672304327,1.465188489353644e-06
-0.021475051183606906,-0.0002696440595183172,1.3330727127933039e-06
-0.02113508213017331,-0.0002802965928467622,1.1955875497020341e-06
-0.0208070766542377,-0.000290782132542865,1.0528178683546272e-06
-0.020492894868496682,-0.00030110712542354856,9.048455538630238e-07
-0.020194271868480745,-0.00031127891710779293,7.517490432301885e-07
-0.019912816210941233,-0.0003213056891276484,5.936028916713282e-07
-0.019650008202755278,-0.00033119639523107255,4.304773705816479e-07
-0.019407198012382193,-0.00034096069678485693,2.6243809757766556e-07
-0.01918560361053495,-0.00035060889719058623,8.954569908380474e-08
-0.018986308549802388,-0.00036015187523067056,-8.814449402150947e-08
-0.018810259605444652,-0.00036960101726948234,-2.705827171465477e-07
-0.018658264315708266,-0.00037896814824977057,-4.5772500852636094e-07
-0.01853098847124173,-0.00038826546144650806,-6.495334109504306e-07
-0.018428953610179034,-0.00039750544696686324,-8.459761380537734e-07
-0.018352534586152585,-0.0004067008190159462,-1.0470277045494758e-06
-0.018301957288375376,-0.00041586444198457817,-1.2526690197996068e-06
-0.01827729659377251,-0.00042500925545511513,-1.4628874441595302e-06
-0.01827847461902806,-0.0004341481982583153,-1.6776768075878878e-06
-0.018305259328048717,-0.00044329413174508446,-1.8970373900887378e-06
-0.018357263548556796,-0.00045245976246423584,-2.120975863641068e-06
-0.01843394445767369,-0.00046165756446579347,-2.3495051953735754e-06
-0.018534603602415885,-0.00047089970148081586,-2.582644511860228e-06
-0.018658387525432946,-0.00048019794926277805,-2.8204189245461264e-06
-0.01880428907099325,-0.0004895636184118846,-3.062859316464792e-06
-0.01897114944559184,-0.0004990074780410308,-3.310002090578021e-06
-0.019157661091519788,-0.0005085396806753087,-3.561888880257106e-06
-0.01936237140095635,-0.0005181696887984277,-3.81856622262554e-06
-0.01958368726439641,-0.0005279062034647658,-4.080085195691338e-06
-0.01981988042259149,-0.0005377570953865129,-4.346501020404158e-06
-0.020069093581575492,-0.0005477293388875546,-4.617872628972675e-06
-0.020329347255452993,-0.0005578289490968117,-4.894262200968766e-06
-0.02059854731323315,-0.0005680609227389832,-5.175734668927715e-06
-0.020874493212548043,-0.0005784291828704285,-5.462357195330068e-06
-0.021154886901719856,-0.0005889365278989955,-5.754198623022424e-06
-0.021437342369697424,-0.0005995845852168498,-6.051328901301385e-06
-0.021719395828969906,-0.0006103737697665167,-6.353818490047226e-06
-0.021998516533384842,-0.0006213032478571054,-6.661737744453132e-06
-0.022272118257498193,-0.0006323709065548262,-6.975156283056115e-06
-0.022537571483037838,-0.0006435733289899602,-7.294142341942311e-06
-0.022792216336488636,-0.0006549057759448418,-7.6187621181760116e-06
-0.02303337629961581,-0.0006663621741038679,-7.94907910568819e-06
-0.02325837268550329,-0.0006779351113501477,-8.285153427051694e-06
-0.023464539846763968,-0.0006896158394832145,-8.627041164760034e-06
-0.023649241059938264,-0.00070139428470989,-8.97479369580831e-06
-0.023809885007409052,-0.0007132590662267268,-9.328457033542464e-06
-0.023943942755414893,-0.0007251975231674328,-9.688071180891003e-06
-0.024048965104612054,-0.0007371957501324395,-1.0053669499215971e-05
-0.02412260016474711,-0.0007492386414497793,-1.0425278097111526e-05
-0.024162610974739138,-0.0007613099442346509,-1.0802915243532634e-05
-0.024166892961151664,-0.0007733923202186237,-1.1186590809645953e-05
-0.024133491016655177,-0.0007854674162130754,-1.1576305743753878e-05
-0.02406061599157009,-0.0007975159429651317,-1.1972051583548429e-05
-0.023946660414224732,-0.0008095177620665805,-1.2373810009806357e-05
-0.02379021327116311,-0.0008214519804879275,-1.2781552445444984e-05
-0.023590073678028053,-0.0008332970522252252,-1.3195239703623273e-05
-0.023345263265145057,-0.0008450308864610185,-1.3614821688294834e-05
-0.023055037104943592,-0.0008566309615535406,-1.4040237150298474e-05
-0.022718893025223837,-0.0008680744440860825,-1.447141350170838e-05
-0.022336579170992528,-0.0008793383121351365,-1.4908266690763684e-05
-0.02190809968693816,-0.0008903994818496192,-1.535070113925987e-05
-0.02143371839486383,-0.0009012349363700697,-1.5798609743814792e-05
-0.020913960346202663,-0.0009118218560553364,-1.6251873941921145e-05
-0.02034961115213504,-0.0009221377489299207,-1.671036384316746e-05
-0.019741714037801877,-0.000932160580227405,-1.717393842545679e-05
-0.019091564620541523,-0.0009418688998919908,-1.764244579548664e-05
-0.018400703456928468,-0.0009512419669113583,-1.8115723512187477e-05
-0.017670906440140462,-0.0009602598693856255,-1.8593598971261722e-05
-0.01690417317133181,-0.0009689036392884936,-1.907588984843025e-05
-0.016102713475251346,-0.0009771553609501393,-1.956240459848991e-05
-0.01526893226189163,-0.000984998272384425,-2.0052943006823552e-05
-0.014405412941361169,-0.0009924168586852382,-2.054729678959097e-05
-0.013514899588348775,-0.0009993969368176658,-2.1045250238466693e-05
-0.012600278043345703,-0.0010059257312255894,-2.1546580905477506e-05
-0.01166455613868748,-0.0010119919397710976,-2.205106032322668e-05
-0.010710843243803541,-0.0010175857896167204,-2.255845475557363e-05
-0.009742329329821869,-0.0010226990827601268,-2.3068525973667842e-05
-0.008762263762163113,-0.0010273252310331231,-2.3581032052116153e-05
-0.007773934047996292,-0.0010314592804856629,-2.409572817999585e-05
-0.006780644789546827,-0.0010350979251950486,-2.461236748141603e-05
-0.005785697106577133,-0.0010382395106690796,-2.513070184038206e-05
-0.0047923687758943245,-0.0010408840271396973,-2.5650482724834254e-05
-0.0038038952942238413,-0.0010430330931572268,-2.6171462004908486e-05
-0.0028234520187497324,-0.0010446899299854703,-2.669339276069416e-05
-0.0018541374889650551,-0.001045859327362399,-2.7216030075031128e-05
-0.0008989579862404087,-0.0010465476012312003,-2.7739131807179527e-05
3.918665285237041e-05,-0.0010467625440645474,-2.8262459343503465e-05
0.0009575159777934856,-0.001046513368406886,-2.8785778321621322e-05
0.0018533806356470994,-0.0010458106442535258,-2.9308859324786426e-05
0.0027242728735210934,-0.0010446662308762338,-2.9831478543568866e-05
0.0035678358694917057,-0.0010430932036904806,-3.0353418402210545e-05
0.0043818719580063035,-0.001041105776733606,-3.087446814731657e-05
0.005164349843510623,-0.0010387192212832268,-3.139442439682078e-05
0.0059134109094299584,-0.0010359497810949916,-3.1913091647415335e-05
0.006627374721328587,-0.001032814584687302,-3.243028273886091e-05
0.007304743797294848,-0.0010293315550576462,-3.294581927379714e-05
0.00794420768673024,-0.00102551931718664,-3.345953199185821e-05
0.008544646370018966,-0.0010213971036724526,-3.397126109707298e-05
0.009105132965583013,-0.0010169846588385521,-3.448085653770073e-05
0.009624935701800903,-0.0010123021416717061,-3.4988178237828296e-05
0.010103519080883467,-0.001007370027976035,-3.549309628024023e-05
0.010540544143044894,-0.001002209012170053,-3.5995491040276755e-05
0.010935867742290311,-0.0009968399091987191,-3.649525327061895e-05
0.01128954076487125,-0.0009912835570719287,-3.699228413718661e-05
0.011601805242927218,-0.000985560720569979,-3.748649520659709e-05
0.01187309033108822,-0.0009796919966764753,-3.79778083859087e-05
0.01210400712720034,-0.0009736977223119031,-3.8466155815655796e-05
0.012295342337224098,-0.000967597884945797,-3.895147971747022e-05
0.01244805081034527,-0.0009614120366589047,-3.94337321978714e-05
0.01256324699846846,-0.0009551592122067012,-3.99128750100878e-05
0.012642195415082578,-0.0009488578516033135,-4.0388879276040304e-05
0.012686300176865128,-0.0009425257277053266,-4.086172517086746e-05
0.012697093714764346,-0.0009361798792324193,-4.13314015726019e-05
0.012676224751530709,-0.0009298365496158455,-4.179790567981397e-05
0.012625445661799127,-0.000923511132012513,-4.226124260022106e-05
0.012546599348350571,-0.0009172181207599756,-4.272142491341418e-05
0.012441605771481656,-0.0009109710694800176,-4.317847221097418e-05
0.012312448254137399,-0.0009047825559736128,-4.363241061733759e-05
0.012161159666951523,-0.0008986641539933405,-4.408327229482933e-05
0.011989808592356056,-0.0008926264119285136,-4.4531094936309795e-05
0.011800485576657539,-0.0008866788383862603,-4.497592124888849e-05
0.011595289586025874,-0.0008808298945955894,-4.5417798432133955e-05
0.011376314775005445,-0.0008750869935053316,-4.585677765415918e-05
0.011145637664542789,-0.0008694565053954445,-4.629291352888438e-05
0.010905304828427541,-0.0008639437697722019,-4.672626359767629e-05
0.010657321204397023,-0.0008585531132639957,-4.715688781843534e-05
0.010403639163282711,-0.0008532878731720758,-4.7584848065044355e-05
0.010146148472404679,-0.0008481504262631539,-4.8010207639903165e-05
0.009886667277889607,-0.0008431422223255803,-4.843303080205035e-05
0.009626934210694382,-0.0008382638219534344,-4.885338231312011e-05
0.009368601692661729,-0.0008335149379775954,-4.927132700310286e-05
0.009113230480033164,-0.0008288944799344217,-4.968692935758087e-05
0.008862285438658166,-0.0008244006009547488,-5.010025312780316e-05
0.0086171325099324,-0.0008200307464676012,-5.051136096465875e-05
0.008379036807711683,-0.0008157817041381902,-5.0920314077310194e-05
0.00814916178139325,-0.000811649654490914,-5.132717191696747e-05
0.007928569376288079,-0.0008076302217014936,-5.173199188601557e-05
0.007718221109016668,-0.0008037185240801674,-5.2134829072460986e-05
0.007518979956847556,-0.0007999092238137014,-5.2535736009434454e-05
0.007331612950861977,-0.0007961965755867741,-5.293476245928457e-05
0.0071567943732177884,-0.0007925744737557541,-5.33319552216202e-05
0.0069951094819605845,-0.0007890364977919596,-5.372735796450713e-05
0.006847058705866459,-0.0007855759557450028,-5.412101107789137e-05
0.00671306225688297,-0.0007821859255043155,-5.45129515482037e-05
0.0065934651026631624,-0.000778859293664429,-5.490321285299588e-05
0.006488542233920448,-0.000775588791830283,-5.529182487436956e-05
0.006398504153310577,-0.0007723670302334753,-5.56788138298855e-05
0.006323502507218489,-0.000769186528568343,-5.6064202219585956e-05
0.006263635784164956,-0.0007660397439954971,-5.644800878772691e-05
0.006218955010894721,-0.0007629190962967321,-5.683024849779997e-05
0.00618946937791373,-0.00075981699019953,-5.7210932519424034e-05
0.006175151716056108,-0.0007567258349260375,-5.759006822570543e-05
0.006175943738089129,-0.0007536380610625011,-5.7967659199702564e-05
0.006191760970422889,-0.0007505461348853731,-5.834370524868953e-05
0.006222497327972837,-0.0007474425703107742,-5.871820242498857e-05
0.006268029312571384,-0.0007443199386506381,-5.9091143052228924e-05
0.006328219827407917,-0.0007411708763656433,-5.9462515755982994e-05
0.006402921599831664,-0.0007379880910088335,-5.983230549782661e-05
0.006491980207269724,-0.0007347643655570581,-6.0200493611968085e-05
0.006595236712321483,-0.0007314925613271602,-6.056705784368914e-05
0.006712529921149562,-0.0007281656196687925,-6.093197238893813e-05
0.0068436982671773285,-0.0007247765626217108,-6.129520793451076e-05
0.006988581291115803,-0.0007213184927321375,-6.165673169834922e-05
0.007147020661282478,-0.000717784592244038,-6.201650746959325e-05
0.007318860678485088,-0.000714168121909096,-6.237449564813154e-05
0.007503948237880113,-0.0007104624196800048,-6.273065328352881e-05
0.007702132253680922,-0.0007066608995571145,-6.30849341133381e-05
0.007913262571033003,-0.000702757050850936,-6.343728860094011e-05
0.008137188393915428,-0.0006987444381096989,-6.378766397318027e-05
0.00837375626254617,-0.0006946167019455835,-6.41360042581941e-05
0.008622807621123878,-0.0006903675609746659,-6.448225032392416e-05
0.008884176017860724,-0.0006859908150649198,-6.482633991793406e-05
0.009157683972110855,-0.0006814803500674269,-6.516820770921715e-05
0.009443139541159079,-0.0006768301441891094,-6.550778533278128e-05
0.009740332635424698,-0.0006720342761449635,-6.584500143786479e-05
0.010049031163567698,-0.0006670869351952154,-6.617978174069983e-05
0.010368977121309034,-0.0006619824331239963,-6.651204908277963e-05
0.010699882750818419,-0.0006567152181559644,-6.684172349559962e-05
0.011041426883756781,-0.0006512798907473206,-6.716872227282544e-05
0.011393251547918435,-0.0006456712211394017,-6.749296005079712e-05
0.01175495887688755,-0.0006398841685332003,-6.781434889821526e-05
0.012126108322789675,-0.000633913901733281,-6.813279841578188e-05
0.012506214140732884,-0.0006277558211174003,-6.844821584649456e-05
0.01289474309704276,-0.0006214055818079564,-6.87605061972259e-05
0.013291112358268442,-0.0006148591179441286,-6.906957237216392e-05
0.013694687544272683,-0.0006081126679684933,-6.937531531864208e-05
0.014104780964428024,-0.0006011628008413181,-6.967763418584454e-05
0.014520650078637728,-0.0005940064430805516,-6.997642649682501e-05
0.014941496222211022,-0.0005866409065053395,-7.027158833422147e-05
0.015366463618771382,-0.0005790639165450938,-7.056301453998408e-05
0.0157946387014268,-0.0005712736409650442,-7.085059892936162e-05
0.016225049777586202,-0.000563268718845291,-7.11342345193142e-05
0.016656667098334556,-0.0005550482896263108,-7.14138137714321e-05
0.017088403413895257,-0.0005466120219982534,-7.168922884933824e-05
0.01751911510099151,-0.0005379601423695317,-7.196037189043019e-05
0.017947603937758263,-0.0005290934626098443,-7.222713529167504e-05
0.01837261958658323,-0.0005200134067287589,-7.248941200900969e-05
0.018792862828411017,-0.0005107220361250103,-7.274709586972313e-05
0.019206989573310167,-0.00050122207302458,-7.300008189701052e-05
0.019613615653364322,-0.0004915169217179114,-7.324826664569614e-05
0.02001132238473826,-0.0004816106872083858,-7.349154854792771e-05
0.020398662863967347,-0.00047150819089620936,-7.372982826745386e-05
0.020774168941809792,-0.00046121498294476507,-7.396300906091411e-05
0.02113635880191445,-0.000450737351008834,-7.419099714440251e-05
0.021483745061812963,-0.00044008232504290216,-7.441370206341544e-05
0.02181484330959651,-0.0004292576779500498,-7.463103706416368e-05
0.022128180992272754,-0.0004182719218745825,-7.484291946411983e-05
0.022422306579573767,-0.00040713429998162084,-7.504927101958388e-05
0.02269579893028757,-0.0003958547736041555,-7.525001828798033e-05
0.022947276778522707,-0.00038444400467695295,-7.544509298255061e-05
0.023175408237906054,-0.00037291333342284576,-7.563443231707556e-05
0.02337892020426729,-0.00036127475131230244,-7.581797933825934e-05
0.023556607530341764,-0.0003495408693786502,-7.599568324343208e-05
0.023707341848745508,-0.00033772488203387836,-7.616749968128522e-05
0.023830079925506578,-0.00032584052659031534,-7.633339103344127e-05
0.023923871432541363,-0.00031390203875080337,-7.649332667477655e-05
0.023987866035059847,-0.00030192410438390307,-7.664728321056023e-05
0.024021319698277973,-0.0002899218079505686,-7.679524468864384e-05
0.024023600123129225,-0.0002779105779952168,-7.69372027851303e-05
0.023994191220781377,-0.0002659061301592392,-7.70731569621689e-05
0.023932696533874365,-0.0002539244082205752,-7.720311459676385e-05
0.02383884151695981,-0.00024198152370786668,-7.732709107974596e-05
0.023712474607330163,-0.00023009369467679418,-7.744510988434212e-05
0.023553567048847382,-0.0002182771842627498,-7.7557202604077e-05
0.023362211467050968,-0.0002065482396337752,-7.766340896005113e-05
0.023138619228745442,-0.0001949230319598261,-7.776377677794953e-05
0.022883116652122032,-0.00018341759798960923,-7.785836193543689e-05
0.022596140160697088,-0.00017204778378640445,-7.79472282808809e-05
0.022278230493475583,-0.00016082919112286127,-7.803044752460822e-05
0.02193002609920312,-0.00014977712697469158,-7.81080991041326e-05
0.02155225585985544,-0.00013890655648492693,-7.81802700249975e-05
0.021145731306470204,-0.00012823205969334552,-7.824705467904208e-05
0.02071133850041621,-0.00011776779224162392,-7.830855464202583e-05
0.020250029745633155,-0.00010752745018011157,-7.836487845263126e-05
0.019762815271858986,-9.752423892573854e-05,-7.841614137490771e-05
