frame_number,force
0,880.4713838680452
1,880.4674314458989
2,880.463762920935
3,880.4603818937377
4,880.4572852064507
5,880.4544630759389
6,880.4518992961283
7,880.4495715091048
8,880.447451545407
9,880.4455058334898
10,880.4436958765822
11,880.4419787927225
12,880.44030791135
13,880.4386334179759
14,880.4369030372275
15,880.4350627438288
16,880.4330574910073
17,880.4308319465385
18,880.4283312277727
19,880.4255016277997
20,880.4222913249954
21,880.4186510677149
22,880.4145348254331
23,880.4099003976085
24,880.4047099720991
25,880.3989306259382
26,880.392534762615
27,880.3855004817287
28,880.3778118788135
29,880.369459274746
30,880.3604393750733
31,880.3507553599061
32,880.3404169049043
33,880.3294401335683
34,880.3178475008176
35,880.3056676080611
36,880.2929349509238
37,880.279689602284
38,880.2659768345058
39,880.2518466850464
40,880.2373534691928
41,880.2225552433109
42,880.207513222029
43,880.1922911530588
44,880.1769546538841
45,880.161570515575
46,880.1462059805292
47,880.1309280026668
48,880.1158025000595
49,880.1008936106734
50,880.0862629615938
51,880.0719689608376
52,880.0580661188062
53,880.0446044039828
54,880.0316286354321
55,880.0191779139855
56,880.0072850951145
57,879.9959763088195
58,879.9852705341415
59,879.9751792372374
60,879.9657060822925
61,879.9568467241241
62,879.9485886900177
63,879.9409113559608
64,879.9337860196051
65,879.927176069918
66,879.9210372520354
67,879.9153180249322
68,879.9099600085751
69,879.9048985158983
70,879.9000631636823
71,879.8953785560739
72,879.8907650351751
73,879.8861394938449
74,879.8814162455237
75,879.8765079446142
76,879.8713265493587
77,879.8657843174419
78,879.8597948225585
79,879.853273978136
80,879.8461410527027
81,879.8383196603852
82,879.8297387100498
83,879.8203332978148
84,879.8100455297078
85,879.7988252635273
86,879.786630761216
87,879.7734292451441
88,879.7591973534722
89,879.7439214911305
90,879.727598073789
91,879.7102336623519
92,879.6918449852868
93,879.6724588460598
94,879.6521119135697
95,879.6308503949514
96,879.6087295926754
97,879.5858133515147
98,879.5621734050625
99,879.537888634895
100,879.5130442573155
101,879.4877309531281
102,879.4620439558759
103,879.4360821137717
104,879.4099469397679
105,879.3837416626526
106,879.3575702903603
107,879.3315366955421
108,879.3057437326455
109,879.2802923947515
110,879.2552810172441
111,879.2308045345177
112,879.2069537954383
113,879.1838149425608
114,879.1614688587729
115,879.1399906833292
116,879.1194493976321
117,879.0999074797195
118,879.081420625243
119,879.0640375319291
120,879.0477997443393
121,879.0327415561452
122,879.0188899678841
123,879.0062646989829
124,878.9948782534627
125,878.9847360389026
126,878.9758365379014
127,878.968171530756
128,878.9617263676154
129,878.9564802877429
130,878.9524067824805
131,878.9494739974683
132,878.9476451695831
133,878.9468790953965
134,878.9471306299706
135,878.9483512159278
136,878.9504894420263
137,878.9534916282864
138,878.9573024321536
139,878.9618654684258
140,878.9671239353644
141,878.9730212402078
142,878.9795016180316
143,878.9865107376003
144,878.9939962865676
145,879.001908526775
146,879.0102008091421
147,879.0188300372208
148,879.0277570693669
149,879.0369470516358
150,879.0463696762004
151,879.0559993627696
152,879.0658153630469
153,879.0758017904728
154,879.0859475789806
155,879.0962463753517
156,879.1066963705067
157,879.1173000759811
158,879.1280640525697
159,879.1389985981227
160,879.1501174005967
161,879.161437161147
162,879.1729771911572
163,879.1847589872204
164,879.196805788893
165,879.2091421246063
166,879.2217933507969
167,879.2347851883089
168,879.2481432590322
169,879.2618926249064
170,879.2760573308373
171,879.2906599528467
172,879.3057211530943
173,879.3212592441358
174,879.3372897654708
175,879.353825075818
176,879.3708739647705
177,879.388441287769
178,879.406527628822
179,879.425128995888
180,879.4442365539031
181,879.4638363998839
182,879.4839093835363
183,879.5044309754531
184,879.5253711832335
185,879.5466945140429
186,879.5683599809465
187,879.5903211502333
188,879.6125262277624
189,879.6349181835905
190,879.6574349152693
191,879.6800094508201
192,879.7025701923802
193,879.7250412013028
194,879.7473425256044
195,879.7693905710636
196,879.7910985174482
197,879.8123767809462
198,879.8331335230139
199,879.8532752046019
200,879.8727071830574
201,879.8913343471105
202,879.9090617836367
203,879.9257954684892
204,879.9414429725368
205,879.9559141729849
206,879.9691219590283
207,879.9809829200915
208,879.9914180048331
209,880.0003531400015
210,880.0077197999511
211,880.013455519711
212,880.0175043465371
213,880.0198172267034
214,880.0203523260973
215,880.0190752852485
216,880.0159594114141
217,880.0109858115296
218,880.0041434699629
219,879.9954292746543
220,879.9848479952769
221,879.972412217781
222,879.9581422406853
223,879.9420659391118
224,879.9242186023648
225,879.9046427496844
226,879.8833879267953
227,879.8605104835942
228,879.8360733315085
229,879.8101456781845
230,879.782802737105
231,879.7541254101352
232,879.7241999417577
233,879.6931175448483
234,879.6609739991176
235,879.6278692245239
236,879.5939068326543
237,879.5591936587316
238,879.5238392754359
239,879.4879554877732
240,879.4516558067452
241,879.4150548991643
242,879.3782680117803
243,879.3414103697553
244,879.304596551788
245,879.2679398458804
246,879.2315515904323
247,879.1955405055886
248,879.1600120203568
249,879.1250676020062
250,879.0908040950414
251,879.0573130771754
252,879.0246802394114
253,878.9929847969586
254,878.962298937292
255,878.9326873109343
256,878.9042065693603
257,878.87690495315
258,878.850821932735
259,878.8259879041242
260,878.802423942512
261,878.7801416170505
262,878.7591428700598
263,878.7394199638487
264,878.7209554983926
265,878.7037225032348
266,878.6876846068261
267,878.6727962860278
268,878.6590031979127
269,878.6462425953262
270,878.634443826357
271,878.6235289156474
272,878.6134132228904
273,878.6040061715673
274,878.5952120390131
275,878.5869307971177
276,878.5790589916193
277,878.5714906474315
278,878.5641181880613
279,878.5568333587464
280,878.5495281447129
281,878.5420956769165
282,878.534431117485
283,878.5264325165405
284,878.5180016320479
285,878.5090447051704
286,878.4994731848477
287,878.4892043962906
288,878.4781621485295
289,878.46627727649
290,878.4534881138529
291,878.4397408944831
292,878.4249900823941
293,878.4091986324395
294,878.3923381851173
295,878.3743891984136
296,878.3553410179715
297,878.3351918848872
298,878.3139488784208
299,878.2916277892209
300,878.2682529182425
301,878.2438567980249
302,878.218479835856
303,878.1921698815318
304,878.1649817253608
305,878.1369765344625
306,878.1082212367603
307,878.0787878621238
308,878.048752849228
309,878.0181963254004
310,877.9872013654235
311,877.955853234735
312,877.9242386235791
313,877.8924448811314
314,877.8605592608045
315,877.8286681885822
316,877.7968565654163
317,877.7652071133156
318,877.7337997731547
319,877.7027111605915
320,877.6720140853004
321,877.6417771384231
322,877.6120643531576
323,877.5829349425535
324,877.5544431165422
325,877.5266379778509
326,877.4995634944404
327,877.4732585444071
328,877.4477570277734
329,877.4230880384442
330,877.3992760888902
331,877.3763413796361
332,877.3543001054248
333,877.3331647902157
334,877.3129446440286
335,877.293645935869
336,877.2752723782214
337,877.2578255193167
338,877.2413051390045
339,877.2257096427107
340,877.211036446599
341,877.1972823464479
342,877.1844438628665
343,877.1725175559035
344,877.1615003028879
345,877.1513895345423
346,877.1421834259453
347,877.1338810406924
348,877.1264824285274
349,877.1199886783352
350,877.1144019290548
351,877.1097253407428
352,877.1059630272637
353,877.103119951487
354,877.1012017836862
355,877.1002147243258
356,877.1001652938078
357,877.1010600935965
358,877.1029055443839
359,877.1057076069661
360,877.1094714906407
361,877.1142013526671
362,877.1198999909149
363,877.1265685308824
364,877.1342061087178
365,877.1428095536995
366,877.1523730755994
367,877.1628879632448
368,877.1743423003968
369,877.1867207045382
370,877.2000040939054
371,877.2141694881032
372,877.229189847784
373,877.2450339592039
374,877.2616663699353
375,877.2790473820438
376,877.2971331080565
377,877.3158755932357
378,877.3352230057139
379,877.3551198944579
380,877.3755075138529
381,877.3963242127147
382,877.4175058844879
383,877.4389864743184
384,877.4606985379237
385,877.4825738469398
386,877.5045440354014
387,877.5265412816659
388,877.5484990189392
389,877.5703526654285
390,877.5920403625438
391,877.6135037075138
392,877.6346884660645
393,877.6555452515483
394,877.6760301590828
395,877.6961053468054
396,877.7157395605794
397,877.7349086017481
398,877.753595738488
399,877.7717920601641
400,877.7894967723711
401,877.8067174291019
402,877.8234700977164
403,877.8397794518717
404,877.8556787874662
405,877.8712099569939
406,877.8864232184366
407,877.9013769961342
408,877.916137553177
409,877.930778577619
410,877.9453806877751
411,877.9600308645943
412,877.9748218207783
413,877.989851316338
414,878.0052214291001
415,878.0210377874039
416,878.0374087714615
417,878.0544446893434
418,878.0722569331091
419,878.0909571204211
420,878.1106562272907
421,878.1314637183422
422,878.1534866819787
423,878.176828978723
424,878.2015904111709
425,878.2278659232023
426,878.2557448348946
427,878.2853101186503
428,878.316637721334
429,878.3497959360309
430,878.3848448251587
431,878.4218356947172
432,878.4608106182973
433,878.5018020093485
434,878.544832240946
435,878.589913313758
436,878.6370465748726
437,878.6862224919461
438,878.7374204880616
439,878.7906088426497
440,878.8457446631367
441,878.9027739309519
442,878.9616316242572
443,879.0222419184519
444,879.0845184643791
445,879.1483647432327
446,879.2136744961713
447,879.2803322254022
448,879.3482137622285
449,879.4171868967359
450,879.4871120634923
451,879.5578430774295
452,879.6292279134957
453,879.7011095226457
454,879.7733266755823
455,879.8457148248556
456,879.9181069759517
457,879.9903345591202
458,880.0622282956462
459,880.1336190544863
460,880.2043386968384
461,880.2742209067859
462,880.34310200589
463,880.4108217490163
464,880.4772240979833
465,880.5421579687983
466,880.6054779476326
467,880.6670449707871
468,880.7267269646775
469,880.7843994427693
470,880.8399460570954
471,880.8932591024959
472,880.9442399719915
473,880.9927995617413
474,881.0388586238859
475,881.0823480651849
476,881.1232091887995
477,881.1613938763439
478,881.1968647079431
479,881.2295950195355
480,881.2595688984403
481,881.286781119278
482,881.3112370221683
483,881.3329523343109
484,881.3519529357432
485,881.3682745710752
486,881.3819625111531
487,881.3930711706683
488,881.4016636882367
489,881.4078114738317
490,881.4115937256445
491,881.4130969162672
492,881.4124142477656
493,881.409645076437
494,881.4048943096849
495,881.3982717788745
496,881.389891593361
497,881.379871482024
498,881.3683321290483
499,881.3553965101066
500,881.3411892338783
501,881.325835892498
502,881.3094624234473
503,881.2921944848345
504,881.2741568461588
505,881.2554727973412
506,881.2362635793666
507,881.2166478395992
508,881.1967411136252
509,881.1766553339421
510,881.1564983647064
511,881.1363735613203
512,881.1163793535719
513,881.0966088508255
514,881.077149467347
515,881.0580825658199
516,881.0394831179966
517,881.0214193830351
518,881.0039526056673
519,880.9871367375184
520,880.9710181857868
521,880.9556355944234
522,880.941019663846
523,880.9271930156262
524,880.9141701082045
525,880.9019572087703
526,880.8905524254852
527,880.8799458033504
528,880.8701194858936
529,880.8610479431691
530,880.8526982645593
531,880.8450305129821
532,880.8379981356103
533,880.8315484251405
534,880.825623025046
535,880.8201584721579
536,880.8150867703351
537,880.8103359897124
538,880.8058308868314
539,880.8014935416344
540,880.7972440078801
541,880.7930009740244
542,880.7886824315591
543,880.7842063464761
544,880.7794913270118
545,880.774457278548
546,880.7690260360137
547,880.763121965469
548,880.7566725285303
549,880.7496088046786
550,880.7418659670574
551,880.7333837076785
552,880.7241066087244
553,880.7139844580579
554,880.7029725087135
555,880.6910316833992
556,880.6781287256432
557,880.664236299607
558,880.6493330413435
559,880.6334035652932
560,880.6164384302997
561,880.5984340688833
562,880.5793926822087
563,880.559322101805
564,880.5382356182297
565,880.5161517767742
566,880.4930941408222
567,880.4690910241933
568,880.4441751946476
569,880.4183835516922
570,880.3917567826793
571,880.3643390016125
572,880.3361773753551
573,880.3073217424995
574,880.2778242310186
575,880.2477388817005
576,880.2171212849089
577,880.1860282379615
578,880.1545174292443
579,880.1226471535115
580,880.0904760610784
581,880.0580629418596
582,880.0254665433507
583,879.992745419602
584,879.9599578059698
585,879.9271615123907
586,879.8944138267448
587,879.8617714199042
588,879.829290245081
589,879.7970254256641
590,879.7650311274887
591,879.7333604130504
592,879.7020650765136
593,879.6711954598633
594,879.6408002525258
595,879.6109262785945
596,879.5816182762945
597,879.5529186733121
598,879.5248673603821
599,879.4975014654173
600,879.4708551314952
601,879.4449593029475
602,879.4198415238425
603,879.3955257529285
604,879.3720321995086
605,879.3493771855306
606,879.3275730394554
607,879.3066280268154
608,879.2865463210508
609,879.2673280165591
610,879.2489691841603
611,879.231461967575
612,879.2147947181883
613,879.1989521644106
614,879.1839156112973
615,879.1696631655568
616,879.156169980376
617,879.1434085136245
618,879.1313487924942
619,879.1199586780972
620,879.1092041249934
621,879.0990494326394
622,879.0894574878234
623,879.0803899988421
624,879.0718077232066
625,879.0636706910469
626,879.0559384262992
627,879.0485701674831
628,879.0415250898635
629,879.0347625314681
630,879.0282422266939
631,879.0219245520113
632,879.0157707873998
633,879.0097433946787
634,879.0038063111679
635,878.997925255156
636,878.9920680383942
637,878.9862048796558
638,878.9803087120755
639,878.974355475682
640,878.9683243853832
641,878.962198163709
642,878.9559632270988
643,878.9496098148167
644,878.943132051007
645,878.9365279329783
646,878.9297992421502
647,878.922951377631
648,878.915993115792
649,878.9089363023629
650,878.901795486309
651,878.8945875067894
652,878.8873310457511
653,878.8800461593947
654,878.872753801923
655,878.865475354331
656,878.8582321693403
657,878.8510451412218
658,878.8439343069059
659,878.8369184829737
660,878.8300149419413
661,878.8232391304463
662,878.8166044311538
663,878.8101219692004
664,878.8038004626026
665,878.7976461142362
666,878.7916625410088
667,878.785850734575
668,878.7802090481905
669,878.7747332058636
670,878.7694163317539
671,878.7642489991885
672,878.7592193000031
673,878.7543129365093
674,878.7495133401166
675,878.7448018219549
676,878.7401577610597
677,878.7355588342134
678,878.7309812884243
679,878.7264002529822
680,878.7217900839967
681,878.7171247309062
682,878.712378112108
683,878.7075244860332
684,878.7025388048248
685,878.6973970398038
686,878.6920764704267
687,878.686555930807
688,878.680816009632
689,878.6748392004167
690,878.668610000308
691,878.6621149580827
692,878.6553426754145
693,878.6482837685713
694,878.6409307993295
695,878.6332781841709
696,878.6253220904958
697,878.6170603280087
698,878.6084922425737
699,878.5996186185371
700,878.5904415938401
701,878.5809645903569
702,878.5711922599177
703,878.5611304446277
704,878.5507861486268
705,878.5401675174015
706,878.5292838201325
707,878.5181454305841
708,878.5067638029915
709,878.4951514407913
710,878.4833218570535
711,878.471289525893
712,878.4590698244525
713,878.4466789654382
714,878.4341339205247
715,878.4214523351503
716,878.4086524353147
717,878.3957529269846
718,878.382772888821
719,878.3697316592941
720,878.3566487196177
721,878.3435435740333
722,878.3304356289299
723,878.3173440722583
724,878.304287754406
725,878.2912850709104
726,878.2783538465834
727,878.2655112208533
728,878.2527735358472
729,878.2401562310675
730,878.2276737498651
731,878.2153394624567
732,878.2031656084304
733,878.1911632594058
734,878.1793423002441
735,878.1677114249851
736,878.1562781417415
737,878.1450487795406
738,878.134028489881
739,878.1232212365458
740,878.112629768884
741,878.1022555761746
742,878.0920988232451
743,878.0821582694136
744,878.0724311738128
745,878.0629131905062
746,878.053598256972
747,878.0444784800625
748,878.0355440249091
749,878.0267830140051
750,878.0181814446356
751,878.0097231321656
752,878.0013896848876
753,877.9931605141907
754,877.9850128822944
755,877.9769219885815
756,877.968861094511
757,877.9608016863025
758,877.9527136741599
759,877.9445656266317
760,877.936325038426
761,877.9279586295127
762,877.9194326727696
763,877.9107133467393
764,877.901767109105
765,877.8925610854455
766,877.8830634670896
767,877.8732439115422
768,877.8630739388245
769,877.8525273172404
770,877.8415804327819
771,877.8302126375959
772,877.8184065742959
773,877.8061484740437
774,877.7934284268271
775,877.7802406219935
776,877.7665835559854
777,877.7524602030071
778,877.7378781437061
779,877.7228496472322
780,877.7073917033132
781,877.6915260032757
782,877.6752788717641
783,877.658681153038
784,877.6417680561394
785,877.6245789619738
786,877.6071571934084
787,877.5895497481663
788,877.5718069944755
789,877.5539823310986
790,877.5361318155143
791,877.5183137657161
792,877.5005883421952
793,877.4830171173844
794,877.4656626400168
795,877.4485880013493
796,877.4318564093926
797,877.4155307766202
798,877.3996733260399
799,877.384345219534
800,877.3696062108767
801,877.3555143242529
802,877.3421255581928
803,877.3294936149888
804,877.3176696563745
805,877.3067020864755
806,877.2966363624845
807,877.2875148327848
808,877.2793766018816
809,877.2722574213205
810,877.2661896055109
811,877.2612019711935
812,877.25731979952
813,877.2545648203037
814,877.2529552187342
815,877.2525056656488
816,877.25322737328
817,877.255128178791
818,877.2582126572879
819,877.262482264486
820,877.2679355077283
821,877.2745681434143
822,877.2823733990126
823,877.2913422179761
824,877.3014635254667
825,877.3127245118501
826,877.3251109297194
827,877.3386073990058
828,877.3531977136992
829,877.368865143078
830,877.3855927201624
831,877.4033635101395
832,877.4221608517146
833,877.4419685648709
834,877.4627711195963
835,877.4845537618082
836,877.5073025947618
837,877.531004616352
838,877.5556477147904
839,877.5812206270607
840,877.6077128659883
841,877.6351146221131
842,877.663416645782
843,877.69261011368
844,877.7226864831997
845,877.7536373379346
846,877.785454227807
847,877.8181285073254
848,877.8516511748254
849,877.8860127145225
850,877.9212029423009
851,877.9572108557915
852,877.9940244894815
853,878.0316307760597
854,878.0700154154018
855,878.1091627523039
856,878.1490556635607
857,878.1896754545297
858,878.2310017649526
859,878.2730124833867
860,878.3156836691866
861,878.3589894808996
862,878.402902110467
863,878.4473917236113
864,878.4924264076344
865,878.5379721279066
866,878.5839926935035
867,878.6304497313969
868,878.6773026680253
869,878.7245087171946
870,878.7720228739803
871,878.8197979153639
872,878.867784409269
873,878.9159307341246
874,878.9641831113817
875,879.0124856540696
876,879.0607804352079
877,879.1090075797504
878,879.1571053822976
879,879.2050104508429
880,879.2526578755094
881,879.2999814209754
882,879.3469137411599
883,879.3933866137811
884,879.4393311909367
885,879.484678261084
886,879.5293585183914
887,879.5733028370518
888,879.6164425499871
889,879.6587097327633
890,879.70003749428
891,879.7403602760605
892,879.7796141618957
893,879.8177371991292
894,879.8546697319898
895,879.8903547462203
896,879.9247382227276
897,879.9577694957954
898,879.9894016090227
899,880.0195916608382
900,880.0483011318955
901,880.0754961882534
902,880.1011479559777
903,880.1252327642216
904,880.1477323548808
905,880.1686340573262
906,880.1879309262887
907,880.2056218400681
908,880.2217115553708
909,880.236210714529
910,880.2491358009382
911,880.2605090394828
912,880.2703582401854
913,880.2787165845264
914,880.2856223546348
915,880.2911186063419
916,880.2952527882825
917,880.2980763106613
