frame_number,force
0,880.4267685060969
1,880.4226912010654
2,880.4194055368362
3,880.4169094595431
4,880.4151885879492
5,880.4142164918484
6,880.4139550896408
7,880.4143551646831
8,880.415357001923
9,880.4168911455835
10,880.4188792754168
11,880.4212351943937
12,880.4238659161131
13,880.4266728367058
14,880.4295529736927
15,880.4324002529235
16,880.4351068246563
17,880.4375643913085
18,880.4396655316782
19,880.4413050080558
20,880.4423810427882
21,880.4427965499051
22,880.4424603064333
23,880.4412880479099
24,880.4392034735951
25,880.4361391487033
26,880.4320372934695
27,880.4268504521123
28,880.4205420383937
29,880.413086757473
30,880.4044709053974
31,880.3946925479738
32,880.3837615803368
33,880.3716996676991
34,880.3585400671144
35,880.3443273303136
36,880.3291168893518
37,880.3129745295425
38,880.2959757563939
39,880.2782050636486
40,880.2597551085233
41,880.2407257993654
42,880.2212233008656
43,880.201358962403
44,880.1812481760264
45,880.161009172524
46,880.1407617669938
47,880.1206260686902
48,880.1007211727617
49,880.0811638528759
50,880.0620672731444
51,880.0435397353071
52,880.025683473185
53,880.008593501675
54,879.9923565236394
55,879.9770498968518
56,879.9627406655227
57,879.9494846656717
58,879.9373257182931
59,879.926294927077
60,879.9164100983193
61,879.9076753000531
62,879.9000805750619
63,879.8936018180002
64,879.8882008214867
65,879.8838254916154
66,879.8804102306948
67,879.8778764834926
68,879.8761334415983
69,879.8750788981158
70,879.8746002426157
71,879.8745755857602
72,879.8748750045578
73,879.8753619007291
74,879.8758944641513
75,879.8763272309171
76,879.8765127224924
77,879.8763031491239
78,879.8755521567756
79,879.874116592824
80,879.8718582623748
81,879.8686456450375
82,879.8643555419707
83,879.8588746253092
84,879.8521008659864
85,879.8439448203228
86,879.834330760023
87,879.8231976341403
88,879.8104998548739
89,879.7962079015412
90,879.7803087384781
91,879.7628060427172
92,879.7437202365928
93,879.7230883201149
94,879.7009634989186
95,879.6774146062634
96,879.6525253223398
97,879.6263932010747
98,879.5991285225059
99,879.5708529952761
100,879.5416983372314
101,879.5118047629157
102,879.4813194065508
103,879.4503947085367
104,879.4191867918271
105,879.3878538513507
106,879.356554576218
107,879.3254466221262
108,879.2946851497695
109,879.2644214430721
110,879.234801618749
111,879.205965437029
112,879.1780452224468
113,879.1511649022931
114,879.125439167777
115,879.1009727597203
116,879.0778598775652
117,879.0561837078924
118,879.0360160664907
119,879.0174171466501
120,879.000435366201
121,878.9851073068133
122,878.9714577407607
123,878.959499742193
124,878.9492348814173
125,878.9406535012326
126,878.9337350739316
127,878.9284486367669
128,878.9247533029921
129,878.9225988445709
130,878.9219263407931
131,878.9226688851808
132,878.9247523430575
133,878.9280961549629
134,878.9326141851915
135,878.93821561708
136,878.9448058953749
137,878.9522877118038
138,878.9605620250068
139,878.969529102558
140,878.9790895722382
141,878.9891454712921
142,878.9996012838235
143,879.0103649558584
144,879.021348874997
145,879.0324707983519
146,879.0436547099015
147,879.0548315874294
148,879.0659400608473
149,879.0769269477745
150,879.0877476573999
151,879.0983664587637
152,879.1087566144467
153,879.1189003848132
154,879.1287889106842
155,879.1384219837987
156,879.1478077156986
157,879.156962117269
158,879.1659086024011
159,879.1746774290546
160,879.1833050890608
161,879.1918336552362
162,879.2003100924345
163,879.2087855392339
164,879.2173145683917
165,879.2259544351588
166,879.2347643217807
167,879.2438045844154
168,879.2531360064611
169,879.2628190605506
170,879.2729131802733
171,879.2834760421949
172,879.2945628593434
173,879.3062256887614
174,879.3185127570873
175,879.3314678089249
176,879.3451294832357
177,879.3595307236212
178,879.3746982294106
179,879.3906519555502
180,879.4074046695322
181,879.4249615726455
182,879.4433199910295
183,879.4624691395048
184,879.4823899578944
185,879.5030550161567
186,879.52442848251
187,879.5464661486969
188,879.5691155083458
189,879.5923158870079
190,879.6159986248871
191,879.6400873146936
192,879.6644980972443
193,879.6891400172115
194,879.7139154418329
195,879.738720546403
196,879.7634458708757
197,879.7879769512974
198,879.8121950282409
199,879.8359778320956
200,879.8592004419256
201,879.8817362110028
202,879.9034577488375
203,879.9242379468596
204,879.9439510326939
205,879.9624736359208
206,879.9796858462257
207,879.9954722432885
208,880.0097228775838
209,880.0223341830398
210,880.0332098058323
211,880.0422613376275
212,880.0494089455171
213,880.054581894371
214,880.0577189607836
215,880.0587687417146
216,880.0576898646949
217,880.0544511086488
218,880.049031444447
219,880.0414200034286
220,880.0316159820252
221,880.0196284918621
222,880.0054763664571
223,879.9891879366636
224,879.9708007864139
225,879.950361497771
226,879.9279253901317
227,879.9035562537038
228,879.8773260735995
229,879.849314738955
230,879.8196097311492
231,879.7883057857853
232,879.7555045243944
233,879.7213140537924
234,879.6858485333432
235,879.6492277125573
236,879.6115764426548
237,879.5730241649311
238,879.5337043757439
239,879.4937540639935
240,879.4533131139726
241,879.4125236655918
242,879.3715294255488
243,879.3304749266767
244,879.2895047371514
245,879.2487626245862
246,879.2083906814293
247,879.168528418613
248,879.1293118356341
249,879.0908724772977
250,879.0533364890027
251,879.0168236828368
252,878.9814466262745
253,878.9473097646713
254,878.9145085881162
255,878.8831288519447
256,878.8532458581158
257,878.8249238023499
258,878.7982151906144
259,878.7731603288657
260,878.7497868912162
261,878.7281095726771
262,878.7081298328694
263,878.6898357371515
264,878.6732019019898
265,878.6581895518979
266,878.6447466952063
267,878.6328084251885
268,878.6222973521457
269,878.613124170934
270,878.6051883660413
271,878.5983790521384
272,878.5925759431224
273,878.5876504382976
274,878.5834668106218
275,878.5798834785544
276,878.5767543404747
277,878.5739301497157
278,878.5712599095108
279,878.5685922702921
280,878.5657769152745
281,878.5626659221354
282,878.5591150882976
283,878.5549852061857
284,878.5501432747008
285,878.5444636346933
286,878.5378290185444
287,878.5301315057351
288,878.5212733770237
289,878.511167860335
290,878.4997397628307
291,878.4869259864405
292,878.4726759282356
293,878.456951771183
294,878.4397286729599
295,878.4209948593749
296,878.4007516254899
297,878.3790132434025
298,878.3558067714612
299,878.3311717561403
300,878.3051598167555
301,878.2778341059233
302,878.2492686441069
303,878.2195475326637
304,878.1887640554249
305,878.1570196834047
306,878.1244229997501
307,878.0910885620175
308,878.0571357170052
309,878.0226873807238
310,877.9878687934405
311,877.9528062586369
312,877.917625876879
313,877.8824522904195
314,877.8474074586765
315,877.8126094859789
316,877.7781715214187
317,877.7442007479228
318,877.7107974745635
319,877.6780543429799
320,877.6460556565427
321,877.6148768403873
322,877.584584040589
323,877.5552338691947
324,877.5268732979246
325,877.4995396988036
326,877.4732610261577
327,877.4480561311896
328,877.4239351974927
329,877.4009002837424
330,877.3789459584976
331,877.3580600112352
332,877.3382242234329
333,877.3194151841825
334,877.3016051366019
335,877.2847628438091
336,877.268854465752
337,877.2538444396799
338,877.2396963563538
339,877.226373821477
340,877.2138412891701
341,877.2020648531527
342,877.1910129815028
343,877.1806571817342
344,877.170972584444
345,877.1619384361372
346,877.1535384948282
347,877.145761325467
348,877.1386004959852
349,877.1320546778941
350,877.1261276566287
351,877.1208282561256
352,877.1161701805897
353,877.1121717751671
354,877.1088557068271
355,877.1062485676722
356,877.1043804055677
357,877.1032841905854
358,877.1029952281682
359,877.103550529908
360,877.1049881511145
361,877.1073465018494
362,877.1106636353105
363,877.114976515602
364,877.120320267835
365,877.1267274171345
366,877.1342271270324
367,877.1428444495518
368,877.1525995989513
369,877.1635072601532
370,877.1755759424432
371,877.1888073891478
372,877.2031960543634
373,877.2187286585835
374,877.2353838361015
375,877.2531318872379
376,877.2719346466422
377,877.2917454754669
378,877.3125093814772
379,877.3341632681575
380,877.3566363116828
381,877.3798504627903
382,877.4037210686381
383,877.4281576077207
384,877.4530645294933
385,877.4783421899623
386,877.5038878745114
387,877.5295968986042
388,877.5553637747677
389,877.5810834300893
390,877.6066524533258
391,877.6319703466672
392,877.6569407557487
393,877.6814726529127
394,877.7054814529232
395,877.7288900472352
396,877.7516297511369
397,877.773641164396
398,877.7948749477607
399,877.8152925152652
400,877.8348666387268
401,877.8535819581988
402,877.8714353904269
403,877.8884364261481
404,877.9046073066407
405,877.9199830703886
406,877.9346114619415
407,877.9485526973929
408,877.961879084829
409,877.9746745032744
410,877.9870337492863
411,877.9990617654888
412,878.0108727684234
413,878.0225892929404
414,878.0343411678273
415,878.0462644346824
416,878.0585002203535
417,878.0711935721203
418,878.0844922637731
419,878.0985455802668
420,878.1135030891414
421,878.1295134082823
422,878.1467229814878
423,878.1652748750271
424,878.1853076086941
425,878.206954033303
426,878.2303402642336
427,878.2555846788711
428,878.2827969844334
429,878.3120773604578
430,878.3435156766338
431,878.3771907829771
432,878.4131698672074
433,878.4515078741407
434,878.4922469835436
435,878.5354161460001
436,878.5810306804244
437,878.6290919406275
438,878.6795870604266
439,878.7324887869695
440,878.7877554108716
441,878.8453307999816
442,878.9051445413777
443,878.9671121938902
444,879.031135651503
445,879.0971036164302
446,879.1648921789872
447,879.2343654991704
448,879.3053765826323
449,879.3777681423601
450,879.4513735370048
451,879.5260177766249
452,879.6015185856645
453,879.6776875111669
454,879.7543310621211
455,879.8312518643932
456,879.908249815895
457,879.9851232289262
458,880.0616699505898
459,880.1376884566089
460,880.2129789171471
461,880.287344234411
462,880.3605910512731
463,880.4325307289818
464,880.5029802906098
465,880.5717633252154
466,880.6387108463881
467,880.7036620989559
468,880.7664653090363
469,880.826978374243
470,880.8850694920936
471,880.9406177254812
472,880.9935135044235
473,881.0436590631786
474,881.0909688113072
475,881.1353696362639
476,881.1768011337691
477,881.2152157615222
478,881.2505789127819
479,881.2828689090387
480,881.3120769142644
481,881.3382067750608
482,881.3612747904709
483,881.3813094133284
484,881.398350884176
485,881.4124508005158
486,881.4236716281458
487,881.4320861651846
488,881.4377769701564
489,881.4408357620779
490,881.4413627947495
491,881.4394662029791
492,881.4352613176576
493,881.4288699488538
494,881.4204196391914
495,881.4100428924538
496,881.3978763848743
497,881.3840601687218
498,881.3687368785228
499,881.3520509490556
500,881.3341478518025
501,881.3151733538892
502,881.2952728014127
503,881.2745904279593
504,881.2532686894351
505,881.2314476277428
506,881.2092642670071
507,881.1868520455824
508,881.1643402847872
509,881.1418536924181
510,881.1195118970294
511,881.0974290082626
512,881.0757131985299
513,881.0544663010969
514,881.0337834189719
515,881.0137525391402
516,880.9944541486152
517,880.9759608521452
518,880.9583369947717
519,880.9416382949407
520,880.9259114958426
521,880.9111940447009
522,880.8975138117113
523,880.8848888613389
524,880.8733272881452
525,880.8628271277189
526,880.8533763516015
527,880.8449529535754
528,880.8375251326512
529,880.8310515749749
530,880.8254818331013
531,880.8207567975332
532,880.8168092526327
533,880.8135645070454
534,880.810941087727
535,880.8088514865981
536,880.8072029497635
537,880.8058983007707
538,880.804836791038
539,880.8039149719782
540,880.8030275845148
541,880.8020684626713
542,880.8009314478113
543,880.799511307487
544,880.7977046478843
545,880.7954108043203
546,880.792532693141
547,880.7889776109294
548,880.784657970746
549,880.7794919677444
550,880.7734041674966
551,880.766326010873
552,880.7581962306924
553,880.7489611780152
554,880.7385750590855
555,880.7270000862449
556,880.7142065471586
557,880.7001727973033
558,880.6848851819825
559,880.6683378959643
560,880.6505327896251
561,880.6314791292441
562,880.6111933163606
563,880.5896985682316
564,880.5670245595487
565,880.5432070252456
566,880.5182873250709
567,880.4923119718964
568,880.4653321272326
569,880.437403069218
570,880.4085836398831
571,880.3789356792266
572,880.348523454086
573,880.3174130908083
574,880.2856720223441
575,880.2533684620477
576,880.2205709174752
577,880.1873477569334
578,880.1537668391815
579,880.1198952133747
580,880.0857988928873
581,880.0515427032019
582,880.0171902003972
583,879.9828036527355
584,879.9484440734382
585,879.9141712887291
586,879.880044022957
587,879.8461199827086
588,879.8124559238814
589,879.7791076888554
590,879.7461302044192
591,879.713577434271
592,879.6815022826247
593,879.6499564484941
594,879.6189902342063
595,879.588652315355
596,879.5589894804802
597,879.5300463468841
598,879.5018650566558
599,879.4744849568843
600,879.4479422701686
601,879.4222697634669
602,879.3974964235429
603,879.3736471469184
604,879.3507424531639
605,879.3287982320469
606,879.3078255357277
607,879.287830426009
608,879.2688138841386
609,879.2507717875131
610,879.2336949543092
611,879.2175692539921
612,879.20237577914
613,879.1880910721958
614,879.1746873995631
615,879.162133064469
616,879.1503927487024
617,879.1394278716793
618,879.1291969543396
619,879.1196559763246
620,879.1107587177718
621,879.1024570810562
622,879.0947013919035
623,879.0874406826285
624,879.0806229622733
625,879.0741954791622
626,879.0681049811916
627,879.0622979786024
628,879.0567210139031
629,879.0513209449076
630,879.046045249266
631,879.0408423603416
632,879.0356620424835
633,879.030455808807
634,879.0251773791293
635,879.0197831717743
636,879.0142328203809
637,879.0084897044321
638,879.0025214795088
639,878.9963005906126
640,878.9898047495209
641,878.9830173551527
642,878.9759278347959
643,878.9685318845331
644,878.9608315899129
645,878.952835412887
646,878.944558037521
647,878.9360200738666
648,878.9272476259821
649,878.9182717362286
650,878.9091277232959
651,878.8998544353535
652,878.8904934421464
653,878.8810881911547
654,878.8716831532382
655,878.8623229818902
656,878.8530517069373
657,878.843911978882
658,878.8349443754611
659,878.8261867784607
660,878.8176738265362
661,878.8094364482121
662,878.8015014777474
663,878.7938913546172
664,878.7866239046896
665,878.7797121976496
666,878.7731644713974
667,878.7669841117051
668,878.7611696759965
669,878.7557149532671
670,878.750609055776
671,878.7458365410328
672,878.7413775653187
673,878.7372080732126
674,878.7333000310812
675,878.7296217151797
676,878.7261380655079
677,878.7228111137645
678,878.7196004876918
679,878.7164639862117
680,878.713358211878
681,878.7102392405063
682,878.7070633032868
683,878.7037874551129
684,878.7003702045319
685,878.6967720847576
686,878.6929561501621
687,878.6888883873506
688,878.6845380333929
689,878.6798777959749
690,878.6748839727404
691,878.669536471855
692,878.663818742574
693,878.6577176306431
694,878.6512231765364
695,878.644328375049
696,878.6370289140601
697,878.6293229091175
698,878.6212106487363
699,878.6126943627061
700,878.6037780223407
701,878.5944671778352
702,878.5847688339403
703,878.5746913614666
704,878.564244439174
705,878.5534390185123
706,878.5422873023731
707,878.5308027289922
708,878.5189999539489
709,878.5068948258871
710,878.4945043535021
711,878.481846662122
712,878.4689409387569
713,878.4558073652056
714,878.4424670394202
715,878.4289418856763
716,878.4152545542283
717,878.4014283110832
718,878.3874869186831
719,878.3734545089587
720,878.3593554509
721,878.3452142149553
722,878.3310552364691
723,878.3169027802795
724,878.3027808080282
725,878.2887128481616
726,878.2747218670225
727,878.2608301398828
728,878.2470591241688
729,878.2334293417221
730,878.2199602796139
731,878.2066703181639
732,878.1935766912754
733,878.1806954797629
734,878.1680416339051
735,878.1556290171317
736,878.1434704589611
737,878.1315778029169
738,878.1199619347669
739,878.108632778011
740,878.0975992468882
741,878.0868691519747
742,878.0764490585422
743,878.0663441016544
744,878.0565577639957
745,878.0470916231922
746,878.037945075787
747,878.0291150461521
748,878.0205956913785
749,878.0123781167295
750,878.0044501181646
751,877.9967959672168
752,877.9893962500073
753,877.9822277684411
754,877.9752635086924
755,877.9684726797743
756,877.9618208229772
757,877.9552699914364
758,877.9487789983253
759,877.9423037318576
760,877.9357975347732
761,877.9292116450523
762,877.9224956934846
763,877.9155982523707
764,877.9084674277533
765,877.9010514855008
766,877.8932995000987
767,877.8851620142909
768,877.8765916974304
769,877.8675439906872
770,877.8579777286012
771,877.8478557287801
772,877.8371453441716
773,877.8258189745038
774,877.8138545344113
775,877.8012358749421
776,877.7879531528723
777,877.7740031397611
778,877.7593894613111
779,877.7441227580521
780,877.7282207607714
781,877.7117082785339
782,877.6946171025745
783,877.6769858334502
784,877.6588596395486
785,877.6402899524826
786,877.6213341010113
787,877.6020548824164
788,877.582520070542
789,877.5628018629138
790,877.5429762735116
791,877.5231224810443
792,877.503322144696
793,877.4836587006668
794,877.4642166531478
795,877.4450808723586
796,877.4263359106632
797,877.4080653464702
798,877.3903511644618
799,877.3732731787895
800,877.3569085029546
801,877.3413310670098
802,877.3266111809593
803,877.3128151435999
804,877.3000048975017
805,877.2882377313491
806,877.27756602984
807,877.2680370699856
808,877.2596928620133
809,877.2525700328176
810,877.2466997494693
811,877.2421076800417
812,877.23881398955
813,877.236833370057
814,877.2361751055385
815,877.2368431737677
816,877.2388363891916
817,877.2421485916238
818,877.2467688844379
819,877.2526819230433
820,877.2598682515742
821,877.268304684528
822,877.277964730373
823,877.2888190544744
824,877.3008359779176
825,877.3139820069649
826,877.3282223855535
827,877.3435216608705
828,877.3598442500243
829,877.3771549945891
830,877.3954196894106
831,877.4146055721225
832,877.4346817601919
833,877.4556196233041
834,877.4773930809802
835,877.499978818558
836,877.5233564186476
837,877.5475084093019
838,877.5724202341363
839,877.5980801533652
840,877.6244790874483
841,877.6516104156642
842,877.6794697403333
843,877.7080546249616
844,877.7373643129054
845,877.7673994328292
846,877.7981616976181
847,877.8296536032859
848,877.8618781331046
849,877.8948384700788
850,877.9285377190645
851,877.9629786390351
852,877.9981633863274
853,878.0340932705669
854,878.0707685253283
855,878.1081880949858
856,878.1463494381672
857,878.1852483473286
858,878.2248787832319
859,878.2652327222829
860,878.306300013895
861,878.3480682449127
862,878.3905226091917
863,878.4336457824246
864,878.4774178040062
865,878.5218159678863
866,878.5668147228022
867,878.6123855802783
868,878.6584970277046
869,878.705114444135
870,878.7522000179434
871,878.7997126676482
872,878.8476079691458
873,878.8958380935918
874,878.9443517608561
875,878.9930942148608
876,879.0420072286591
877,879.0910291469189
878,879.1400949707413
879,879.1891364859529
880,879.2380824335212
881,879.2868587203203
882,879.3353886683051
883,879.3835932983383
884,879.4313916421028
885,879.4787010740748
886,879.5254376567533
887,879.5715164955836
888,879.6168521036604
889,879.661358779067
890,879.7049509991924
891,879.7475438368901
892,879.789053403194
893,879.8293973203855
894,879.8684952274372
895,879.906269317551
896,879.942644904466
897,879.9775510098464
898,880.0109209593232
899,880.0426929720996
900,880.0728107298306
901,880.1012239135551
902,880.1278887007658
903,880.1527682173796
904,880.175832941315
905,880.1970610550492
906,880.2164387435707
907,880.2339604322252
908,880.2496289571111
909,880.2634556594771
910,880.2754603955777
911,880.2856714551665
912,880.2941253845543
913,880.3008667124149
914,880.3059475778789
915,880.3094272619039
916,880.3113716251316
