frame_number,force
0,737.1718361286526
1,737.1759113282441
2,737.182429969692
3,737.1914012564823
4,737.202830133258
5,737.216717241791
6,737.2330588869494
7,737.2518470132734
8,737.2730691927643
9,737.2967086244764
10,737.3227441464932
11,737.351150260834
12,737.3818971717503
13,737.4149508377177
14,737.4502730372097
15,737.4878214480353
16,737.5275497396557
17,737.5694076775804
18,737.613341238741
19,737.659292736666
20,737.7072009552936
21,737.757001290327
22,737.8086258971784
23,737.862003844717
24,737.9170612742141
25,737.9737215630591
26,738.0319054930025
27,738.091531422825
28,738.1525154654179
29,738.2147716692822
30,738.2782122044617
31,738.3427475528872
32,738.4082867030278
33,738.4747373485807
34,738.5420060907088
35,738.6099986431285
36,738.6786200392205
37,738.7477748403415
38,738.8173673446399
39,738.8873017958342
40,738.9574825914993
41,739.0278144903883
42,739.0982028182697
43,739.1685536716899
44,739.2387741189501
45,739.3087723974354
46,739.3784581063517
47,739.4477423939696
48,739.5165381386594
49,739.5847601232488
50,739.6523252024822
51,739.7191524634935
52,739.7851633792011
53,739.8502819544234
54,739.9144348643553
55,739.9775515848958
56,740.0395645142554
57,740.1004090853385
58,740.1600238685841
59,740.2183506651969
60,740.2753345909347
61,740.3309241507862
62,740.3850713049457
63,740.4377315264758
64,740.4888638509906
65,740.5384309186067
66,740.5863990083523
67,740.632738065186
68,740.6774217197838
69,740.7204273012588
70,740.7617358429271
71,740.801332081077
72,740.8392044465512
73,740.8753450489332
74,740.9097496532953
75,740.9424176497245
76,740.9733520161147
77,741.00255927497
78,741.0300494451449
79,741.0558359894601
80,741.0799357589352
81,741.1023689340599
82,741.1231589631769
83,741.1423324977021
84,741.1599193235847
85,741.1759522881479
86,741.1904672212877
87,741.2035028499639
88,741.2151007049782
89,741.2253050191832
90,741.2341626164658
91,741.2417227910456
92,741.24803717678
93,741.2531596063227
94,741.2571459602158
95,741.2600540063057
96,741.2619432301694
97,741.2628746574194
98,741.2629106687979
99,741.2621148089233
100,741.2605515894872
101,741.2582862876346
102,741.2553847401747
103,741.2519131341455
104,741.2479377941273
105,741.2435249666404
106,741.2387406020054
107,741.2336501341719
108,741.2283182591974
109,741.2228087132331
110,741.217184051007
111,741.2115054258628
112,741.2058323724289
113,741.2002225929676
114,741.1947317484122
115,741.1894132550943
116,741.1843180882458
117,741.1794945934905
118,741.1749883076897
119,741.1708417906349
120,741.1670944691789
121,741.1637824954017
122,741.1609386202737
123,741.1585920840619
124,741.1567685245101
125,741.1554899036414
126,741.1547744538808
127,741.1546366440713
128,741.1550871658651
129,741.1561329408703
130,741.1577771487935
131,741.160019276631
132,741.1628551886946
133,741.1662772168935
134,741.1702742703014
135,741.1748319627061
136,741.179932756649
137,741.1855561223848
138,741.1916787101449
139,741.198274534053
140,741.2053151660481
141,741.2127699382381
142,741.2206061521971
143,741.2287892937144
144,741.2372832514064
145,741.2460505374581
146,741.2550525086624
147,741.2642495859295
148,741.2736014705973
149,741.2830673561596
150,741.2926061343238
151,741.3021765944786
152,741.3117376156811
153,741.321248350289
154,741.3306683984653
155,741.3399579729726
156,741.3490780538524
157,741.3579905326635
158,741.3666583459632
159,741.3750455977214
160,741.3831176704203
161,741.390841324705
162,741.3981847875912
163,741.405117829374
164,741.4116118294971
165,741.417639831713
166,741.423176588906
167,741.4281985979809
168,741.4326841252606
169,741.4366132228369
170,741.4399677362792
171,741.4427313040894
172,741.444889349326
173,741.4464290638695
174,741.4473393857943
175,741.4476109702591
176,741.4472361542819
177,741.4462089157593
178,741.4445248270994
179,741.4421810038498
180,741.4391760487099
181,741.4355099912949
182,741.4311842239548
183,741.4262014338772
184,741.4205655316185
185,741.4142815761244
186,741.4073556962475
187,741.3997950088183
188,741.3916075334934
189,741.3828021048447
190,741.3733882823501
191,741.3633762590202
192,741.3527767693247
193,741.3416009968978
194,741.3298604822976
195,741.317567030963
196,741.3047326215191
197,741.291369314654
198,741.2774891628626
199,741.2631041213963
200,741.2482259608241
201,741.2328661816891
202,741.2170359318355
203,741.2007459270736
204,741.1840063759182
205,741.1668269091747
206,741.1492165151672
207,741.1311834814522
208,741.1127353439659
209,741.093878844668
210,741.074619898786
211,741.0549635726596
212,741.0349140729984
213,741.0144747482054
214,740.9936481023756
215,740.9724358225872
216,740.9508388200675
217,740.9288572856241
218,740.9064907593927
219,740.8837382145331
220,740.8605981540851
221,740.8370687198211
222,740.8131478116353
223,740.7888332157858
224,740.7641227401555
225,740.7390143546277
226,740.7135063346763
227,740.68759740632
228,740.6612868906356
229,740.6345748460463
230,740.6074622065933
231,740.579950914397
232,740.552044044606
233,740.5237459213037
234,740.4950622230936
235,740.4660000773063
236,740.4365681419663
237,740.4067766748062
238,740.3766375887362
239,740.3461644932877
240,740.3153727216767
241,740.284279343285
242,740.2529031615114
243,740.2212646970586
244,740.1893861567612
245,740.1572913880418
246,740.1250058190614
247,740.0925563846915
248,740.0599714386146
249,740.0272806521446
250,739.9945149007107
251,739.9617061392856
252,739.9288872682806
253,739.896091991505
254,739.863354667709
255,739.8307101570983
256,739.798193664099
257,739.7658405775204
258,739.7336863090993
259,739.701766131212
260,739.6701150143858
261,739.6387674651774
262,739.6077573650573
263,739.5771178111168
264,739.5468809596247
265,739.5170778736446
266,739.4877383760013
267,739.4588909088474
268,739.4305624009638
269,739.4027781438851
270,739.375561678007
271,739.3489346899715
272,739.3229169226968
273,739.2975260993553
274,739.2727778623989
275,739.2486857283967
276,739.225261059119
277,739.2025130490589
278,739.1804487294278
279,739.1590729884707
280,739.1383886076115
281,739.1183963124901
282,739.0990948374952
283,739.0804810020387
284,739.0625497965978
285,739.0452944764868
286,739.0287066613677
287,739.0127764386326
288,738.997492468976
289,738.9828420926887
290,738.9688114354657
291,738.9553855128444
292,738.9425483327512
293,738.9302829959518
294,738.9185717943495
295,738.9073963070742
296,738.8967374942287
297,738.8865757881375
298,738.8768911819706
299,738.8676633156252
300,738.858871558726
301,738.8504950905791
302,738.8425129769813
303,738.8349042439099
304,738.8276479482292
305,738.8207232455843
306,738.8141094556264
307,738.8077861246821
308,738.801733085958
309,738.7959305173429
310,738.7903589968043
311,738.7849995552654
312,738.7798337267433
313,738.7748435954678
314,738.7700118396888
315,738.7653217719012
316,738.7607573752667
317,738.7563033361079
318,738.7519450724384
319,738.7476687585015
320,738.7434613452336
321,738.7393105765321
322,738.7352050012233
323,738.7311339806848
324,738.7270876921772
325,738.7230571280892
326,738.7190340914459
327,738.7150111880765
328,738.7109818157824
329,738.7069401507842
330,738.7028811317183
331,738.6988004415039
332,738.6946944875035
333,738.6905603805415
334,738.6863959134844
335,738.6821995401629
336,738.6779703553831
337,738.6737080766547
338,738.6694130280702
339,738.6650861265385
340,738.660728870314
341,738.6563433294515
342,738.6519321375187
343,738.6474984836651
344,738.6430461040837
345,738.6385792719728
346,738.6341027852508
347,738.6296219514128
348,738.6251425690624
349,738.6206709058246
350,738.6162136725499
351,738.6117779938899
352,738.6073713753989
353,738.6030016672803
354,738.598677024805
355,738.594405865368
356,738.5901968221685
357,738.5860586945695
358,738.5820003952668
359,738.5780308944641
360,738.5741591612863
361,738.5703941027192
362,738.5667445004585
363,738.5632189462083
364,738.5598257761168
365,738.5565730051496
366,738.5534682622674
367,738.5505187272631
368,738.5477310699927
369,738.5451113925078
370,738.5426651743354
371,738.5403972209081
372,738.5383116149666
373,738.5364116706133
374,738.5346998896069
375,738.5331779194781
376,738.5318465131372
377,738.5307054897934
378,738.5297536971601
379,738.5289889750411
380,738.5284081204745
381,738.5280068546865
382,738.5277797922115
383,738.527720412718
384,738.5278210363207
385,738.5280728033916
386,738.5284656600337
387,738.5289883504557
388,738.5296284175387
389,738.530372212845
390,738.5312049171248
391,738.5321105719979
392,738.5330721230583
393,738.5340714742912
394,738.5350895535051
395,738.5361063884467
396,738.5371011933001
397,738.5380524652846
398,738.5389380909596
399,738.5397354616651
400,738.5404215973333
401,738.5409732777631
402,738.5413671803162
403,738.5415800227892
404,738.5415887099763
405,738.5413704822893
406,738.5409030648703
407,738.540164815905
408,738.5391348731526
409,738.5377932979594
410,738.5361212161656
411,738.5341009554079
412,738.53171617835
413,738.5289520113275
414,738.52579516776
415,738.5222340655587
416,738.5182589377289
417,738.5138619354602
418,738.5090372231399
419,738.5037810648391
420,738.498091901892
421,738.4919704212227
422,738.4854196141284
423,738.478444825302
424,738.4710537919494
425,738.4632566728756
426,738.4550660673547
427,738.4464970235247
428,738.4375670359655
429,738.4282960320571
430,738.418706346647
431,738.4088226845504
432,738.3986720705155
433,738.3882837865146
434,738.3776892965103
435,738.3669221591093
436,738.3560179286595
437,738.345014045344
438,738.3339497147481
439,738.3228657773353
440,738.311804568343
441,738.3008097687675
442,738.2899262482642
443,738.2791999008734
444,738.2686774745229
445,738.2584063952808
446,738.2484345873391
447,738.2388102896546
448,738.2295818700949
449,738.2207976379269
450,738.2125056555617
451,738.2047535505894
452,738.1975883291772
453,738.191056191872
454,738.1852023528087
455,738.180070863282
456,738.1757044405846
457,738.1721443029332
458,738.1694300112341
459,738.1675993183442
460,738.1666880263708
461,738.1667298524
462,738.1677563028935
463,738.16979655686
464,738.1728773577737
465,738.1770229141188
466,738.182254808392
467,738.1885919144545
468,738.1960503232257
469,738.204643276811
470,738.2143811111899
471,738.2252712075891
472,738.2373179526705
473,738.2505227077188
474,738.2648837871128
475,738.280396446461
476,738.2970528808029
477,738.3148422332276
478,738.3337506141969
479,738.3537611318445
480,738.3748539335653
481,738.397006259217
482,738.4201925062191
483,738.44438430678
484,738.469550617471
485,738.4956578213564
486,738.5226698428229
487,738.5505482751057
488,738.5792525202895
489,738.60873994127
490,738.6389660248187
491,738.6698845545792
492,738.7014477925667
493,738.7336066675398
494,738.7663109684632
495,738.7995095412665
496,738.8331504872185
497,738.8671813614105
498,738.9015493700034
499,738.9362015650813
500,738.9710850361786
501,739.0061470977686
502,739.0413354721542
503,739.0765984672674
504,739.1118851489026
505,739.1471455068992
506,739.1823306147825
507,739.2173927823519
508,739.2522857006729
509,739.2869645788641
510,739.3213862720075
511,739.3555093994822
512,739.3892944530438
513,739.422703894059
514,739.4557022394099
515,739.4882561356557
516,739.5203344210648
517,739.5519081751456
518,739.5829507553879
519,739.6134378211156
520,739.6433473445804
521,739.6726596096291
522,739.7013571984057
523,739.7294249666114
524,739.7568500078199
525,739.7836216072717
526,739.8097311855088
527,739.8351722322492
528,739.8599402310581
529,739.8840325756291
530,739.9074484787858
531,739.930188875579
532,739.9522563220161
533,739.9736548909489
534,739.9943900664945
535,740.0144686381432
536,740.0338985954883
537,740.052689024274
538,740.0708500041484
539,740.088392508185
540,740.1053283040126
541,740.1216698563825
542,740.137430231204
543,740.1526230013892
544,740.167262155121
545,740.1813620072728
546,740.1949371146642
547,740.2080021957129
548,740.2205720549373
549,740.2326615127274
550,740.2442853408246
551,740.2554582039573
552,740.2661946080324
553,740.2765088551521
554,740.2864150055224
555,740.2959268460628
556,740.3050578653031
557,740.3138212339771
558,740.3222297905601
559,740.3302960308031
560,740.3380321001459
561,740.3454497878342
562,740.3525605216688
563,740.3593753625304
564,740.3659049980673
565,740.3721597351179
566,740.3781494905043
567,740.3838837798271
568,740.3893717039455
569,740.3946219330642
570,740.3996426887129
571,740.404441724259
572,740.4090263048364
573,740.413403187669
574,740.4175786037191
575,740.421558241418
576,740.4253472329603
577,740.4289501433714
578,740.4323709623792
579,740.43561309905
580,740.4386793791203
581,740.4415720449484
582,740.4442927579985
583,740.4468426038123
584,740.4492220995263
585,740.4514312041206
586,740.4534693316742
587,740.4553353679163
588,740.457027690336
589,740.4585441920593
590,740.4598823096289
591,740.4610390547506
592,740.4620110500034
593,740.4627945684368
594,740.4633855769117
595,740.463779782997
596,740.4639726851981
597,740.4639596262599
598,740.4637358492471
599,740.4632965560405
600,740.4626369678143
601,740.4617523870295
602,740.4606382605594
603,740.4592902437298
604,740.4577042652511
605,740.4558765931631
606,740.4538039019213
607,740.4514833406431
608,740.4489126023444
609,740.4460899937816
610,740.4430145053094
611,740.4396858800438
612,740.4361046815567
613,740.4322723592699
614,740.428191310589
615,740.4238649386485
616,740.4192977044191
617,740.4144951719035
618,740.4094640452486
619,740.40421219681
620,740.3987486854733
621,740.3930837648195
622,740.3872288810028
623,740.381196660463
624,740.3750008877835
625,740.3686564740489
626,740.3621794159811
627,740.3555867460288
628,740.3488964735643
629,740.3421275174575
630,740.3352996305285
631,740.3284333166948
632,740.3215497419619
633,740.314670640692
634,740.3078182187006
635,740.3010150546071
636,740.2942840005533
637,740.2876480830521
638,740.2811304044775
639,740.2747540455875
640,740.2685419694388
641,740.2625169270585
642,740.2567013652512
643,740.2511173368887
644,740.2457864139649
645,740.2407296036444
646,740.23596726755
647,740.2315190445747
648,740.2274037775247
649,740.2236394438704
650,740.220243090824
651,740.2172307749336
652,740.2146175064128
653,740.2124171985098
654,740.2106426222866
655,740.2093053672094
656,740.2084158079296
657,740.2079830775632
658,740.2080150475978
659,740.2085183142776
660,740.2094981910029
661,740.2109587060444
662,740.2129026048411
663,740.2153313562964
664,740.2182451626795
665,740.2216429728513
666,740.2255224984613
667,740.2298802325565
668,740.2347114697743
669,740.2400103271003
670,740.2457697641512
671,740.2519816020895
672,740.258636540519
673,740.2657241719442
674,740.2732329935886
675,740.2811504165717
676,740.2894627726012
677,740.2981553183904
678,740.3072122379591
679,740.3166166429816
680,740.3263505714923
681,740.3363949855099
682,740.3467297683918
683,740.3573337229242
684,740.3681845712607
685,740.3792589578637
686,740.3905324565978
687,740.40197958314
688,740.4135738139242
689,740.4252876128913
690,740.437092467272
691,740.4489589334161
692,740.460856693306
693,740.4727546219558
694,740.4846208655126
695,740.4964229295938
696,740.508127777143
697,740.5197019348611
698,740.5311116071115
699,740.5423227961849
700,740.553301427885
701,740.5640134814777
702,740.5744251230782
703,740.5845028415498
704,740.5942135859144
705,740.6035249031379
706,740.6124050750054
707,740.6208232527347
708,740.6287495880068
709,740.6361553591992
710,740.6430130917893
711,740.649296672197
712,740.6549814546892
713,740.660044361273
714,740.6644639746805
715,740.6682206246437
716,740.6712964677401
717,740.6736755611374
718,740.6753439305555
719,740.6762896327201
720,740.6765028125388
721,740.675975755227
722,740.6747029336093
723,740.6726810507759
724,740.6699090781783
725,740.6663882891752
726,740.6621222880411
727,740.6571170345229
728,740.6513808640847
729,740.6449245040093
730,740.6377610855404
731,740.6299061522867
732,740.6213776651203
733,740.6121960037452
734,740.6023839649871
735,740.5919667577344
736,740.5809719943592
737,740.5694296783587
738,740.5573721878512
739,740.5448342544179
740,740.5318529366269
741,740.518467587406
742,740.5047198142787
743,740.490653431445
744,740.4763144028268
745,740.4617507754925
746,740.447012603184
747,740.4321518598789
748,740.4172223434255
749,740.4022795693296
750,740.387380654809
751,740.3725841932766
752,740.3579501194912
753,740.3435395657087
754,740.3294147092569
755,740.3156386119784
756,740.3022750519062
757,740.2893883474155
758,740.2770431740454
759,740.2653043742625
760,740.2542367606541
761,740.2439049133344
762,740.234372972611
763,740.2257044280867
764,740.2179619053697
765,740.2112069514853
766,740.2054998200157
767,740.200899256991
768,740.1974622885631
769,740.1952440114536
770,740.1942973870734
771,740.1946730401218
772,740.1964190624238
773,740.199580822765
774,740.204200783519
775,740.2103183249379
776,740.2179695780071
777,740.2271872667454
778,740.2380005607934
779,740.250434939131
780,740.2645120658028
781,740.2802496785389
782,740.2976614911036
783,740.3167571100903
784,740.3375419667547
785,740.360017264355
786,740.3841799413253
787,740.4100226504291
788,740.4375337538777
789,740.4666973343061
790,740.4974932214692
791,740.5298970344951
792,740.5638802394722
793,740.5994102220158
794,740.6364503742633
795,740.6749601955456
796,740.7148954058573
797,740.7562080712148
798,740.7988467399854
799,740.842756589264
800,740.887879580409
801,740.9341546229724
802,740.9815177464485
803,741.0299022794036
804,741.0792390355411
805,741.1294565061016
806,741.1804810577876
807,741.2322371352673
808,741.2846474672865
809,741.3376332754884
810,741.39111448516
811,741.4450099372558
812,741.4992376011693
813,741.5537147878205
814,741.6083583627121
815,741.6630849586666
816,741.7178111879905
817,741.7724538538155
818,741.8269301603362
819,741.8811579216115
820,741.9350557684661
821,741.9885433528569
822,742.0415415488604
823,742.0939726492627
824,742.1457605566341
825,742.1968309677718
826,742.2471115504571
827,742.2965321115657
828,742.3450247557024
829,742.3925240337219
830,742.4389670807076
831,742.4842937431598
832,742.528446695307
833,742.5713715445596
834,742.6130169261028
835,742.653334586492
836,742.692279456026
837,742.7298097097881
838,742.7658868175615
839,742.8004755831936
840,742.8335441742275
841,742.8650641426539
842,742.895010437503
843,742.9233614098073
844,742.9500988103016
845,742.9752077801609
846,742.9986768350813
847,743.0204978430165
848,743.0406659958335
849,743.0591797750243
850,743.07604091147
851,743.0912543391695
852,743.1048281428716
853,743.1167734996368
854,743.1271046144194
855,743.1358386497576
856,743.142995649578
857,743.1485984570105
858,743.1526726260053
859,743.1552463264718
860,743.1563502426523
861,743.1560174645183
862,743.1542833721539
863,743.1511855133039
864,743.1467634744643
865,743.1410587460562
866,743.134114582348
867,743.1259758568477
868,743.1166889138401
869,743.1063014166234
870,743.094862192864
871,743.0824210774045
872,743.0690287528543
873,743.0547365883502
874,743.039596476988
875,743.0236606725496
876,743.006981626306
877,742.9896118248333
878,742.9716036299451
879,742.9530091219392
880,742.933879947306
881,742.9142671718723
882,742.894221140174
883,742.8737913417347
884,742.8530262848941
885,742.8319733788039
886,742.8106788241715
887,742.78918751328
888,742.7675429397297
889,742.7457871181706
890,742.7239605140562
891,742.702101983242
892,742.6802487211563
893,742.6584362212581
894,742.6366982424785
895,742.6150667852766
896,742.593572075811
897,742.5722425575872
898,742.5511048898168
899,742.5301839516724
900,742.5095028516138
901,742.4890829409553
902,742.4689438307768
903,742.449103411224
904,742.4295778722721
905,742.4103817251614
906,742.3915278238983
907,742.3730273863893
908,742.354890014912
909,742.3371237157431
910,742.319734917855
911,742.3027284906788
912,742.2861077609982
913,742.2698745291052
914,742.2540290844048
915,742.2385702207334
916,742.2234952517116
917,742.2088000264746
918,742.1944789461
