acceleration,velocity,displacement
-0.0316451881893712,0.0,0.0
-0.031591131936023246,-1.580908003134861e-05,-3.952270007837153e-09
-0.03150466418746801,-3.1583029062221426e-05,-1.5800297281229664e-08
-0.03138566286232862,-4.7305610824670583e-05,-3.552245725295266e-08
-0.031234062371458402,-6.296054213311734e-05,-6.308899549239964e-08
-0.031049854201950475,-7.853152127646955e-05,-9.846201134479637e-08
-0.030833087368580255,-9.400225666910223e-05,-1.4159545583118933e-07
-0.030583868724511982,-0.00010935649569237529,-1.9243514392155872e-07
-0.030302363123278202,-0.00012457805365432285,-2.5091878125823324e-07
-0.029988793424190564,-0.00013965084279119003,-3.169760053696115e-07
-0.029643440333481912,-0.00015455890123060816,-3.9052844137506105e-07
-0.02926664207392312,-0.00016928642183245942,-4.714897721408279e-07
-0.028858793876837357,-0.00018381778082014952,-5.597658228039802e-07
-0.0284203472924461,-0.00019813756611247038,-6.552546595371352e-07
-0.027951809317391833,-0.00021223060526492986,-7.578467023814853e-07
-0.027453741342358392,-0.00022608199292986742,-8.674248519301846e-07
-0.026926757927513086,-0.00023967711774733528,-9.838646295994852e-07
-0.026371525417724667,-0.00025300168858364473,-1.1070343311822301e-06
-0.025788760412172828,-0.0002660417600411191,-1.236795193338421e-06
-0.02517922810393323,-0.0002787837571701456,-1.3730015726412372e-06
-0.024543740504999644,-0.00029121449932237883,-1.5155011367643683e-06
-0.023883154571248993,-0.000303321223091441,-1.6641350673678233e-06
-0.023198370240007524,-0.00031509160429425513,-1.8187382742142474e-06
-0.022490328390634043,-0.0003265137789519155,-1.97913962002579e-06
-0.021760008736161015,-0.00033757636323361427,-2.1451621555721723e-06
-0.021008427651653033,-0.00034826847233056777,-2.3166233644632178e-06
-0.020236635942518965,-0.0003585797382291108,-2.4933354171031377e-06
-0.019445716554101787,-0.000368500326353266,-2.6751054332487318e-06
-0.018636782222775296,-0.00037802095104748525,-2.86173575259892e-06
-0.017810973068401445,-0.00038713288987027945,-3.053024212828361e-06
-0.016969454127994513,-0.00039582799666937845,-3.2487644344632754e-06
-0.016113412830863493,-0.00040409871340909296,-3.4487461119828934e-06
-0.01524405641661861,-0.0004119380807209635,-3.6527553105154076e-06
-0.014362609299617477,-0.0004193397471500225,-3.860574767483154e-06
-0.013470310386344421,-0.00042629797707151296,-4.071984198538537e-06
-0.012568410354986754,-0.00043280765725684574,-4.286760607120627e-06
-0.011658168908171288,-0.00043886430207263526,-4.504678596952997e-06
-0.01074085200977617,-0.00044446405730212213,-4.725510686796686e-06
-0.009817729115057634,-0.00044960370258333057,-4.949027626768049e-06
-0.008890070401265384,-0.0004542806524624113,-5.174998715529485e-06
-0.00795914400479221,-0.0004584929560639257,-5.403192117661069e-06
-0.007026213271116136,-0.0004622392953829028,-5.633375180522776e-06
-0.006092534024431314,-0.00046551898220678964,-5.865314749920199e-06
-0.005159351864801759,-0.00046833195367909793,-6.098777483891671e-06
-0.0042278995022691605,-0.00047067876652086564,-6.3335301639416625e-06
-0.00329939413934099,-0.0004725605899312682,-6.569340003054696e-06
-0.0023750349143950985,-0.0004739791971947022,-6.805974949836189e-06
-0.0014560004179473454,-0.0004749369560277878,-7.043203988141811e-06
-0.0005434462912842855,-0.0004754368177050957,-7.280797431575032e-06
0.0003614970863471456,-0.00047548230500633003,-7.518527212252889e-06
0.0012577268190266757,-0.00047507749902998657,-7.756167163261967e-06
0.0021441696227859127,-0.0004742270249195334,-7.993493294249347e-06
0.0030197838603442033,-0.00047293603654875087,-8.230284059616418e-06
0.0038835614792874515,-0.00047121020021384296,-8.466320618807065e-06
0.00473452984891248,-0.000469055677381793,-8.701387088205975e-06
0.005571753488985533,-0.0004664791065473185,-8.935270784188253e-06
0.006394335682823543,-0.00046348758425436624,-9.167762456888674e-06
0.007201419968011594,-0.00046008864534165744,-9.39865651428768e-06
0.00799219150055676,-0.00045629024247451533,-9.627751236241723e-06
0.008765878291565941,-0.00045210072502648463,-9.854848978116973e-06
0.009521752318658476,-0.0004475288173739285,-1.0079756363717077e-05
0.010259130516550127,-0.00044258359666512635,-1.030228446722684e-05
0.010977375652176966,-0.00043727447012294456,-1.0522248983923858e-05
0.011675897089586003,-0.0004316111519375038,-1.073947038943897e-05
0.012354151448955209,-0.0004256036398028685,-1.0953774087374063e-05
0.013011643163066659,-0.000419262191149863,-1.1164990545112246e-05
0.01364792493373306,-0.0004125972991256631,-1.1372955417681128e-05
0.014262598090190889,-0.0004056196683696821,-1.1577509659554964e-05
0.014855312851568336,-0.0003983401906342423,-1.1778499624305945e-05
0.015425768495614712,-0.00039076992029744655,-1.1975777152038867e-05
0.015973713435172156,-0.00038292004981474985,-1.2169199644566915e-05
0.016498945201860377,-0.00037480188515549173,-1.2358630128309475e-05
0.01700131033441073,-0.00036642682127142396,-1.2543937304916204e-05
0.017480704168906624,-0.0003578063176455946,-1.272499558964546e-05
0.017937070530349576,-0.0003489518739707806,-1.2901685137549553e-05
0.018370401328434333,-0.0003398750060060846,-1.307389185754377e-05
0.018780736063997876,-0.0003305872216579765,-1.3241507414459785e-05
0.019168161256022928,-0.0003210999973279713,-1.3404429219206271e-05
0.019532809801493786,-0.0003114247545635921,-1.3562560407179161e-05
0.019874860280536685,-0.0003015728370430845,-1.3715809805080831e-05
0.02019453621667693,-0.0002915554879187811,-1.3864091886321299e-05
0.020492105297824158,-0.0002813838275401558,-1.4007326715186033e-05
0.02076787855894333,-0.000271068831575964,-1.4145439879965063e-05
0.021022209522763537,-0.00026062130955553723,-1.427836241524794e-05
0.02125549329062562,-0.00025005188385218995,-1.4406030713599872e-05
0.021468165572039323,-0.0002393709691365237,-1.4528386426847051e-05
0.02166070163941848,-0.00022858875233365924,-1.4645376357214597e-05
0.0218336151938219,-0.00021771517312534915,-1.4756952338579349e-05
0.021987457128399175,-0.00020675990504479387,-1.4863071108121885e-05
0.022122814178163423,-0.00019573233721815322,-1.4963694168687622e-05
0.022240307447391184,-0.00018464155681176457,-1.5058787642195102e-05
0.02234059080855252,-0.00017349633224777864,-1.5148322114459988e-05
0.02242434916868465,-0.00016230509725346934,-1.52322724718353e-05
0.02249229660117168,-0.00015107593581100527,-1.531061773010142e-05
0.022545174344001245,-0.00013981656807471204,-1.538334085607285e-05
0.02258374866966443,-0.00012853433732129562,-1.5450428582421854e-05
0.02260880863581201,-0.00011723619799492651,-1.551187121625091e-05
0.022621163728186743,-0.00010592870490392682,-1.5567662441975625e-05
0.022621641407906474,-9.461800361990351e-05,-1.5617799119106584e-05
0.022611084574543854,-8.330982212429092e-05,-1.5662281075542632e-05
0.022590348955593576,-7.200946374175657e-05,-1.5701110897009143e-05
0.022560300432053843,-6.072180139484471e-05,-1.5734293713293293e-05
0.022521812308693594,-4.945127320965785e-05,-1.576183698194442e-05
0.022475762535959086,-3.820187949849468e-05,-1.5783750270121456e-05
0.022423030888749532,-2.6977181142317525e-05,-1.5800045035281657e-05
0.02236449610652409,-1.578029939349912e-05,-1.581073440541561e-05
0.022301032999745327,-4.613917116931765e-06,-1.581583295954322e-05
0.02223350952937585,6.519718515348529e-06,-1.5815356509193613e-05
0.0221627838684687,1.7618791864809665e-05,-1.5809321881598575e-05
0.022089701457217472,2.868191319623121e-05,-1.5797746705333316e-05
0.02201509206460702,3.9708111576687336e-05,-1.5780649199140085e-05
0.021939766870693923,5.069682631051257e-05,-1.5758047964668286e-05
0.02186451558378249,6.164789692413167e-05,-1.5729961783859624e-05
0.02179010360641242,7.25615517216804e-05,-1.569640942169817e-05
0.021717269263525137,8.343839493916478e-05,-1.565740943503296e-05
0.021646721106124662,9.427939253157724e-05,-1.5612979988165272e-05
0.02157913530478481,0.0001050858566343046,-1.5563138675873803e-05
0.02151515314914766,0.00011585942874778772,-1.550790235452828e-05
0.021455378671495856,0.0001266020617029486,-1.5447286981915594e-05
0.021400376414209717,0.000137316000474375,-1.5381307466371262e-05
0.02135066936221081,0.00014800376191848014,-1.530997752577305e-05
0.021306737061581222,0.00015866811352442816,-1.5233309556912323e-05
0.021269013943741102,0.00016931205127575873,-1.5151314515712276e-05
0.021237887871727455,0.00017993877672962586,-1.506400180871093e-05
0.021213698922226312,0.0001905516734281143,-1.4971379196171495e-05
0.021196738414633744,0.00020115428276232933,-1.4873452707123885e-05
0.021187248196388345,0.00021175027941508484,-1.4770226566579531e-05
0.02118542019218622,0.00022234344651222849,-1.4661703135097703e-05
0.021191396223464883,0.00023293765061614127,-1.454788286081561e-05
0.02120526810319896,0.00024353681669780724,-1.4428764243987124e-05
0.02122707800920611,0.0002541449032259085,-1.4304343814006195e-05
0.021256819136653945,0.0002647658775123735,-1.4174616118821625e-05
0.021294436626923718,0.0002754036914532679,-1.4039573726580213e-05
0.0213398287651807,0.00028606225780129405,-1.3899207239266573e-05
0.02139284843374249,0.00029674542710102485,-1.3753505318040994e-05
0.021453304803982984,0.0003074569654104562,-1.3602454719913124e-05
0.021520965246977792,0.00031820053292319644,-1.344604034532971e-05
0.02159555744204863,0.000328979663595453,-1.3284245296200048e-05
0.021676771661786855,0.0003397977458714119,-1.3117050943833331e-05
0.021764263211638532,0.00035065800458976824,-1.2944437006218035e-05
0.021857655002226993,0.00036156348414323464,-1.2766381634034785e-05
0.021956540233516203,0.00037251703295217045,-1.2582861504760934e-05
0.02206048517106896,0.00038352128930331677,-1.2393851924197062e-05
0.02216903199463125,0.00039457866859474183,-1.2199326934722548e-05
0.022281701697947087,0.00040569135201788643,-1.1999259429569391e-05
0.022397997016824586,0.00041686127669657936,-1.1793621272390775e-05
0.02251740536115761,0.00042809012729107493,-1.1582383421393861e-05
0.02263940172664792,0.00043937932906302633,-1.1365516057305335e-05
0.022763451564093144,0.0004507300423857116,-1.114298871444315e-05
0.022889013587897026,0.00046214315867370914,-1.0914770414178295e-05
0.023015542509364075,0.00047361929769802443,-1.0680829800085362e-05
0.02314249168256831,0.00048515880624600753,-1.0441135274099355e-05
0.023269315651009266,0.000496761758079402,-1.0195655133018003e-05
0.02339547258343608,0.0005084279551380133,-9.94435770471365e-06
0.023520426588591093,0.00052015692993102,-9.687211483446392e-06
0.02364364990116396,0.0005319479490534588,-9.424185263700272e-06
0.02376462493355759,0.0005438000177621392,-9.155248271996372e-06
0.023882846189168052,0.0005557118855428206,-8.880370296170132e-06
0.023997822032971017,0.0005676820525983554,-8.599521811634838e-06
0.024109076315308474,0.0005797087771854252,-8.312674104188893e-06
0.02421614984558819,0.0005917900837256494,-8.019799388961124e-06
0.024318601714117948,0.0006039237716155759,-7.720870925125818e-06
0.024416010462159063,0.0006161074246596452,-7.415863126057013e-06
0.024507975102091677,0.0006283384210507078,-7.104751664629424e-06
0.024594115991148257,0.0006406139438240178,-6.787513573410743e-06
0.024674075563102138,0.0006529309917125804,-6.4641273395265934e-06
0.024747518922827214,0.0006652863903340627,-6.134572994014933e-06
0.024814134309085297,0.0006776768036420408,-5.798832195520907e-06
0.02487363343141941,0.0006900987455771669,-5.456888308216105e-06
0.024925751687038797,0.0007025485918567815,-5.108726473857618e-06
0.024970248263077803,0.0007150225918443106,-4.754333677932345e-06
0.025006906129358866,0.0007275168804424198,-4.393698809860662e-06
0.025035531927292135,0.0007400274899565826,-4.026812717260911e-06
0.02505595576116242,0.0007525503618786962,-3.6536682543020914e-06
0.025068030897972788,0.00076508135854348,-3.2742603241965474e-06
0.025071633381312894,0.0007776162746133014,-2.8885859159073523e-06
0.025066661564112414,0.0007901508483496577,-2.4966441351666127e-06
0.025053035565046396,0.0008026807726319474,-2.0984362299212116e-06
0.025030696653487606,0.0008152017056865809,-1.6939656103415796e-06
0.024999606568072767,0.0008277092814919709,-1.2832378635469415e-06
0.0249597467740447,0.0008401991198275003,-8.662607632170737e-07
0.02491111766423973,0.0008526668359370714,-4.430442742759308e-07
0.024853737707746768,0.000865108049780068,-1.3600552846645913e-08
0.024787642549272258,0.0008775183948443228,4.220560583094518e-07
0.024712884061130598,0.0008898935264969235,8.639090386447635e-07
0.024629529348657902,0.0009022291298493707,1.311939702731337e-06
0.024537659709177193,0.0009145209271138294,1.7661272169721371e-06
0.024437369545228335,0.0009267646844274308,2.226448619857452e-06
0.02432876523505769,0.0009389562181225023,2.6928788454949352e-06
0.024211963966511096,0.0009510914004228944,3.1653907501312845e-06
0.024087092543084283,0.0009631661645502933,3.6439551413745817e-06
0.023954286171889102,0.0009751765092290367,4.128540809819414e-06
0.02381368724232129,0.0009871185025825892,4.619114562772321e-06
0.023665444101807223,0.0009989882854186214,5.115641259772623e-06
0.023509709832254883,0.001010782073902137,5.618083849602813e-06
0.02334664102913484,0.0010224961616174845,6.126403408482718e-06
0.02317639658517728,0.0010341269210210626,6.640559179142355e-06
0.022999136481655857,0.0010456708042877708,7.160508610469563e-06
0.022815020591158187,0.0010571243435559742,7.686207397430498e-06
0.02262420749637297,0.001068484150577857,8.217609520963957e-06
0.022426853330232248,0.0010797469157845083,8.754667287554549e-06
0.022223110643856975,0.0010909094067780305,9.297331368195183e-06
0.022013127309929072,0.001101968466266477,9.84555083645631e-06
0.021797045470334387,0.0011129210094615429,1.0399273205388315e-05
0.021575000537842566,0.0011237640209635872,1.0958444462994598e-05
0.021347120262087432,0.0011344945511635696,1.1523009106026386e-05
0.02111352387038888,0.0011451097121966886,1.209291017186645e-05
0.020874321294604363,0.0011556066734879369,1.2668089268287608e-05
0.02062961249657773,0.0011659826569357325,1.3248486600893525e-05
0.020379486906305082,0.001176234931786453,1.3834040998074071e-05
0.0201240229874379,0.0011863608092598887,1.4424689933335656e-05
0.019863287943395452,0.001196357636992597,1.5020369544898778e-05
0.01959733757486744,0.0012062227933721627,1.5621014652489967e-05
0.019326216297379403,0.0012159536818402246,1.6226558771293063e-05
0.01904995732696926,0.0012255477252463118,1.6836934123064696e-05
0.018768583042205727,0.0012350023603386055,1.7452071644460924e-05
0.01848210553023499,0.0012443150324817156,1.8071900992666004e-05
0.01819052732205983,0.0012534831906947893,1.869635054846013e-05
0.01789384231772378,0.0012625042831047352,1.932534741691001e-05
0.017592036896511273,0.001271375752908294,1.9958817425913268e-05
0.017285091201711747,0.0012800950349328498,2.0596685122873555e-05
0.016972980584514578,0.0012886595528794063,2.123887376982662e-05
0.016655677187670366,0.0012970667173224525,2.1885305337377084e-05
0.01633315164658181,0.0013053139245310155,2.2535900497840452e-05
0.01600537488349971,0.001313398556163536,2.319057861801409e-05
0.015672319969557334,0.0013213179798768002,2.3849257752024173e-05
0.015333964029453069,0.0013290695508765527,2.451185463471251e-05
0.014990290164223295,0.0013366506144249718,2.5178284676037892e-05
0.014641289368159633,0.0013440585093080675,2.584846195697115e-05
0.014286962416232308,0.0013512905722541655,2.6522299227361708e-05
0.013927321698201975,0.0013583441432827741,2.7199707906245943e-05
0.013562392975695843,0.0013652165719512486,2.7880598085054447e-05
0.013192217039597585,0.001371905224455072,2.8564878534156027e-05
0.012816851247530039,0.0013784074915268538,2.9252456713151507e-05
0.012436370924399073,0.0013847207970698362,2.994323878530068e-05
0.012050870612025333,0.0013908426074539424,3.0637129636431626e-05
0.011660465156407408,0.0013967704413960507,3.1334032898644124e-05
0.011265290623173212,0.0014025018803409458,3.203385097907837e-05
0.01086550503336581,0.0014080345792550806,3.273648509397738e-05
0.010461288913180211,0.001413366277741717,3.344183530822657e-05
0.010052845652952192,0.0014184948113832503,3.414980058050781e-05
0.009640401672714795,0.001423418123214667,3.486027881415729e-05
0.009224206393696761,0.00142813427523127,3.5573166913768776e-05
0.008804532016626915,0.001432641459833851,3.6288360847535055e-05
0.008381673108251548,0.0014369380111150707,3.7005755715272284e-05
0.007955945997203291,0.0014410224158914345,3.772524582202391e-05
0.00752768798011732,0.0014448933243857646,3.844672475709321e-05
0.007097256339677763,0.0014485495604657135,3.917008547830608e-05
0.00666502717864944,0.0014519901313452953,3.989522040125883e-05
0.006231394077769777,0.0014552142366594002,4.0622021493260003e-05
0.005796766589993362,0.001458221276826341,4.135038037163144e-05
0.005361568588079997,0.0014610108606208593,4.208018840599324e-05
0.004926236485736735,0.0014635828118893135,4.281133682412078e-05
0.0044912173534985885,0.0014659371753491224,4.354371682093039e-05
0.004056966949484484,0.0014680742214248682,4.427721967012389e-05
0.0036239476834670557,0.001469994450083106,4.5011736838000886e-05
0.003192626531192834,0.001471698593636771,4.574716009893086e-05
0.0027634729141959116,0.0014731876184981183,4.648338165196458e-05
0.0023369565581358898,0.0014744627258662013,4.722029423805566e-05
0.001913545340098624,0.00147552535134076,4.79577912573574e-05
0.0014937031332368197,0.0014763771634590938,4.8695766886057364e-05
0.0010778876562770098,0.0014770200611564721,4.9434116192211256e-05
0.0006665483363755323,0.0014774561701546352,5.0172735250039034e-05
0.000260124196137517,0.0014776878382877635,5.091152125214963e-05
-0.00014095822154447976,0.0014777176297814118,5.165037261916693e-05
-0.0005362868748079691,0.0014775483185073238,5.2389189106239114e-05
-0.0009254661731690711,0.0014771828802453296,5.3127871905927274e-05
-0.0013081188403334832,0.0014766244839919539,5.386632374698659e-05
-0.0016838876744077653,0.0014758764823632686,5.46044489885754e-05
-0.0020524371910641066,0.0014749424011469006,5.534215370945294e-05
-0.0024134551342858135,0.001473825928065563,5.607934579175606e-05
-0.002766653837518671,0.001472530900822612,5.68159349989781e-05
-0.003111771417104791,0.0014710612945089561,5.7551833047810995e-05
-0.0034485727806793263,0.0014694212084595101,5.828695367355311e-05
-0.003776850435991234,0.0014676148526553425,5.902121268883182e-05
-0.004096425089961397,0.0014656465337738542,5.975452803543912e-05
-0.0044071460322446234,0.0014635206409933028,6.048681982913091e-05
-0.0047088913007545,0.0014612416316600529,6.121801039729425e-05
-0.005001567628660994,0.001458814016927699,6.194802430944119e-05
-0.0052851101749162395,0.0014562423474768047,6.267678840054231e-05
-0.0055594820447990275,0.0014535311994218758,6.340423178726698e-05
-0.0058246736129236865,0.0014506851605074452,6.413028587724932e-05
-0.006080701667227332,0.0014477088166874074,6.485488437154804e-05
-0.00632760839722082,0.0014446067391712953,6.557796326051271e-05
-0.0065654602526660525,0.0014413834720088236,6.629946081330774e-05
-0.00679434669971544,0.0014380435202707282,6.701931756137763e-05
-0.007014378900944571,0.0014345913388705632,6.773747627616295e-05
-0.0072256883440081476,0.0014310313220593249,6.845388194139542e-05
-0.007428425441263494,0.001427367793613007,6.91684817203135e-05
-0.007622758119810612,0.0014236049977227386,6.988122491814744e-05
-0.00780887041798202,0.0014197470905882904,7.05920629402252e-05
-0.007986961100008783,0.0014157981327087928,7.130094924604947e-05
-0.008157242295764913,0.0014117620818598494,7.200783929969163e-05
-0.008319938168333235,0.0014076427867438248,7.271269051684255e-05
-0.008475283610096982,0.0014034439812992173,7.34154622088533e-05
-0.008623522968163887,0.001399169279654652,7.411611552409178e-05
-0.008764908800840417,0.001394822171712401,7.481461338693354e-05
-0.008899700667244761,0.0013904060193453797,7.551092043469798e-05
-0.00902816395174906,0.0013859240531906313,7.620500295283198e-05
-0.009150568724772466,0.001381379370021501,7.689682880863502e-05
