acceleration,velocity,displacement
-0.03190915638763388,0.0,0.0
-0.03186315372017845,-1.594307752695308e-05,-3.98576938173827e-09
-0.03178384269924543,-3.185482663180905e-05,-1.5935245421428804e-08
-0.031671076643198515,-4.7718556467420035e-05,-3.5828591196236075e-08
-0.03152476858628603,-6.351751777479116e-05,-6.363760975678888e-08
-0.031344891958341406,-7.923493291094802e-05,-9.932572242822367e-08
-0.03113148112288184,-9.485402618125383e-05,-1.4284796220127414e-07
-0.030884631762896634,-0.00011035805440269845,-1.9415098234726222e-07
-0.030604501103811372,-0.00012573033761937547,-2.531730803527807e-07
-0.030291307963151617,-0.00014095428988611622,-3.198442372291536e-07
-0.029945332616520434,-0.00015601345003103423,-3.940861722084412e-07
-0.029566916470039274,-0.00017089151230267416,-4.758124127918683e-07
-0.029156461530855635,-0.0001855723568028979,-5.649283800682613e-07
-0.028714429669946202,-0.00020004007960309835,-6.613314891697603e-07
-0.028241341675344086,-0.00021427902243942093,-7.649112646803902e-07
-0.02773777609934001,-0.00022827380188309194,-8.755494707610185e-07
-0.027204367909623967,-0.00024200933788533295,-9.931202557031248e-07
-0.026641806960082462,-0.00025547088160275954,-1.1174903105751478e-06
-0.026050836300380596,-0.0002686440424178753,-1.2485190415803064e-06
-0.02543225034475215,-0.00028151481407915854,-1.386058755704565e-06
-0.024786892920152383,-0.00029406959989538466,-1.5299548591982006e-06
-0.024115655212441363,-0.0003062952369285331,-1.68004606840418e-06
-0.023419473626751754,-0.00031817901913833136,-1.836164632420896e-06
-0.02269932757493921,-0.0003297087194387541,-1.9981365670651675e-06
-0.021956237199750074,-0.0003408726106324264,-2.1657818995829626e-06
-0.02119126104196778,-0.0003516594851928559,-2.338914923539283e-06
-0.02040549365343926,-0.0003620586738667076,-2.5173444633041742e-06
-0.019600063156170047,-0.00037206006306910995,-2.7008741475381287e-06
-0.01877612874609745,-0.0003816541110446768,-2.8893026910665752e-06
-0.017934878139590646,-0.0003908318627660988,-3.0824241845192693e-06
-0.01707752496064018,-0.0003995849635411565,-3.2800283910960833e-06
-0.016205306067222886,-0.00040790567129812225,-3.481901049805903e-06
-0.015319478816792504,-0.0004157868675191261,-3.687824184510215e-06
-0.01442131827378074,-0.00042322206679176944,-3.897576418087939e-06
-0.013512114365935685,-0.0004302054249516985,-4.110933291023806e-06
-0.012593169000085358,-0.00043673174579320377,-4.327667583710032e-06
-0.011665793150174752,-0.0004427964863307688,-4.547549641741025e-06
-0.01073130393033425,-0.00044839576060089605,-4.770347703473941e-06
-0.009791021663463179,-0.0004535263419993454,-4.995828229124002e-06
-0.008846266952915363,-0.00045818566415344004,-5.223756230662198e-06
-0.007898357763409261,-0.0004623718203325212,-5.4538956017836885e-06
-0.00694860651751747,-0.0004660835614027529,-5.686009447217507e-06
-0.005998317214960564,-0.00046932029233587243,-5.919860410652164e-06
-0.005048782583260245,-0.00047208206728542763,-6.155211000557488e-06
-0.0041012812704738786,-0.00047436958324886114,-6.39182391319106e-06
-0.00315707509348759,-0.00047618417233985153,-6.629462352088238e-06
-0.0022174063569119612,-0.0004775277927024514,-6.867890343348814e-06
-0.0012834952567783637,-0.000478403018105874,-7.106873046050895e-06
-0.0003565373800459995,-0.00047881302626508014,-7.346177057143634e-06
0.0005622986936275251,-0.00047876158593668477,-7.585570710194075e-06
0.0014718736857031573,-0.0004782530428418521,-7.82482436738871e-06
0.002371079808481572,-0.00047729230446830596,-8.06371070421625e-06
0.0032588428508446825,-0.0004758848238034744,-8.302004986284195e-06
0.004134124158088724,-0.0004740365820512411,-8.539485337747875e-06
0.004995922501008158,-0.00047175407038646685,-8.775933000857301e-06
0.005843275826584725,-0.0004690442708045686,-9.01113258615506e-06
0.006675262881435586,-0.00046591463612756355,-9.244872312888093e-06
0.007491004700276849,-0.00046237306923213546,-9.476944239228018e-06
0.008289665955020176,-0.0004584279015683112,-9.70714448192813e-06
0.009070456164482862,-0.00045408787103843544,-9.935273425079816e-06
0.009832630768869009,-0.0004493620993050975,-1.0161135917665699e-05
0.010575492076109487,-0.00044426006859385285,-1.0384541459640437e-05
0.011298390088312606,-0.0004387915980527473,-1.0605304376302087e-05
0.012000723216308937,-0.0004329668197265919,-1.0823243980746923e-05
0.01268193888895428,-0.0004267961542002761,-1.103818472422864e-05
0.013341534062346647,-0.00042029028596245085,-1.1249956334269322e-05
0.01397905563286914,-0.0004134601385386469,-1.1458393940394597e-05
0.014594100757211936,-0.00040631684944112664,-1.166333818738954e-05
0.015186317082505585,-0.00039887174498119725,-1.1864635335995121e-05
0.015755402889753568,-0.00039113631498813246,-1.2062137350987453e-05
0.01630110715261651,-0.00038312218747753996,-1.2255701976603872e-05
0.01682322951073377,-0.0003748411033117024,-1.2445192799301183e-05
0.01732162015397666,-0.0003663048908955248,-1.263047929785299e-05
0.01779617961354059,-0.0003575254409536455,-1.2811436880815282e-05
0.0182468584587209,-0.00034851468143558013,-1.2987946911412588e-05
0.018673656902765564,-0.0003392845525952085,-1.3159896719920285e-05
0.019076624326039928,-0.00032984698228800713,-1.3327179603641089e-05
0.019455858729219233,-0.00032021386152419234,-1.348969481459414e-05
0.019811506132469812,-0.0003103970203087701,-1.364734753505238e-05
0.020143759936646185,-0.0003004082037914911,-1.3800048841077446e-05
0.02045286025888648,-0.00029025904874260795,-1.3947715654210972e-05
0.020739093249117782,-0.0002799610603656069,-1.4090270681488026e-05
0.021002790387534755,-0.0002695255894564438,-1.4227642343943538e-05
0.021244327756755575,-0.0002589638099203712,-1.4359764693787742e-05
0.021464125276438636,-0.0002482866966620726,-1.4486577320433353e-05
0.02166264588329526,-0.00023750500387213912,-1.4608025245566906e-05
0.02184039463641762,-0.0002266292437422109,-1.4724058807470493e-05
0.02199791772696782,-0.00021566966565136455,-1.4834633534818887e-05
0.022135801372314808,-0.0002046362358765439,-1.4939710010200865e-05
0.022254670577318964,-0.00019353861788913546,-1.5039253723642285e-05
0.022355187749064084,-0.0001823861533075397,-1.5133234916441453e-05
0.022438051154788155,-0.00017118784358157664,-1.5221628415663733e-05
0.022503993215475887,-0.00015995233248901062,-1.530441345968138e-05
0.02255377863037777,-0.0001486878895275472,-1.5381573515185518e-05
0.0225882023318555,-0.0001374023942869889,-1.5453096086139153e-05
0.022608087275560348,-0.00012610332188513494,-1.5518972515182184e-05
0.02261428207628807,-0.00011479772954717284,-1.557919777804026e-05
0.022607658503148883,-0.0001034922444023136,-1.5633770271527633e-05
0.02258910884840434,-9.21930525644253e-05,-1.5682691595769318e-05
0.02255954318348753,-8.090588955645233e-05,-1.5725966331299538e-05
0.022519886514551283,-6.963603213194262e-05,-1.5763601811721637e-05
0.022471075848691683,-5.8388291541131884e-05,-1.5795607892639906e-05
0.022414057180495165,-4.716700828383517e-05,-1.5821996717596146e-05
0.02234978240630463,-3.597604838713522e-05,-1.5842782481763888e-05
0.02227920617134084,-2.4818801242723854e-05,-1.5857981194171354e-05
0.02220328265375527,-1.3698179036449826e-05,-1.5867610439241147e-05
0.02212296229049141,-2.6166178003881552e-06,-1.5871689138450357e-05
0.022039188452259356,8.423919885299537e-06,-1.587023731292913e-05
0.02195289407806369,1.94219405178803e-05,-1.5863275847828334e-05
0.021864998283040928,3.0376413608156454e-05,-1.5850826259296824e-05
0.021776402955820673,4.1286763917871856e-05,-1.5832910464915317e-05
0.021687989362938326,5.2152861997561605e-05,-1.5809550558436457e-05
0.021600614778173887,6.297501303283966e-05,-1.5780768589678858e-05
0.021515109154359675,7.375394401597306e-05,-1.5746586350416654e-05
0.021432271854524242,8.449078926819404e-05,-1.570702516709561e-05
0.02135286845925172,9.518707434663803e-05,-1.5662105701191903e-05
0.0212776276686515,0.00010584469837861384,-1.561184775801059e-05
0.021207238319877135,0.00011646591487574599,-1.5556270104697003e-05
0.02114234654391262,0.00012705331109169344,-1.5495390298205142e-05
0.021083553087790263,0.00013760978599961917,-1.5429224523932314e-05
0.021031410830296908,0.00014813852697914096,-1.5357787445687624e-05
0.02098642251940773,0.00015864298531656712,-1.5281092067613697e-05
0.02094903875743535,0.0001691268506357779,-1.5199149608625611e-05
0.020919656256006437,0.00017959402438913835,-1.5111969389869383e-05
0.02089861637925909,0.00019004859254795472,-1.501955873563511e-05
0.02088620399048911,0.00020049479764039176,-1.4921922888088023e-05
0.02088264661478422,0.0002109370102917101,-1.4819064936104997e-05
0.020888113928104544,0.0002213797004274323,-1.4710985758425211e-05
0.02090271758176384,0.00023182740830489937,-1.4597683981242129e-05
0.020926511369450552,0.00024228471554270297,-1.4479155950280228e-05
0.020959491741603737,0.00025275621632046656,-1.4355395717314435e-05
0.021001598668624822,0.0002632464889230237,-1.4226395041003562e-05
0.021052716849664758,0.0002737600678025961,-1.4092143401822157e-05
0.02111267725733981,0.0002843014163293473,-1.395262803078917e-05
0.021181259001546427,0.00029487490039406886,-1.3807833951608316e-05
0.021258191489797098,0.0003054847630169047,-1.3657744035755573e-05
0.02134315685810299,0.00031613510010387977,-1.3502339069975377e-05
0.021435792645065933,0.000326829837479672,-1.334159783557949e-05
0.021535694681153187,0.00033757270931122674,-1.3175497198881765e-05
0.021642420164546247,0.0003483672380226516,-1.3004012212048295e-05
0.02175549089508926,0.00035921671578756045,-1.2827116223595742e-05
0.021874396639270974,0.0003701241876711505,-1.2644780997731064e-05
0.02199859860071406,0.0003810924364811467,-1.245697684169299e-05
0.022127532970743373,0.0003921239693740111,-1.22636727402292e-05
0.022260614531769737,0.00040322100624963936,-1.2064836496323287e-05
0.02239724028374042,0.0004143854699535169,-1.1860434877272498e-05
0.02253679306211,0.00042561897828997946,-1.1650433765211624e-05
0.022678645115847145,0.00043692283783446876,-1.1434798311180512e-05
0.022822161616939438,0.0004482980395176654,-1.1213493091842478e-05
0.022966704078018926,0.000459745255941405,-1.098648226797771e-05
0.0231116336600483,0.00047126484037592184,-1.075372974389838e-05
0.023256314355035723,0.00048285682737969285,-1.0515199326959476e-05
0.023400116029342048,0.0004945209349757873,-1.0270854886370605e-05
0.023542417313317472,0.0005062565683114521,-1.0020660510548795e-05
0.02368260832485518,0.0005180628247209953,-9.764580662290684e-06
0.023820093217881644,0.0005299385001066795,-9.502580331083766e-06
0.023954292549899298,0.0005418820965486247,-9.234625181919939e-06
0.024084645464176654,0.0005538918310521437,-8.960681700019747e-06
0.024210611682242728,0.0005659656453387486,-8.680717330922025e-06
0.024331673302422648,0.000578101216584915,-8.394700615441108e-06
0.024447336401194765,0.0005902959690108193,-8.102601319042175e-06
0.024557132436165887,0.0006025470862201594,-7.80439055523443e-06
0.024660619451884632,0.000614851524192172,-7.5000409026313476e-06
0.024757383092152856,0.0006272060248281813,-7.189526515376259e-06
0.02484703742453701,0.0006396071299573538,-6.872823226679875e-06
0.02492922558398763,0.000652051195709485,-6.549908645263165e-06
0.025003620243066446,0.0006645344071662486,-6.220762244544232e-06
0.025069923916826303,0.0006770527932062218,-5.8853654444511145e-06
0.02512786911104074,0.0006896022414631885,-5.543701685783762e-06
0.025177218322363835,0.0007021785133215397,-5.19575649708758e-06
0.025217763898254513,0.0007147772588766943,-4.841517554038022e-06
0.025249327764035025,0.0007273940317922666,-4.480974731370782e-06
0.02527176102509116,0.0007400243039895482,-4.114120147425328e-06
0.025284943452957773,0.0007526634801090605,-3.7409482014006757e-06
0.025288782863846074,0.0007653069116882614,-3.3614556034513452e-06
0.02528321439711214,0.000777949911003501,-2.9756413977784047e-06
0.025268199700309437,0.0007905877645278564,-2.5835069788955654e-06
0.025243726027195282,0.0008032157459597326,-2.1850561012736682e-06
0.02520980525520737,0.0008158291287803333,-1.7802948825886517e-06
0.025166472829066828,0.0008284231983014019,-1.3692318008182178e-06
0.025113786637257635,0.000840993263167983,-9.518776854508716e-07
0.025051825827588012,0.0008535346662841945,-5.282457030878272e-07
0.02498068956696699,0.0008660427951328332,-9.835133773357025e-08
0.024900495749009467,0.0008785130914618273,3.377876339150949e-07
0.024811379651528145,0.0008909410603119617,7.801511718585422e-07
0.02471349254444019,0.0009033222783609538,1.2287170065267711e-06
0.024607000247612053,0.0009156524015589668,1.6834606765067512e-06
0.024492081638965192,0.0009279271720306112,2.1443555699041457e-06
0.024368927116220657,0.0009401424242194076,2.6113729689666504e-06
0.024237737019938747,0.0009522940902534474,3.084482097584864e-06
0.024098720029097624,0.0009643782045157066,3.5636501712771526e-06
0.023952091541715285,0.0009763909074084097,4.048842449258182e-06
0.023798072051773946,0.000988328448306782,4.54002228818698e-06
0.02363688553037737,0.0010001871877023199,5.037151197189256e-06
0.023468757815292857,0.0010119635985387375,5.54018889374952e-06
0.023293915010771882,0.0010236542667452536,6.049093360070518e-06
0.023112581899584227,0.0010352558909728427,6.563820899500042e-06
0.022924980370587742,0.0010467652815403857,7.084326192628349e-06
0.022731327866454366,0.0010581793585996463,7.610562352663357e-06
0.022531835857005352,0.0010694951495305112,8.142480979695895e-06
0.02232670834478955,0.0010807097855809599,8.680032213473762e-06
0.02211614041106311,0.001091820497769923,9.223164784311482e-06
0.021900316811990863,0.0011028246120756864,9.771826061772884e-06
0.02167941063652885,0.0011137195439378164,1.032596210077626e-05
0.021453582038822753,0.0011245027921066542,1.0885517684787377e-05
0.0212229770586628,0.0011351719318810256,1.1450436365784297e-05
0.02098772654390059,0.0011457246077816664,1.202066050069997e-05
0.020747945189737663,0.001156158525715076,1.2596131284074155e-05
0.020503730711688234,0.0011664714446904326,1.3176788776675532e-05
0.020255163171199006,0.0011766611681611543,1.376257192988843e-05
0.02000230447362547,0.0011867255350723606,1.4353418605696808e-05
0.01974519805649797,0.0011966624107048913,1.494926559214112e-05
0.01948386878263459,0.0012064696774146744,1.555004861417101e-05
0.019218323049861853,0.0012161452253727986,1.6155702339867878e-05
0.01894854912824778,0.001225686943417326,1.6766160382065408e-05
0.018674517736112225,0.001235092710133416,1.7381355295453094e-05
0.018396182865354077,0.0012443603852837824,1.8001218569307394e-05
0.018113482863268932,0.0012534878017159382,1.8625680616057324e-05
0.017826341771908432,0.0012624727578747325,1.9254670755954993e-05
0.01753467091849363,0.001271313011047333,1.988811719818551e-05
0.017238370742797566,0.0012800062714626557,2.0525947018813006e-05
0.016937332840734527,0.0012885501973585387,2.1168086136018306e-05
0.01663144219793451,0.001296942391118206,2.181445928313749e-05
0.01632057958313944,0.0013051803965634743,2.246498998005791e-05
0.016004624068540207,0.0013132616974763942,2.3119600503567875e-05
0.01568345564288422,0.0013211837174042502,2.3778211857288035e-05
0.0153569578833491,0.0013289438207858086,2.444074374183555e-05
0.015025020653006019,0.0013365393154198973,2.5107114525886975e-05
0.014687542791573832,0.0013439674562810422,2.5777241218812212e-05
0.014344434767531646,0.0013512254506708185,2.6451039445550177e-05
0.013995621259479488,0.0013583104646775713,2.7128423424387273e-05
0.013641043634709148,0.0013652196309011184,2.7809305948281945e-05
0.013280662294402482,0.0013719500573833962,2.8493598370353073e-05
0.012914458858171008,0.0013784988376715397,2.918121059411681e-05
0.012542438165048072,0.0013848630619273444,2.987205106901653e-05
0.012164630072099834,0.0013910398289866315,3.056602679174502e-05
0.011781091035276291,0.0013970262592634755,3.1263043313807546e-05
0.011391905459853042,0.0014028195083872579,3.196300475572023e-05
0.010997186809942319,0.0014084167814547067,3.266581382818072e-05
0.010597078468504688,0.0014138153477743186,3.3371371860487975e-05
0.010191754341560914,0.001419012555976835,3.407957883642576e-05
0.00978141920302848,0.0014240058493629824,3.4790333437760717e-05
0.0093663087793503,0.0014287927813585771,3.5503533095441104e-05
0.008946689575088885,0.001433371030947187,3.621907404851755e-05
0.008522858441364975,0.0014377384179513006,3.693685141074217e-05
0.008095141888586802,0.0014418929180337885,3.765675924473844e-05
0.00766389514451957,0.001445832677292065,3.8378690643569906e-05
0.007229500959868246,0.0014495560263181621,3.910253781947246e-05
0.006792368166595899,0.001453061493599778,3.982819219945195e-05
0.006352929999479487,0.0014563478181412969,4.055554452738722e-05
0.005911642197613483,0.0014594139611905702,4.1284484972220186e-05
0.005468980908692789,0.0014622591169671467,4.201490324175961e-05
0.0050254404232344466,0.0014648827223001286,4.2746688701576434e-05
0.004581530767220153,0.0014672844650977423,4.3479730498425904e-05
0.004137775180151674,0.0014694642915845852,4.4213917687596485e-05
0.003694707503139147,0.001471422412255408,4.494913936355648e-05
0.00325286949961696,0.001473159306506097,4.568528479324686e-05
0.0028128081289007538,0.0014746757259132264,4.642224355135169e-05
0.002375072789781519,0.0014759726961428969,4.715990565686572e-05
0.0019402125477787655,0.001477051517477287,4.7898161710270765e-05
0.0015087733568260652,0.0014779137639534382,4.8636903030628444e-05
0.0010812952850493762,0.001478561281113907,4.937602179189528e-05
0.0006583097555335972,0.001478996182374053,5.011541115776727e-05
0.00024033681616832483,0.0014792208440169783,5.0854965414365026e-05
-0.00017211754344251365,0.0014792378988351597,5.159458010007806e-05
-0.000578564006777209,0.0014790502284476048,5.233415213189875e-05
-0.0009785324542153232,0.0014786609543323565,5.307357992759374e-05
-0.001371574373919425,0.0014780734276253228,5.3812763523083157e-05
-0.0017572651397770932,0.0014772912177468988,5.4551604684426215e-05
-0.002135206137355357,0.0014763180999276158,5.529000701384484e-05
-0.002505026717441406,0.0014751580417139167,5.6027876049255224e-05
-0.0028663859542913594,0.0014738151885459836,5.67651193568202e-05
-0.0032189741843712694,0.001472293848511318,5.7501646616084526e-05
-0.003562514302440701,0.001470598476389615,5.823736969730976e-05
-0.003896762795588737,0.0014687336571151078,5.897220273068594e-05
-0.004221510501727112,0.0014667040887907789,5.970606216716241e-05
-0.004536583085081798,0.0014645145653940767,6.0438866830708625e-05
-0.004841841225531269,0.0014621699593164235,6.117053796188625e-05
-0.00513718052139937,0.0014596752038796908,6.190099925268528e-05
-0.005422531108732391,0.0014570352759721579,6.263017687264824e-05
-0.005697857006078336,0.001454255178943455,6.335799948637715e-05
-0.005963155201878409,0.001451339925891466,6.408439826258588e-05
-0.006218454509787387,0.0014482945234635496,6.480930687492464e-05
-0.006463814223742174,0.0014451239562801672,6.553266149486056e-05
-0.006699322608413102,0.0014418331720721285,6.625440077694864e-05
-0.00692509526184277,0.0014384270676045645,6.69744658368678e-05
-0.007141273386198064,0.0014349104754425542,6.769280022262959e-05
-0.007348022000149624,0.0014312881515959673,6.840934987938922e-05
-0.00754552812315385,0.0014275647640651413,6.91240631083045e-05
-0.007733998957872483,0.0014237448822948847,6.98368905198945e-05
-0.007913660092201019,0.0014198329675323663,7.054778498235132e-05
-0.008084753736539604,0.001415833364075181,7.125670156525321e-05
-0.00824753700524597,0.0014117502913897346,7.196359747911943e-05
-0.008402280245548866,0.001407587837077036,7.266843201123613e-05
-0.008549265414312553,0.0014033499506620707,7.337116645817091e-05
-0.00868878450315453,0.001399040438182704,7.40717640553821e-05
-0.008821138013694451,0.0013946629575534916,7.477018990431615e-05
-0.008946633485063582,0.001390221014678802,7.546641089737423e-05
-0.00906558407535922,0.0013857179602886963,7.61603956411161e-05
-0.009178307198360618,0.0013811569874702663,7.685211437805584e-05
