acceleration,velocity,displacement
-0.02614255968805924,0.0,0.0
-0.026298904520934335,-1.3110366052248395e-05,-3.277591513062099e-09
-0.026452856809227442,-2.629830638478884e-05,-1.3129759622321408e-08
-0.026605116058678102,-3.956279960176523e-05,-2.9595036118959927e-08
-0.026756378527535915,-5.290317324831873e-05,-5.271152933148092e-08
-0.026907336159226768,-6.63191019200094e-05,-8.251709812356295e-08
-0.02705867597120284,-7.98106049526168e-05,-1.190495248417195e-07
-0.027211079883073166,-9.33780439161858e-05,-1.6234668705892016e-07
-0.027365224951108973,-0.00010702212012473134,-2.1244672806914946e-07
-0.02752178396302428,-0.00012074387235326465,-2.6938822618864845e-07
-0.027681426337487977,-0.00013454467492839272,-3.3321036300906277e-07
-0.02784481926688044,-0.00014842623632948482,-4.039530908235322e-07
-0.02801262903800692,-0.00016239059840570666,-4.8165729950733e-07
-0.02818552245988495,-0.00017644013628017962,-5.663649831788016e-07
-0.028364168317306947,-0.0001905775589744776,-6.581194069924658e-07
-0.02854923875730806,-0.00020480591074313134,-7.569652744218681e-07
-0.02874141051164175,-0.0002191285730603688,-8.629488953727431e-07
-0.028941365865570265,-0.0002335492671546718,-9.761183554265034e-07
-0.029149793296061526,-0.00024807205694507973,-1.0965236864514412e-06
-0.029367387712274703,-0.0002627013521971638,-1.2242170387370021e-06
-0.0295948502354989,-0.0002774419116841072,-1.3592528547073199e-06
-0.02983288745991249,-0.00029229884610796003,-1.5016880441553367e-06
-0.030082210146660564,-0.0003072776205096033,-1.6515821608097276e-06
-0.030343531323374456,-0.00032238405587711207,-1.8089975799064063e-06
-0.03061756378462315,-0.0003376243296541115,-1.9739996762892124e-06
-0.030905017012000935,-0.0003530049748532675,-2.1466570024160573e-06
-0.031206593557534534,-0.0003685328774956514,-2.327041465503287e-06
-0.031522984961133885,-0.0003842152721253185,-2.5152285029085296e-06
-0.03185486729263147,-0.00040005973518875983,-2.7112972547370493e-06
-0.0322028964122048,-0.0004160741761149689,-2.9153307325629817e-06
-0.032567703031056286,-0.0004322668259757842,-3.1274159830856697e-06
-0.032949887634031484,-0.00044864622364205613,-3.34764424549013e-06
-0.03335001530292052,-0.00046522119937629416,-3.5761111012447174e-06
-0.033768610458536186,-0.0004820008558166583,-3.8129166150429558e-06
-0.03420615152605047,-0.000498994546312805,-4.058165465575322e-06
-0.03466306552441288,-0.0005162118505754208,-4.3119670647973785e-06
-0.03513972258687861,-0.0005336625476032436,-4.574435664342045e-06
-0.035636430431894704,-0.000551356585857937,-4.84569044770734e-06
-0.036153428817396964,-0.0005693040506702598,-5.125855606839389e-06
-0.036690884027223473,-0.0005875151288814149,-5.415060401727307e-06
-0.03724888345736862,-0.000606000070752563,-5.713439201635802e-06
-0.03782743038836089,-0.0006247691492139954,-6.021131506627442e-06
-0.038426439041058524,-0.0006438326165713503,-6.338281948073778e-06
-0.039045730012367,-0.0006632006588347067,-6.665040266925293e-06
-0.03968502617550395,-0.0006828833478816744,-7.001561268604388e-06
-0.04034394911341371,-0.0007028905917039038,-7.348004753500783e-06
-0.041022016144614544,-0.0007232320830184109,-7.704535422181361e-06
-0.04171863800393321,-0.0007439172465555479,-8.071322754574851e-06
-0.042433117253693996,-0.0007649551853699546,-8.448540862556227e-06
-0.043164647518754234,-0.0007863546265630667,-8.836368315539483e-06
-0.043912313656522615,-0.0008081238668568859,-9.234987938894472e-06
-0.044675092983692266,-0.0008302707185169396,-9.644586585237927e-06
-0.045451857678536385,-0.0008528024561824967,-1.0065354878912787e-05
-0.04624137845948047,-0.0008757257652170009,-1.049748693426266e-05
-0.04704232960950225,-0.0008990466922342466,-1.0941180048625473e-05
-0.04785329537527588,-0.0009227705984804412,-1.1396634371304145e-05
-0.04867277772322509,-0.0009469021167550665,-1.1864052550113021e-05
-0.04949920538537079,-0.0009714451125322155,-1.234363935743484e-05
-0.050330944080813844,-0.0009964026498987615,-1.2835601298042585e-05
-0.051166307757388875,-0.0010217769628583122,-1.3340146201231854e-05
-0.052003570663905645,-0.0010475694324636358,-1.3857482800062341e-05
-0.052840980038575854,-0.0010737805701392562,-1.4387820300713064e-05
-0.05367676918651332,-0.0011004100074455286,-1.493136794510926e-05
-0.05450917071811639,-0.001127456492421686,-1.5488334570076062e-05
-0.05533642972742218,-0.0011549178925330708,-1.6058928166314753e-05
-0.056156816703781746,-0.0011827912041408718,-1.664335544048324e-05
-0.05696863999072708,-0.001211072568314499,-1.724182138359708e-05
-0.05777025762923072,-0.0012397572927194886,-1.7854528848855576e-05
-0.05856008844481717,-0.0012688398792380007,-1.8481678141844947e-05
-0.05933662225970423,-0.001298314056914131,-1.912346662588298e-05
-0.06009842913452813,-0.001328172819762689,-1.9780088345052184e-05
-0.0608441675672027,-0.0013584084689381218,-2.0451733667227388e-05
-0.06157259159417937,-0.0013890126587284674,-2.1138588949144035e-05
-0.062282556750210855,-0.001419976445814565,-2.1840836225279794e-05
-0.0629730248494823,-0.0014512903412144884,-2.2558652922037057e-05
-0.06364306755746771,-0.0014829443643162258,-2.3292211598419735e-05
-0.0642918687312305,-0.0015149280983884003,-2.404167971409589e-05
-0.06491872551634603,-0.0015472307469502945,-2.4807219425430562e-05
-0.06552304820203057,-0.0015798411903798887,-2.5588987409763108e-05
-0.06610435885546731,-0.0016127480421442631,-2.6387134717894145e-05
-0.06666228878445643,-0.001645939704054244,-2.720180665444377e-05
-0.06719657491087695,-0.0016794044199780775,-2.803314268545185e-05
-0.06770705516415401,-0.0017131303274968352,-2.8881276372320578e-05
-0.06819366301216329,-0.0017471055070409146,-2.9746335330955016e-05
-0.0686564212351252,-0.0017813180281027368,-3.062844121474093e-05
-0.06909543502493394,-0.0018157559921677517,-3.152770971980855e-05
-0.0695108844699495,-0.0018504075720414724,-3.2444250610860856e-05
-0.06990301647194473,-0.001885261047276946,-3.3378167765690464e-05
-0.07027213613896885,-0.0019203048354296745,-3.432955923636712e-05
-0.0706185977011819,-0.0019555275188897123,-3.5298517324946966e-05
-0.0709427950027418,-0.001990917867065693,-3.628512867143582e-05
-0.071245151631722,-0.002026464853724309,-3.728947435163332e-05
-0.07152611076247065,-0.0020621576693228573,-3.831162998239511e-05
-0.0717861247992303,-0.0020979857282132828,-3.935166583177914e-05
-0.0720256449246415,-0.002133938670644251,-4.040964693149352e-05
-0.07224511067181902,-0.002170006359543366,-4.1485633189040425e-05
-0.07244493965285306,-0.002206178872124534,-4.25796794969574e-05
-0.0726255175863972,-0.0022424464864343467,-4.369183583659712e-05
-0.07278718877027567,-0.0022787996630235148,-4.4822147373961584e-05
-0.07293024714346794,-0.002315229022001951,-4.597065454521795e-05
-0.07305492807651638,-0.002351725315806947,-4.7137393129670174e-05
-0.07316140101770881,-0.002388279398080503,-4.8322394308142035e-05
-0.07324976310118766,-0.002424882189110227,-4.9525684704939717e-05
-0.07332003379472962,-0.0024615246383342063,-5.0747286411800825e-05
-0.07337215063721722,-0.002498197684442193,-5.1987216992494925e-05
-0.07340596609541832,-0.002534892213625352,-5.324548946701181e-05
-0.07342124555625892,-0.0025715990165382716,-5.4522112274552717e-05
-0.07341766645983008,-0.002608308744542294,-5.581708921482286e-05
-0.07339481856743985,-0.0026450118657991113,-5.713041936740821e-05
-0.0733522053481211,-0.0026816986217780016,-5.8462096989302484e-05
-0.07328924645554655,-0.0027183589847289183,-5.981211139092921e-05
-0.07320528125330733,-0.002754982616656132,-6.118044679127548e-05
-0.07309957333039586,-0.002791558830302058,-6.256708215301502e-05
-0.07297131593339345,-0.0028280765526180053,-6.397199099874503e-05
-0.07281963822924706,-0.0028645242911586656,-6.53951412096892e-05
-0.07264361230209285,-0.0029008901037915007,-6.683649480842674e-05
-0.07244226077958738,-0.0029371615720619206,-6.82960077273901e-05
-0.0722145649822588,-0.002973325778502382,-6.977362956503117e-05
-0.07195947349784042,-0.003009369288122407,-7.126930333168736e-05
-0.0716759111016665,-0.0030452781342722836,-7.278296518728603e-05
-0.07136278796931389,-0.0030810378090400286,-7.431454417311412e-05
-0.0710190091542669,-0.003116633258320924,-7.586396193995436e-05
-0.07064348432817916,-0.0031520488816915355,-7.743113247495747e-05
-0.07023513779854035,-0.003187268537223215,-7.901596182968616e-05
-0.06979291882134753,-0.003222275551378187,-8.061834785183651e-05
-0.06931581221318282,-0.0032570527341368198,-8.223817992321526e-05
-0.06880284924472943,-0.003291582399501298,-8.387533870662479e-05
-0.06825311877417531,-0.003325846391506024,-8.552969590437662e-05
-0.06766577855590453,-0.0033598261158385443,-8.720111403121276e-05
-0.06704006663354768,-0.0033935025771359073,-8.888944620445637e-05
-0.0663753126961315,-0.003426856421968327,-9.059453595423243e-05
-0.06567094924879865,-0.0034598679874545592,-9.231621705658816e-05
-0.06492652243217252,-0.003492517355374802,-9.40543133922955e-05
-0.06414170231637704,-0.0035247844115619395,-9.580863883402969e-05
-0.06331629249383255,-0.0035566489102644917,-9.75789971644863e-05
-0.062450238798594564,-0.0035880905430875987,-9.936518202782431e-05
-0.061543636989517474,-0.0036190890120346266,-0.00010116697691660488
-0.06059673924889689,-0.0036496241060942304,-0.00010298415519613709
-0.059609959366895435,-0.0036796757807481787,-0.00010481648016784768
-0.05858387650594409,-0.0037092242397163883,-0.00010666370517296382
-0.05751923746896833,-0.0037382500182101164,-0.00010852557373744545
-0.05641695742806264,-0.003766734066934374,-0.00011040181975873157
-0.05527811910141181,-0.0037946578360667426,-0.00011229216773448185
-0.05410397039464851,-0.0038220033584407576,-0.00011419633303310873
-0.0528959205497336,-0.003848753331176853,-0.00011611402220551314
-0.05165553486753775,-0.003874891195031171,-0.00011804493333706514
-0.05038452808525186,-0.0039004012107693685,-0.00011998875643851528
-0.04908475649857169,-0.003925268531915324,-0.00012194517387418645
-0.047758208928074974,-0.003949479273271986,-0.0001239138608254833
-0.04640699664086411,-0.0039730205746642214,-0.00012589448578746734
-0.04503334234740126,-0.003995880659411288,-0.00012788671109598623
-0.043639568395865996,-0.004018048887097105,-0.00012989019348261333
-0.04222808428473569,-0.004039515800267255,-0.00013190458465445442
-0.0408013736141577,-0.004060273164741978,-0.00013392953189570673
-0.03936198060270097,-0.004080314003296193,-0.00013596467868771627
-0.03791249630965115,-0.004099632622524281,-0.00013800966534417139
-0.03645554472139212,-0.004118224632782042,-0.00014006412965799795
-0.03499376887614552,-0.004136086961181427,-0.00014212770755648883
-0.03352981720599554,-0.004153217857701962,-0.00014420003376120968
-0.03206633026440603,-0.004169616894569563,-0.00014628074244927756
-0.030605927981811776,-0.0041852849591311175,-0.00014836946791270273
-0.02915119755454812,-0.004200224240515207,-0.0001504658452126143
-0.027704682031169322,-0.004214438210411637,-0.00015256951082534602
-0.02626886962622547,-0.004227931598325986,-0.00015468010327753044
-0.024846183772779053,-0.004240710361675737,-0.00015679726376753087
-0.023438973920859005,-0.004252781651099147,-0.00015892063677072459
-0.022049507091496265,-0.004264153771352235,-0.00016104987062633743
-0.020679960196353177,-0.0042748361381741975,-0.00016318461810371903
-0.019332413129095467,-0.00428483923150556,-0.00016532453694613898
-0.0180088426301538,-0.0042941745454453725,-0.0001674692903903767
-0.01671111692391872,-0.004302854535333891,-0.00016961854766057153
-0.015440991125550054,-0.004310892562346258,-0.00017177198443499157
-0.01420010341101232,-0.004318302835980399,-0.00017392928328457323
-0.012989971938959354,-0.004325100354817892,-0.0001760901340822728
-0.011811992508866595,-0.0043313008459298485,-0.00017825423438245973
-0.010667436937691475,-0.004336920703291488,-0.00018042128976976507
-0.009557452133899672,-0.004341976925559385,-0.00018259101417697778
-0.00848305983614702,-0.004346487053551897,-0.0001847631301717556
-0.007445156964136188,-0.004350469107751968,-0.00018693736921208156
-0.006444516510318715,-0.004353941526120582,-0.0001891134718705497
-0.005481788888708554,-0.004356923102470339,-0.00019129118802769742
-0.00455750364414071,-0.004359432925603551,-0.0001934702770347159
-0.003672071406811135,-0.0043614903193662895,-0.00019565050784595836
-0.002825785964629501,-0.00436311478370915,-0.00019783165912172723
-0.0020188263371191313,-0.004364325936784587,-0.00020001351930185068
-0.0012512587674399574,-0.004365143458060727,-0.000202195886650562
-0.0005230385813881471,-0.004365587032397934,-0.00020437856927317668
0.0001659881234683854,-0.0043656762950124136,-0.00020656138510502926
0.0008160829914771845,-0.004365430777233678,-0.0002087441618730908
0.0014276141455143265,-0.004364869852949429,-0.00021092673703063656
0.0020010551404574467,-0.004364012685627937,-0.0002131089576652809
0.0025369841017033636,-0.004362878175817397,-0.00021529068038064221
0.0030360830026065263,-0.004361484909041319,-0.0002174717711518569
0.003499137026771734,-0.004359851104033975,-0.0002196521051551257
0.0039270339486973125,-0.004357994561290108,-0.00022183156657145674
0.004320763448158538,-0.004355932611940894,-0.0002240100483647645
0.004681416258798962,-0.004353682067014154,-0.00022618745203450326
0.005010183046765769,-0.0043512591671877624,-0.00022836368734305374
0.0053083529207331726,-0.004348679533195888,-0.00023053867201814965
0.005577311487576093,-0.004345958117093811,-0.00023271233143072208
0.0058185383847082625,-0.00434310915462574,-0.00023488459824865196
0.0060336042350353485,-0.004340146118970804,-0.0002370554120670511
0.006224166980897041,-0.004337081676166821,-0.0002392247190158355
0.006391967562687878,-0.004333927642530925,-0.00024139247134550993
0.006538824919897037,-0.004330694944410279,-0.00024355862699224523
0.006666630305479668,-0.004327393580603934,-0.0002457231491234988
0.006777340913666779,-0.004324032587799148,-0.00024788600566559956
0.00687297282344596,-0.00432062000936487,-0.00025004716881489055
0.006955593256840862,-0.004317162867844798,-0.00025220661453419295
0.007027312149721509,-0.004313667141493158,-0.0002543643220365274
0.00709027304071179,-0.00431013774519555,-0.0002565202732581996
0.007146643302990175,-0.004306578516109624,-0.0002586744523235259
0.007198603770842204,-0.004302992204341166,-0.0002608268450036386
0.00724833784091634,-0.004299380468938226,-0.0002629774381719584
0.007298020149022917,-0.004295743879440741,-0.00026512621925905316
0.007349804934889684,-0.0042920819231697625,-0.0002672731757097058
0.0074058142173012,-0.004288393018381715,-0.0002694182944450937
0.007468125916109384,-0.0042846745333483625,-0.0002715615613330262
0.0075387620690906924,-0.004280922811352062,-0.0002737029606692013
0.007619677289808429,-0.004277133201512338,-0.0002758424746724174
0.007712747596462005,-0.00427330009529077,-0.0002779800829966182
0.007819759721187907,-0.004269416968461358,-0.00028011576226255624
0.007942400997018257,-0.0042654764282818065,-0.00028224948561174205
0.00808224991802154,-0.004261470265553046,-0.00028438122228520077
0.008240767466645722,-0.004257389511206879,-0.00028651093722939074
0.008419289290654552,-0.004253224497017554,-0.00028863859073144686
0.008619018792547018,-0.004248964919996753,-0.0002907641380857004
0.008841021176949989,-0.004244599910004379,-0.0002928875292932007
0.009086218491744433,-0.004240118100087205,-0.0002950087087957236
0.009355385694407968,-0.004235507699040667,-0.00029712761524550553
0.00964914777251745,-0.004230756565673935,-0.0002992441813116842
0.009967977945240057,-0.0042258522842444956,-0.0003013583335241638
0.01031219696970115,-0.00422078224051576,-0.00030346999215535386
0.010681973570365265,-0.004215533697880743,-0.000305579071139953
0.01107732600132696,-0.00421009387298782,-0.0003076854780326701
0.01149812474401354,-0.004204450010301485,-0.00030978911400349245
0.011944096337188173,-0.004198589455031185,-0.0003118898738698256
0.012414828328747265,-0.0041924997238647005,-0.0003139876461645496
0.012909775327500487,-0.004186168572950639,-0.00031608231323875343
0.013428266122617114,-0.004179584062588109,-0.0003181737513976381
0.013969511833234234,-0.0041727346180991465,-0.0003202618310678099
0.014532615046048008,-0.004165609086379326,-0.0003223464169939295
0.015116579885468388,-0.0041581967876464475,-0.0003244273684624359
0.01572032293719926,-0.004150487561940781,-0.00032650453954983274
0.01634268491640582,-0.0041424718099773794,-0.00032857777939281226
0.016982442939474523,-0.00413414052801341,-0.00033064693247730997
0.017638323227326367,-0.00412548533647171,-0.00033271183894343124
0.018309014045961587,-0.004116498502153388,-0.0003347723349030875
0.01899317868358395,-0.004107172953971001,-0.0003368282527671186
0.01968946827253615,-0.0040975022922319715,-0.0003388794215786694
0.02039653428254127,-0.0040874807915932026,-0.00034092566734962565
0.021113040534237494,-0.004077103397889008,-0.0003429668133969962
0.021837674601738476,-0.004066365719105014,-0.0003450026806762447
0.02256915848122102,-0.004055264010834274,-0.0003470330881087295
0.02330625839650611,-0.004043795156614842,-0.0003490578529005918
0.02404779359888157,-0.004031956643615995,-0.0003510767908506495
0.024792644006811082,-0.004019746534214572,-0.00035308971664510714
0.025539756528913292,-0.0040071634340806414,-0.0003550964441371809
0.02628814992536284,-0.003994206457467072,-0.0003570967866100678
0.027036918090646775,-0.00398087519046307,-0.00035909055702205034
0.027785231682694655,-0.003967169653019734,-0.00036107756823292107
0.028532338078070704,-0.003953090260579543,-0.0003630576332113209
0.029277559700305277,-0.003938637786134949,-0.0003650305652229995
0.030020290844008393,-0.00392381332349887,-0.00036699617800040795
0.030759993186839207,-0.003908618252491158,-0.00036895428589440543
0.03149619022721522,-0.0038930542066376445,-0.0003709047040091876
0.032228460899132526,-0.0038771230438560574,-0.000372847248321811
0.032956432601865294,-0.003860826820480808,-0.0003747817357878952
0.03367977385426656,-0.003844167768866775,-0.0003767079844352321
0.03439818675050964,-0.003827148278715581,-0.0003786258134471277
0.03511139935970185,-0.003809770882188028,-0.00038053504323735357
0.03581915818005458,-0.003792038242803089,-0.00038243549551860134
0.03652122073645411,-0.003773953148073962,-0.0003843269933663206
0.037217348400367695,-0.0037555185057897567,-0.00038620936127978657
0.037907299507119,-0.003736737343812885,-0.0003880824252421872
0.03859082283936357,-0.003717612813226264,-0.00038994601278144697
0.03926765153276037,-0.003698148194633233,-0.00039179995303341187
0.03993749744173634,-0.003678346907389609,-0.0003936440768089176
0.04060004598633213,-0.003658212521532592,-0.00039547821666614813
0.04125495149216372,-0.003637748772162968,-0.000397302206989572
0.04190183303721604,-0.003616959576030623,-0.0003991158840766204
0.04254027083020182,-0.003595849050063768,-0.000400919086233144
0.04316980316130995,-0.00357442153156589,-0.00040271165387855144
0.04378992397942563,-0.0035526815997807062,-0.0004044934296613881
0.04440008115056969,-0.0035306340984982074,-0.0004062642585859578
0.04499967543609342,-0.0035082841593515415,-0.00040802398815042025
0.04558806020178736,-0.0034856372254420715,-0.00040977246849661865
0.04616454184242095,-0.0034626990749310194,-0.0004115095525717119
0.04672838088948533,-0.003439475844248043,-0.00041323509630150667
0.047278793763815385,-0.003415974050584718,-0.00041494895877521487
0.04781495513438201,-0.0033922006133601684,-0.0004166510024412011
0.048336000848210894,-0.00336816287436452,-0.00041834109331313226
0.04884103140683565,-0.0033438686163007585,-0.00042001910118579856
0.049329115980586216,-0.003319326079453903,-0.0004216848998597372
0.04979929696674565,-0.0032945439762170703,-0.0004233383673736549
0.05025059510697825,-0.0032695315031986394,-0.0004249793862435088
0.0506820151834787,-0.0032442983506260252,-0.000426607843706965
0.05109255231055264,-0.0032188547087525173,-0.0004282236319718096
