acceleration,velocity,displacement
-0.02362014796985107,0.0,0.0
-0.023648078457190275,-1.1817056606760336e-05,-2.954264151690084e-09
-0.0237331469441238,-2.3662362957088855e-05,-1.1824119042652381e-08
-0.02387818601417752,-3.556519619666418e-05,-2.663100883109064e-08
-0.024084573184731936,-4.755588599639154e-05,-4.741127937935457e-08
-0.024352234733638033,-5.9665087975984034e-05,-7.421652287244847e-08
-0.024679684468488665,-7.19230677765157e-05,-1.071135618105734e-07
-0.025064096419255937,-8.435901299845185e-05,-1.461840820043153e-07
-0.025501408951188718,-9.700038934106302e-05,-1.9152393258919403e-07
-0.02598645669514411,-0.00010987235575264624,-2.432421188626214e-07
-0.02651312612683681,-0.00012299725145814146,-3.014595206653183e-07
-0.02707453050684093,-0.0001363941656165609,-3.6630737493399386e-07
-0.027663200005380806,-0.00015007859824461633,-4.3792556589928817e-07
-0.02827128255260042,-0.00016406221888411163,-5.164607701814702e-07
-0.028890749776109004,-0.00017835272696628898,-6.020645066440703e-07
-0.029513600893344993,-0.0001929538146336525,-6.948911420440557e-07
-0.030132056945270286,-0.0002078652290933063,-7.950959029757955e-07
-0.030738738859825115,-0.00022308292804458017,-9.028329422602671e-07
-0.03132682464138095,-0.0002385993189198817,-1.0182535040013825e-06
-0.03189018216401595,-0.00025440357062123093,-1.1415042263866607e-06
-0.03242347421546121,-0.0002704819847161002,-1.2727256152209934e-06
-0.032922232439891,-0.00028681841137993824,-1.412050714245003e-06
-0.033382897769709846,-0.0003033946939323385,-1.5596039905730721e-06
-0.033802827069733955,-0.00032019112514219944,-1.7155004453417066e-06
-0.03418026831925068,-0.0003371868989894456,-1.8798449513746178e-06
-0.034514309136863326,-0.0003543605433534741,-2.052731811960348e-06
-0.03480480613199778,-0.00037169032217068936,-2.234244528341389e-06
-0.03505230550273357,-0.0003891546000793722,-2.4244557589039045e-06
-0.03525796707993693,-0.00040673216822503984,-2.6234274509800074e-06
-0.035423503203608125,-0.0004244025357959261,-2.831211126985249e-06
-0.03555114064473813,-0.0004421461967580127,-3.0478483101237337e-06
-0.03564360936085023,-0.0004599448842594098,-3.2733710803780892e-06
-0.035704157064889115,-0.0004777818258658446,-3.507802757909403e-06
-0.03573658419850417,-0.000495642011181693,-3.7511587171712873e-06
-0.0357452907022461,-0.0005135124799068806,-4.003447339943431e-06
-0.03573532442733995,-0.0005313826336892771,-4.26467111834247e-06
-0.0357124211481299,-0.0005492445700831446,-4.534827919285576e-06
-0.035683027324242146,-0.0005670934322012376,-4.813912419856671e-06
-0.03565429836004901,-0.0005849277636223104,-5.101917718812558e-06
-0.03563406717000623,-0.0006027498550048242,-5.398837123469342e-06
-0.03563078062727689,-0.0006205660669541449,-5.704666103959084e-06
-0.03565340436298181,-0.0006383871132017096,-6.0194043989980475e-06
-0.035711298308309325,-0.0006562282888695325,-6.343058249515858e-06
-0.035814065665655814,-0.0006741096298630237,-6.675642729198997e-06
-0.035971376772467416,-0.0006920559904725545,-7.017184134282892e-06
-0.036192767667001635,-0.0007100970265824217,-7.367722388546636e-06
-0.03648741274567964,-0.000728267071685592,-7.72731341311364e-06
-0.03686387261774274,-0.0007466048930264476,-8.09603140429165e-06
-0.03732982169977137,-0.0007651533166058262,-8.473970956699718e-06
-0.03789176443244329,-0.0007839587131388798,-8.861248964135895e-06
-0.03855475345496902,-0.0008030703426107329,-9.258006228073297e-06
-0.03932212654382951,-0.0008225395626104325,-9.66440870437859e-06
-0.040195280587476935,-0.0008424189143932591,-1.0080648323629513e-05
-0.04117350002128875,-0.0008627611095454505,-1.050694332961419e-05
-0.04225385430575411,-0.0008836179481272112,-1.0943538094032355e-05
-0.04343117471724407,-0.0009050392053829608,-1.1390702382409898e-05
-0.04469811541576543,-0.0009270715279162131,-1.1848730065734693e-05
-0.04604529799045467,-0.0009497573812677682,-1.2317937293030688e-05
-0.047461533159572925,-0.000973134089055275,-1.2798660160611449e-05
-0.04893410853601427,-0.0009972329994791718,-1.329125193274506e-05
-0.0504491275527659,-0.0010220788085013668,-1.3796079884740195e-05
-0.05199188208373847,-0.0010476890609104929,-1.431352185209316e-05
-0.05354724039897719,-0.0010740738415311718,-1.4843962577703577e-05
-0.055100032763498605,-0.0011012356598217908,-1.5387789953041816e-05
-0.05663541872205795,-0.00112916952269318,-1.5945391248670557e-05
-0.05813922265852386,-0.0011578631830383255,-1.6517149425103433e-05
-0.05959822747440364,-0.0011872975455715573,-1.7103439607255904e-05
-0.06100041965819877,-0.0012174472073547078,-1.770462579548747e-05
-0.06233518201440057,-0.0012482811077728577,-1.832105787426936e-05
-0.06359343298193856,-0.0012797632615219425,-1.8953068966593063e-05
-0.06476771415249803,-0.0013118535483055515,-1.9600973169049938e-05
-0.06585222999111733,-0.0013445085343414553,-2.026506368971169e-05
-0.06684284513646604,-0.0013776823031233512,-2.094561139907789e-05
-0.06773704478531307,-0.0014113272756037958,-2.164286379375968e-05
-0.06853386299900864,-0.0014453950025498763,-2.2357044363298096e-05
-0.06923378294051843,-0.001479836914034758,-2.3088352342444256e-05
-0.06983861241187919,-0.0015146050128728575,-2.383696282417116e-05
-0.0703513376801592,-0.0015496525003958672,-2.460302720248834e-05
-0.07077595861479495,-0.0015849343244696058,-2.538667390870471e-05
-0.07111730911458905,-0.0016204076414019519,-2.61880094001726e-05
-0.07138086913115846,-0.0016560321859633888,-2.7007119357013935e-05
-0.07157257777607741,-0.0016917705476901977,-2.7844070040427332e-05
-0.0716986592148988,-0.0017275883569379416,-2.8698909766584365e-05
-0.07176547247600465,-0.0017634543898606674,-2.9571670453284018e-05
-0.07177939271700809,-0.0017993406061589206,-3.0462369202288917e-05
-0.07174672628725655,-0.0018352221359099867,-3.1371009887806145e-05
-0.0716736569637234,-0.0018710772317227316,-3.229758472971433e-05
-0.07156621734755692,-0.0019068872003005517,-3.324207583772015e-05
-0.0714302778063026,-0.0019426363240890164,-3.4204456718817543e-05
-0.07127154488409654,-0.0019783117797616163,-3.5184693744780204e-05
-0.07109556124340878,-0.0020139035562934927,-3.618274757879398e-05
-0.07090769998025623,-0.0020494043715994087,-3.719857456076721e-05
-0.0707131476691122,-0.0020848095835117506,-3.8232128049544996e-05
-0.07051687250389171,-0.0021201170885550014,-3.928335971756168e-05
-0.0703235761569438,-0.0021553272007202103,-4.035222078988049e-05
-0.07013763046199266,-0.0021904425023749445,-4.1438663215654276e-05
-0.0699630025475334,-0.002225467660627326,-4.2542640756404844e-05
-0.06980317405417245,-0.0022604092047777526,-4.3664109972756115e-05
-0.06966106123302934,-0.002295275263599553,-4.480303108985044e-05
-0.0695389432731782,-0.0023300752647261048,-4.595936872193185e-05
-0.06943840632350934,-0.0023648196021252765,-4.7133092438644695e-05
-0.06936030992604006,-0.002399519281187664,-4.832417715947293e-05
-0.06930478046010534,-0.0024341855537842005,-4.95326033682159e-05
-0.06927123306360522,-0.0024688295571651283,-5.075835714595323e-05
-0.0692584205564799,-0.0025034619705701497,-5.200143002788705e-05
-0.06926450615159768,-0.002538092702247169,-5.326181869609138e-05
-0.06928715614046384,-0.0025727306178201844,-5.453952452610822e-05
-0.06932364857219941,-0.0026073833189983503,-5.583455301031285e-05
-0.06937099379499767,-0.0026420569795901497,-5.7146913084959975e-05
-0.06942606260519256,-0.002676756243690197,-5.847661639078006e-05
-0.06948571752658969,-0.0027114841887231427,-5.9823676498883394e-05
-0.06954694212003659,-0.0027462423536347993,-6.118810813447288e-05
-0.06960696224039513,-0.002781030829724907,-6.25699264303128e-05
-0.06966335226360039,-0.002815848408350906,-6.396914623983175e-05
-0.06971411878610667,-0.002850692776113333,-6.538578153594781e-05
-0.06975775406742832,-0.0028855607443267167,-6.681984491605783e-05
-0.0697932515728557,-0.0029204484957367875,-6.82713472260737e-05
-0.06982007692410891,-0.0029553518278610286,-6.974029730697316e-05
-0.06983809006557491,-0.0029902663696084494,-7.122670185634053e-05
-0.06984741851990771,-0.0030251877467548202,-7.273056538543135e-05
-0.06984828652109275,-0.0030601116730150702,-7.425189024037381e-05
-0.06984080986080608,-0.003095033947110545,-7.579067664540521e-05
-0.06982477094474202,-0.003129950342311932,-7.734692271776083e-05
-0.06979939194005735,-0.003164856383033132,-7.89206243990971e-05
-0.06976312490075529,-0.003199747012243335,-8.051177524791621e-05
-0.06971347616734284,-0.0032346161625103594,-8.212036604160464e-05
-0.06964687917547983,-0.003269456251346065,-8.374638414506875e-05
-0.06955862631360135,-0.0033042576277183353,-8.538981261483484e-05
-0.06944286691228602,-0.003339008001024807,-8.705062902202063e-05
-0.069292674214308,-0.0033736918863064556,-8.872880399385345e-05
-0.06910017915384536,-0.003408290099648494,-9.042429949034218e-05
-0.06885676405997901,-0.00344277933545195,-9.21370668491173e-05
-0.06855330604118434,-0.003477131852977241,-9.38670446462246e-05
-0.06818045772339712,-0.0035113152939183863,-9.56141564329485e-05
-0.06772895171531843,-0.003545292646278065,-9.737830841799762e-05
-0.06718991457262112,-0.00357902236285005,-9.915938717027965e-05
-0.06655517616853301,-0.0036124586355353386,-0.000100957257419876
-0.06581756112400627,-0.0036455518198584736,-0.00010277176003372446
-0.06497115022561645,-0.0036782489976958793,-0.00010460271023811304
-0.06401150172066619,-0.00371049466068245,-0.00010644989615270762
-0.06293582514612721,-0.0037422314923991483,-0.00010831307769097802
-0.06174310351711381,-0.0037734012245649587,-0.00011019198587021904
-0.06043416257351361,-0.0038039455410876157,-0.00011208632256163219
-0.05901168819684725,-0.003833807003780206,-0.00011399576069784915
-0.05748019529925838,-0.0038629299746542325,-0.00011591994494245776
-0.05584595311454683,-0.003891261511757684,-0.00011785849281406074
-0.0541168722510591,-0.003918752218099086,-0.00011981099624652494
-0.052302358435177276,-0.003945357025770645,-0.00012177702355749237
-0.050413137660107396,-0.003971035899794467,-0.00012375612178888365
-0.04846105773289691,-0.003995754448642717,-0.00012574781937599295
-0.046458871219857,-0.004019484430880906,-0.00012775162909587384
-0.04442000398894405,-0.004042204149683106,-0.00012976705124101486
-0.04235831232560065,-0.004063898728761742,-0.00013179357696062606
-0.040287830833692584,-0.004084560264551565,-0.0001338306917089544
-0.038222513753635445,-0.004104187850698397,-0.0001358778787377669
-0.03617597417003231,-0.004122787472679313,-0.0001379346225686113
-0.0341612284012052,-0.004140371773322123,-0.00014000041238011168
-0.032190455514429644,-0.004156959694301032,-0.00014207474524701748
-0.030274783069935453,-0.004172576003947123,-0.00014415712917157953
-0.028424109191104045,-0.004187250727012383,-0.0001462470858543194
-0.026646967935912307,-0.004201018496294137,-0.00014834415316014604
-0.024950440199998373,-0.0042139178483281145,-0.0001504478872463016
-0.02334010719445111,-0.004225990485176727,-0.0001525578643296778
-0.02182003962250376,-0.004237280521880965,-0.00015467368208144225
-0.020392814243747462,-0.004247833735347528,-0.00015679496064574937
-0.019059550450022205,-0.004257696826520971,-0.0001589213432862165
-0.017819961491369843,-0.004266916704506319,-0.00016105249666897333
-0.01667241670983191,-0.004275539799056619,-0.00016318811079486407
-0.01561401220751367,-0.004283611406285955,-0.00016532789859619973
-0.01464064831384775,-0.004291175071416295,-0.00016747159521562528
-0.01374711340224442,-0.004298272011845318,-0.00016961895698644068
-0.01292717481084126,-0.004304940583898589,-0.00017176976013537666
-0.012173678471734116,-0.0043112157972192335,-0.0001739237992306561
-0.011478659341231885,-0.004317128881672475,-0.00017608088540037905
-0.010833465185482786,-0.004322706912804154,-0.00017824084434899822
-0.010228896899597904,-0.004327972503325424,-0.00018040351420303062
-0.009655368769536637,-0.0043329435697427076,-0.00018256874322129766
-0.009103090879477305,-0.004337633184654961,-0.0001847363874098971
-0.008562273174174271,-0.004342049525668374,-0.00018690630808747792
-0.008023347940297148,-0.004346195930946992,-0.00018907836945163177
-0.00747720553065287,-0.00435007106931473,-0.0001912524362016972
-0.006915435940979988,-0.004353669229682638,-0.00019342837127644654
-0.006330565578191966,-0.0043569807300624305,-0.0001956060337663828
-0.005716276094325267,-0.00435999244048056,-0.00019778527705901857
-0.005067593182504994,-0.004362688407799768,-0.00019996594727108864
-0.004381037492657803,-0.004365050565468559,-0.00020214788201440573
-0.0036547338811032505,-0.004367059508311999,-0.00020433090953285085
-0.002888476390264052,-0.004368695310879841,-0.0002065148482376488
-0.002083745857441763,-0.004369938366441767,-0.00020869950665697922
-0.0012436779163409856,-0.004370770222385213,-0.00021088468380418596
-0.00037298209163757774,-0.004371174387387208,-0.00021307016995662906
0.0005221844153885784,-0.00437113708680627,-0.00021525574782517743
0.0014343834702790542,-0.004370647944834854,-0.0002174411940830877
0.0023550982325960396,-0.004369700574409135,-0.0002196262812128987
0.003274964740155062,-0.004368293058665947,-0.00022181077962116747
0.004184024623919265,-0.004366428311324928,-0.0002239944599636652
0.005071988982965015,-0.0043641143079232066,-0.00022617709561847723
0.005928503127344045,-0.00436136418489563,-0.00022835846524168194
0.0067434029673327815,-0.00435819620837196,-0.00023053835533999885
0.007506955871593638,-0.004354633618662228,-0.00023271656279675738
0.0082100812499728,-0.004350704359381836,-0.00023489289729126841
0.008844548076972577,-0.0043464407020501,-0.0002370671835566264
0.009403147646465406,-0.0043418787781192405,-0.00023923926342666875
0.009879840561209106,-0.004337058031067322,-0.0002414089976289654
0.010269877927182184,-0.004332020601445224,-0.00024357626728709351
0.01056989771393757,-0.004326810657534944,-0.00024574097510183856
0.01077799748051103,-0.0043214736837363325,-0.00024790304618715637
0.010893783686050939,-0.004316055738444692,-0.0002500624285427016
0.010918395923335973,-0.004310602693542345,-0.00025221909315069834
0.010854502735465345,-0.004305159468877645,-0.00025437303369130334
0.010706265398961088,-0.004299769276844038,-0.0002565242658777338
0.010479267539654417,-0.004294472893609384,-0.00025867282642034713
0.010180411173787434,-0.0042893079739310235,-0.00026081877163723226
0.009817782699792752,-0.004284308425462628,-0.00026296217573708064
0.009400494258873316,-0.004279503856222962,-0.00026510312880750203
0.008938506435203677,-0.004274919106049443,-0.00026724173454807014
0.00844243870249828,-0.0042705738697650176,-0.00026937810779202376
0.007923375243036136,-0.004266482416278634,-0.00027151237186353466
0.007392674756248093,-0.004262653403778813,-0.000273644655818549
0.006861791997361468,-0.004259089787090411,-0.0002757750916162663
0.006342115863055366,-0.004255788810125307,-0.0002779038112655702
0.005844825475235715,-0.004252742074790735,-0.0002800309439867992
0.005380763849784895,-0.00424993567745948,-0.0002821566134248618
0.004960328742126242,-0.004247350404311502,-0.00028428093494530453
0.004593380522271,-0.004244961976995403,-0.00028640401304063127
0.004289165845046141,-0.004242741340403574,-0.00028852593886998103
0.004056253783456503,-0.004240654985496448,-0.000290646787951456
0.003902479539379442,-0.0042386653021657394,-0.00029276661802337154
0.0038348906694856814,-0.004236730959613523,-0.00029488546708881635
0.0038596916175014286,-0.004234807314041776,-0.0002970033516572302
0.003982183632968328,-0.0042328468452291585,-0.0002991202651970479
0.004206698643086017,-0.004230799624660145,-0.00030123617681452025
0.004536527123875015,-0.0042286138182184045,-0.0003033510301752399
0.004973841146392187,-0.004226236226150838,-0.0003054647426863322
0.005519614583603477,-0.004223612862218339,-0.00030757720495842454
0.006173543434316749,-0.004220689572713859,-0.0003096882805671576
0.006933970476589334,-0.004217412694236132,-0.0003117978061338951
0.007797819413835552,-0.004213729746763526,-0.000313905591744145
0.008760543965749703,-0.00420959015591863,-0.00031601142171981553
0.009816097679819797,-0.004204945995507237,-0.00031811505575767197
0.010956931274516515,-0.004199752738268653,-0.00032021623044111596
0.01217402528981002,-0.004193969999127571,-0.000322314661125465
0.013456965282730495,-0.004187562251484436,-0.00032441004418811803
0.014794064439377367,-0.00418049949405391,-0.0003265020596245026
0.016172534952852022,-0.004172757844205852,-0.00032859037395906757
0.017578705373963353,-0.004164320034124148,-0.0003306746434286501
0.018998276907464983,-0.0041551757885537905,-0.00033275451738431957
0.020416608487519996,-0.004145322067205044,-0.0003348296418482593
0.02181901952445852,-0.00413476316020205,-0.00033689966315511105
0.023191100350539392,-0.004123510630233301,-0.0003389642316027199
0.024519022709628868,-0.0041115830994682585,-0.0003410230050351453
0.025789845328911206,-0.004099005882458624,-0.000343075652280627
0.02699181161600279,-0.004085810468222395,-0.0003451218563682973
0.02811463648944952,-0.0040720338561960326,-0.0003471613174494019
0.029149776865734563,-0.004057717752857236,-0.00034919375535166525
0.030090676444282437,-0.004042907639529732,-0.000351218911699762
0.03093297169770787,-0.004027651727494234,-0.000353236551541518
0.031674643551811384,-0.004011999823681854,-0.00035524646442931205
0.03231609888684922,-0.003996002138072189,-0.00035724846491975054
0.03286016804765822,-0.003979708071338563,-0.0003592423924721032
0.03331200880358501,-0.003963165027125752,-0.0003612281107467193
0.03367891340499644,-0.0039464172965736075,-0.00036320550632764416
0.03397002360057576,-0.003929505062322214,-0.00036517448691736814
0.03419596805171912,-0.003912463564409141,-0.00036713497907405097
0.03436844530243014,-0.0038953224610706032,-0.0003690869255804209
0.03449978064977984,-0.003878105404582551,-0.00037103028254683424
0.034602485600627834,-0.003860829838019949,-0.00037296501635748487
0.03468884490758384,-0.003843507005392896,-0.0003748911005683381
0.034770550454895785,-0.003826142156552276,-0.0003768085128588244
0.0348583950143254,-0.003808734920184971,-0.0003787172321280087
0.034962032633655736,-0.0037912798132729757,-0.0003806172358113732
0.03508980681624871,-0.0037737668534104994,-0.00038250849747804405
0.035248643817364776,-0.003756182240752096,-0.0003843909847515847
0.03544400664933455,-0.0037385090781354214,-0.0003862646575813066
0.03567990480189637,-0.0037207281002726135,-0.0003881294668759086
0.035958953968419506,-0.0037028183855800346,-0.00038998535349737176
0.03628247851585516,-0.003684758027458966,-0.0003918322476006315
0.03665064725567669,-0.003666524746016083,-0.0003936700682940003
0.03706263124818472,-0.0036480964263901176,-0.00039549872358710184
0.03751677193327427,-0.003629451575594753,-0.00039731811058759807
0.038010749231351997,-0.0036105696953035965,-0.00039912811590532267
0.038541742171369756,-0.003591431572452916,-0.0004009286162222618
0.039106578399372545,-0.0035720194923102304,-0.0004027194789884526
0.03970187235218637,-0.0035523173796223407,-0.0004045005632064357
0.040324153418534264,-0.0035323108731796604,-0.00040627172026963624
0.04096998435981586,-0.003511987338735073,-0.0004080327948226149
0.041636067506417275,-0.0034913358257685147,-0.0004097836256137408
0.04231933361097961,-0.0034703469754891656,-0.0004115240463140552
0.04301700714292131,-0.0034490128903006904,-0.0004132538862805027
0.04372664234702215,-0.0034273269779282046,-0.0004149729712475599
0.044446125790939824,-0.003405283785893714,-0.0004166811239385154
0.04517364311784598,-0.0033828788436665175,-0.00041837816459590544
0.045907610710033346,-0.003360108530209548,-0.0004200639114393745
0.04664657675545866,-0.0033369699833431746,-0.0004217381810677627
0.04738909974242316,-0.0033134610642187043,-0.0004234007888296532
0.04813361502477646,-0.0032895803855269045,-0.00042505154919208956
0.0488783018083298,-0.0032653274063186278,-0.00042669027614005095
0.04962096347038518,-0.003240702589998949,-0.00042831678363913035
