frame_number,force
0,779.3453349519547
1,779.3308597493075
2,779.316478919138
3,779.3021417601296
4,779.2877970742489
5,779.2733932953688
6,779.2588786131031
7,779.2442010917799
8,779.2293087847229
9,779.2141498442116
10,779.1986726276361
11,779.182825800447
12,779.1665584365584
13,779.149820116946
14,779.1325610273433
15,779.1147320561272
16,779.0962848935434
17,779.0771721333106
18,779.0573473774394
19,779.0367653449533
20,779.015381985133
21,778.993154595848
22,778.9700419473694
23,778.9460044117546
24,778.9210040975339
25,778.8950049890759
26,778.8679730896197
27,778.8398765665489
28,778.8106858971887
29,778.7803740133675
30,778.748916443204
31,778.7162914489184
32,778.682480159859
33,778.647466700295
34,778.6112383117589
35,778.5737854698177
36,778.5351019950768
37,778.495185158054
38,778.4540357773727
39,778.4116583105025
40,778.3680609360027
41,778.32325562596
42,778.2772582071647
43,778.230088409616
44,778.1817699011623
45,778.132330307369
46,778.0818012158858
47,778.0302181645602
48,777.9776206123626
49,777.9240518919257
50,777.8695591422455
51,777.8141932199393
52,777.7580085875237
53,777.7010631774814
54,777.6434182313958
55,777.5851381140945
56,777.5262901034965
57,777.4669441576498
58,777.4071726612027
59,777.3470501542072
60,777.2866530466972
61,777.226059322876
62,777.1653482389354
63,777.1046000185393
64,777.0438955498697
65,776.9833160878907
66,776.9229429651331
67,776.8628573139125
68,776.8031398025071
69,776.7438703874478
70,776.6851280836737
71,776.6269907538997
72,776.5695349182346
73,776.5128355848731
74,776.4569661025461
75,776.4019980352707
76,776.3480010597725
77,776.2950428857486
78,776.2431891988903
79,776.1925036262373
80,776.1430477229552
81,776.0948809790576
82,776.0480608441442
83,776.0026427680582
84,775.958680255536
85,775.9162249332592
86,775.8753266280634
87,775.8360334552497
88,775.7983919159749
89,775.7624470026375
90,775.7282423110695
91,775.695820158203
92,775.6652217036792
93,775.6364870736442
94,775.6096554847489
95,775.5847653661438
96,775.5618544770447
97,775.5409600173195
98,775.5221187285088
99,775.5053669827511
100,775.4907408572
101,775.4782761917393
102,775.468008628178
103,775.4599736296029
104,775.4542064790473
105,775.4507422570072
106,775.4496157975921
107,775.4508616233256
108,775.4545138588265
109,775.4606061238244
110,775.469171406198
111,775.4802419159918
112,775.4938489216698
113,775.5100225701602
114,775.5287916924801
115,775.5501835969483
116,775.5742238521533
117,775.6009360619133
118,775.6303416343617
119,775.6624595470175
120,775.6973061093238
121,775.7348947237342
122,775.7752356460517
123,775.8183357454551
124,775.8641982646195
125,775.9128225805425
126,775.9642039670476
127,776.0183333603044
128,776.0751971290568
129,776.1347768516578
130,776.1970491024649
131,776.2619852505635
132,776.3295512740249
133,776.3997075930012
134,776.472408924946
135,776.5476041651428
136,776.6252362955265
137,776.7052423244958
138,776.7875532600624
139,776.8720941182414
140,776.9587839680485
141,777.0475360138857
142,777.1382577155325
143,777.2308509454338
144,777.3252121824859
145,777.421232741077
146,777.5187990338344
147,777.6177928663188
148,777.7180917616897
149,777.8195693131091
150,777.92209556145
151,778.0255373957683
152,778.1297589739693
153,778.2346221610388
154,778.3399869820645
155,778.4457120870009
156,778.5516552237973
157,778.65767371621
158,778.7636249425108
159,778.8693668114421
160,778.974758232149
161,779.0796595753908
162,779.1839331239734
163,779.2874435108771
164,779.3900581438418
165,779.4916476152376
166,779.5920860960132
167,779.6912517125149
168,779.789026905047
169,779.8852987671318
170,779.9799593644963
171,780.0729060328667
172,780.164041653746
173,780.2532749074626
174,780.3405205028904
175,780.4256993833213
176,780.5087389080692
177,780.5895730096282
178,780.6681423265762
179,780.7443943127747
180,780.8182833236759
181,780.8897706808181
182,780.9588247159509
183,781.0254207964965
184,781.0895413339414
185,781.1511757763004
186,781.2103205853525
187,781.2669791991855
188,781.3211619806
189,781.3728861517884
190,781.422175715355
191,781.4690613614059
192,781.5135803602723
193,781.5557764403757
194,781.5956996506072
195,781.6334062063681
196,781.6689583182424
197,781.7024240022547
198,781.7338768708115
199,781.7633959036815
200,781.7910651986864
201,781.8169737020585
202,781.841214918629
203,781.8638866021981
204,781.8850904266609
205,781.9049316387061
206,781.923518693076
207,781.9409628714283
208,781.9573778858094
209,781.9728794677359
210,781.9875849440168
211,782.00161280075
212,782.0150822373622
213,782.0281127129997
214,782.0408234878983
215,782.053333162529
216,782.0657592174541
217,782.0782175570241
218,782.0908220602062
219,782.1036841417649
220,782.116912326723
221,782.1306118406612
222,782.1448842181765
223,782.1598269317388
224,782.1755330431196
225,782.1920908793168
226,782.2095837345446
227,782.2280895995136
228,782.2476809190165
229,782.2684243787055
230,782.2903807218474
231,782.3136045967461
232,782.3381444354151
233,782.3640423639296
234,782.3913341446984
235,782.4200491507148
236,782.450210371703
237,782.481834451897
238,782.5149317589622
239,782.549506483343
240,782.5855567671953
241,782.6230748619363
242,782.6620473131902
243,782.702455171495
244,782.7442742266187
245,782.7874752627923
246,782.8320243316397
247,782.8778830392033
248,782.9250088433441
249,782.973355357915
250,783.0228726603854
251,783.0735075999415
252,783.1252041033964
253,783.1779034763694
254,783.2315446970989
255,783.2860647000384
256,783.341398646202
257,783.3974801772004
258,783.4542416501049
259,783.5116143507358
260,783.5695286836525
261,783.6279143380169
262,783.6867004295922
263,783.74581562036
264,783.8051882183746
265,783.8647462612146
266,783.9244175866338
267,783.9841298938159
268,784.0438107982078
269,784.1033878824063
270,784.1627887450378
271,784.2219410490875
272,784.2807725707997
273,784.3392112501318
274,784.3971852436953
275,784.4546229810359
276,784.5114532249074
277,784.5676051359193
278,784.6230083416765
279,784.6775930103961
280,784.7312899290176
281,784.7840305860088
282,784.8357472593232
283,784.8863731101853
284,784.9358422833916
285,784.9840900145542
286,785.0310527442831
287,785.0766682388705
288,785.12087571678
289,785.1636159801408
290,785.2048315504409
291,785.2444668076711
292,785.2824681323383
293,785.3187840500207
294,785.3533653783711
295,785.3861653766277
296,785.417139897757
297,785.4462475433178
298,785.4734498209214
299,785.4987113037841
300,785.521999791379
301,785.5432864697391
302,785.5625460696414
303,785.5797570206822
304,785.59490159905
305,785.6079660665646
306,785.6189407983657
307,785.6278203966564
308,785.634603788304
309,785.6392943047896
310,785.6418997436879
311,785.6424324112625
312,785.6409091458187
313,785.6373513213109
314,785.6317848305101
315,785.6242400468951
316,785.6147517643738
317,785.6033591139819
318,785.5901054569131
319,785.5750382536643
320,785.5582089096947
321,785.539672598589
322,785.5194880640646
323,785.4977174021926
324,785.4744258250596
325,785.4496814070415
326,785.4235548150651
327,785.3961190246409
328,785.3674490238847
329,785.3376215080008
330,785.3067145666854
331,785.2748073666924
332,785.2419798315739
333,785.2083123205116
334,785.1738853082198
335,785.1387790680261
336,785.1030733602718
337,785.0668471280921
338,785.0301782025223
339,784.9931430187887
340,784.9558163455412
341,784.9182710285793
342,784.8805777503317
343,784.8428048059608
344,784.805017896589
345,784.7672799398986
346,784.7296508983356
347,784.6921876252433
348,784.6549437293304
349,784.617969457958
350,784.5813115998833
351,784.5450134082977
352,784.5091145450324
353,784.4736510465962
354,784.4386553123221
355,784.4041561144851
356,784.3701786298486
357,784.3367444917525
358,784.3038718615505
359,784.2715755179959
360,784.2398669630524
361,784.2087545425412
362,784.1782435799537
363,784.1483365217193
364,784.1190330923148
365,784.0903304578659
366,784.06222339725
367,784.0347044799687
368,784.0077642501308
369,783.9813914158146
370,783.955573043046
371,783.930294753734
372,783.9055409270487
373,783.8812949037366
374,783.8575391926845
375,783.8342556787135
376,783.8114258302217
377,783.7890309049943
378,783.7670521522977
379,783.7454710092978
380,783.7242692899099
381,783.7034293642984
382,783.6829343273168
383,783.6627681541257
384,783.6429158411328
385,783.6233635304256
386,783.6040986161229
387,783.5851098315313
388,783.5663873165701
389,783.5479226654194
390,783.5297089546784
391,783.511740752446
392,783.494014108795
393,783.4765265282595
394,783.4592769253346
395,783.4422655645393
396,783.4254939871083
397,783.4089649267072
398,783.3926822166682
399,783.3766506911029
400,783.3608760818427
401,783.345364912629
402,783.330124391581
403,783.3151623027529
404,783.3004868974496
405,783.2861067858017
406,783.2720308289938
407,783.2582680325904
408,783.2448274416902
409,783.231718039056
410,783.2189486477577
411,783.2065278400946
412,783.194463854617
413,783.1827645229608
414,783.1714372079562
415,783.160488754121
416,783.1499254513317
417,783.1397530122563
418,783.1299765640275
419,783.1206006544568
420,783.1116292727362
421,783.1030658840147
422,783.0949134765966
423,783.0871746199776
424,783.0798515315992
425,783.072946150035
426,783.0664602122214
427,783.0603953322554
428,783.0547530792414
429,783.0495350517314
430,783.0447429465247
431,783.040378619929
432,783.0364441399365
433,783.0329418280141
434,783.0298742893052
435,783.0272444301444
436,783.0250554620545
437,783.0233108918691
438,783.0220144981967
439,783.0211702949922
440,783.0207824833802
441,783.0208553930277
442,783.0213934144219
443,783.0224009235698
444,783.0238822009665
445,783.0258413470583
446,783.0282821966543
447,783.0312082347276
448,783.0346225157634
449,783.0385275883164
450,783.0429254258279
451,783.0478173641912
452,783.0532040461771
453,783.0590853726436
454,783.0654604603279
455,783.0723276058643
456,783.0796842554566
457,783.0875269793863
458,783.0958514503219
459,783.1046524243268
460,783.1139237235988
461,783.1236582203696
462,783.1338478219438
463,783.1444834574108
464,783.1555550670279
465,783.1670515955751
466,783.1789609910991
467,783.1912702104039
468,783.2039652324987
469,783.2170310809735
470,783.2304518559109
471,783.2442107754991
472,783.2582902271158
473,783.2726718273883
474,783.2873364905084
475,783.3022645038244
476,783.3174356094321
477,783.3328290901927
478,783.3484238584014
479,783.3641985452906
480,783.3801315896354
481,783.3962013238479
482,783.4123860560593
483,783.428664146824
484,783.4450140793016
485,783.4614145220963
486,783.4778443842529
487,783.4942828621447
488,783.5107094781289
489,783.5271041109363
490,783.5434470178724
491,783.5597188490258
492,783.5759006537933
493,783.591973880117
494,783.6079203668933
495,783.6237223300556
496,783.639362342872
497,783.6548233110385
498,783.6700884432756
499,783.6851412183614
500,783.699965349796
501,783.7145447494007
502,783.7288634910059
503,783.7429057750892
504,783.7566558949779
505,783.7700982050899
506,783.7832170915602
507,783.795996945408
508,783.8084221381454
509,783.8204769995377
510,783.8321457971773
511,783.8434127176832
512,783.8542618496836
513,783.8646771691454
514,783.874642527893
515,783.8841416462376
516,783.8931581106433
517,783.9016753773946
518,783.9096767832172
519,783.9171455635853
520,783.924064879027
521,783.9304178493303
522,783.9361875953396
523,783.941357287962
524,783.9459102038998
525,783.9498297873663
526,783.9530997166916
527,783.955703974433
528,783.9576269195474
529,783.9588533603562
530,783.9593686272982
531,783.9591586445922
532,783.9582099998671
533,783.9565100106444
534,783.9540467864862
535,783.9508092857739
536,783.9467873664504
537,783.9419718304987
538,783.9363544622522
539,783.9299280607376
540,783.9226864661767
541,783.9146245806913
542,783.9057383832458
543,783.896024938881
544,783.885482402259
545,783.8741100154635
546,783.861908100008
547,783.8488780431906
548,783.8350222793027
549,783.8203442665733
550,783.8048484609478
551,783.7885402878444
552,783.7714261129332
553,783.7535132127725
554,783.7348097458627
555,783.7153247244461
556,783.6950679873049
557,783.6740501739322
558,783.6522827007293
559,783.6297777401006
560,783.6065482032407
561,783.5826077270185
562,783.5579706647749
563,783.5326520802214
564,783.5066677431295
565,783.4800341252691
566,783.4527683951409
567,783.4248884103815
568,783.3964127072038
569,783.3673604867863
570,783.3377515990685
571,783.3076065248271
572,783.2769463571303
573,783.2457927832676
574,783.2141680680537
575,783.1820950390598
576,783.1495970739069
577,783.1166980893752
578,783.0834225318002
579,783.0497953680756
580,783.0158420766088
581,782.9815886377598
582,782.9470615235701
583,782.9122876868864
584,782.8772945502383
585,782.8421099949904
586,782.8067623513576
587,782.7712803899066
588,782.7356933152529
589,782.7000307626804
590,782.6643227981618
591,782.6285999217583
592,782.5928930739412
593,782.5572336443024
594,782.5216534823106
595,782.4861849098972
596,782.4508607354602
597,782.415714268412
598,782.3807793329117
599,782.3460902791671
600,782.3116819907583
601,782.27758988676
602,782.2438499178556
603,782.2104985559902
604,782.1775727773156
605,782.1451100382468
606,782.1131482443578
607,782.0817257116375
608,782.0508811194131
609,782.0206534542149
610,781.9910819440427
611,781.9622059827944
612,781.9340650449005
613,781.9066985904033
614,781.8801459608561
615,781.8544462666617
616,781.8296382669663
617,781.8057602438796
618,781.782849873295
619,781.7609440946753
620,781.7400789818713
621,781.7202896165693
622,781.7016099655301
623,781.6840727625018
624,781.6677093955842
625,781.6525498008879
626,781.6386223635158
627,781.6259538271195
628,781.6145692134759
629,781.6044917536113
630,781.5957428319855
631,781.5883419451528
632,781.5823066760914
633,781.5776526849477
634,781.5743937162638
635,781.5725416218165
636,781.5721063971013
637,781.5730962284945
638,781.5755175474914
639,781.5793750882557
640,781.5846719449461
641,781.5914096257388
642,781.5995881010386
643,781.6092058439971
644,781.6202598621077
645,781.6327457191824
646,781.6466575473664
647,781.6619880490545
648,781.6787284886997
649,781.6968686745794
650,781.7163969306029
651,781.7373000582896
652,781.7595632891863
653,781.7831702282302
654,781.8081027888873
655,781.8343411212271
656,781.861863534423
657,781.8906464154591
658,781.9206641461057
659,781.9518890203926
660,781.9842911647212
661,782.0178384623673
662,782.0524964835611
663,782.0882284217803
664,782.1249950365257
665,782.1627546026988
666,782.2014628667266
667,782.2410730097064
668,782.2815356180694
669,782.3227986625383
670,782.3648074864218
671,782.407504804497
672,782.4508307137797
673,782.4947227173088
674,782.5391157616962
675,782.583942288786
676,782.6291323013819
677,782.674613442685
678,782.7203110889444
679,782.76614845496
680,782.8120467124477
681,782.8579251216461
682,782.9037011767584
683,782.9492907658873
684,782.9946083460793
685,783.0395671339618
686,783.0840793122502
687,783.128056252203
688,783.1714087519476
689,783.2140472904514
690,783.255882296689
691,783.2968244332474
692,783.336784893186
693,783.3756757084304
694,783.4134100674244
695,783.4499026394259
696,783.4850699028237
697,783.5188304750178
698,783.5511054414878
699,783.5818186814889
700,783.6108971874603
701,783.6382713749989
702,783.663875380314
703,783.6876473424124
704,783.709529667694
705,783.7294692750498
706,783.7474178199354
707,783.7633318963108
708,783.7771732158533
709,783.7889087643867
710,783.7985109358526
711,783.8059576442007
712,783.81123241333
713,783.8143244448938
714,783.8152286635762
715,783.813945739372
716,783.8104820864354
717,783.8048498382029
718,783.797066798742
719,783.7871563705627
720,783.7751474593978
721,783.7610743566897
722,783.7449766007317
723,783.7268988175546
724,783.7068905427335
725,783.6850060253422
726,783.6613040153851
727,783.6358475361915
728,783.6087036433776
729,783.5799431719872
730,783.549640473366
731,783.5178731433305
732,783.4847217433382
733,783.4502695165637
734,783.4146021008586
735,783.377807240438
736,783.3399744978582
737,783.3011949675911
738,783.26156099226
739,783.221165882283
740,783.1801036392459
741,783.1384686829415
742,783.096355581807
743,783.0538587864634
744,783.0110723660791
745,782.9680897472757
746,782.9250034553221
747,782.8819048575288
748,782.8388839090414
749,782.7960289016027
750,782.75342621628
751,782.7111600816525
752,782.6693123394533
753,782.6279622200914
754,782.587186130677
755,782.5470574581233
756,782.5076463896717
757,782.4690197529557
758,782.4312408774638
759,782.3943694789162
760,782.3584615675584
761,782.3235693807338
762,782.2897413394895
763,782.2570220285223
764,782.2254521985043
765,782.1950687895857
766,782.1659049744989
767,782.1379902191785
768,782.1113503583663
769,782.0860076834621
770,782.0619810399356
771,782.0392859318163
772,782.0179346309816
773,781.9979362890355
774,781.9792970495135
775,781.9620201581704
776,781.946106069365
777,781.9315525470752
778,781.9183547596787
779,781.9065053682212
780,781.8959946083653
781,781.8868103665542
782,781.8789382511591
783,781.8723616594988
784,781.8670618416528
785,781.8630179619408
786,781.8602071588546
787,781.8586046041065
788,781.85818356133
789,781.858915444786
790,781.8607698781811
791,781.8637147534023
792,781.8677162887715
793,781.8727390863997
794,781.8787461883419
795,781.8856991314331
796,781.8935580009709
797,781.9022814839019
798,781.9118269228161
799,781.9221503726043
800,781.9332066618676
801,781.9449494610518
802,781.9573313589158
803,781.9703039485146
804,781.9838179235256
805,781.9978231855432
806,782.0122689627941
807,782.0271039405125
808,782.0422764029523
809,782.0577343867164
810,782.073425844667
811,782.089298819127
812,782.1053016225017
813,782.1213830230749
814,782.1374924336712
815,782.1535801010164
816,782.1695972937655
817,782.1854964872132
818,782.2012315427883
819,782.2167578807157
820,782.2320326446232
821,782.2470148571581
822,782.2616655657457
823,782.2759479776391
824,782.2898275835821
825,782.3032722697486
826,782.3162524179858
827,782.3287409946572
828,782.3407136285012
829,782.3521486778628
830,782.363027287407
831,782.3733334340117
832,782.3830539611098
833,782.3921786004672
834,782.4006999803296
835,782.4086136189953
836,782.4159179030808
837,782.4226140500033
838,782.4287060544565
839,782.4342006188037
840,782.4391070673441
841,782.4434372443479
842,782.4472053957651
843,782.4504280346692
844,782.4531237907729
845,782.4553132446202
846,782.4570187472418
847,782.458264226121
848,782.4590749783459
849,782.4594774518829
850,782.4594990160006
851,782.4591677219768
852,782.4585120553178
853,782.457560680803
854,782.4563421816888
855,782.4548847944164
856,782.4532161403398
857,782.4513629564025
858,782.4493508271969
859,782.447203921224
860,782.444944734319
861,782.4425938431053
862,782.440169670998
863,782.4376882688595
864,782.4351631121009
865,782.432604915918
866,782.4300214703128
867,782.4274174964462
868,782.4247945256685
869,782.4221508023433
870,782.4194812113677
871,782.4167772311274
872,782.4140269124575
873,782.4112148839373
874,782.408322383524
875,782.4053273162912
876,782.4022043379471
877,782.3989249638327
878,782.3954577031197
879,782.3917682178733
880,782.3878195064466
881,782.3835721103294
882,782.3789843431352
883,782.3740125400449
884,782.3686113257488
885,782.3627338986666
886,782.3563323288167
887,782.3493578661728
888,782.3417612558349
889,782.3334930560937
890,782.3245039555555
891,782.3147450858378
892,782.3041683268202
893,782.2927266019416
894,782.2803741615252
895,782.2670668525747
896,782.2527623738713
897,782.2374205155116
898,782.2210033822515
899,782.2034756002141
900,782.1848045067104
901,782.1649603230862
902,782.1439163105856
903,782.1216489091469
904,782.0981378588259
905,782.073366303249
906,782.0473208742097
907,782.0199917563267
908,781.9913727306747
909,781.9614611965318
910,781.9302581708114
911,781.89776826527
912,781.8639996421341
913,781.8289639493541
914,781.7926762372263
915,781.7551548586379
916,781.7164213556326
917,781.6765003352423
918,781.6354193375025
