frame_number,force
0,779.3064665469186
1,779.2939104610758
2,779.2815034769984
3,779.2691952543739
4,779.2569376877725
5,779.2446848897029
6,779.232393092314
7,779.2200204708969
8,779.2075268948892
9,779.194873614213
10,779.1820228902893
11,779.1689375820594
12,779.1555806979866
13,779.1419149259377
14,779.1279021545274
15,779.1135030013744
16,779.0986763643956
17,779.0833790111873
18,779.0675652195849
19,779.0511864810042
20,779.0341912775342
21,779.016524943143
22,778.9981296176389
23,778.9789442989935
24,778.9589049959882
25,778.9379449795302
26,778.9159951270791
27,778.8929843503912
28,778.8688400936786
29,778.8434888887551
30,778.8168569555959
31,778.788870839867
32,778.7594580825378
33,778.7285479198791
34,778.6960720142138
35,778.6619652162854
36,778.6261663590498
37,778.5886190806782
38,778.5492726722852
39,778.5080829433173
40,778.4650130944223
41,778.4200345845704
42,778.3731279773197
43,778.3242837510834
44,778.2735030599611
45,778.2207984340314
46,778.1661944092999
47,778.109728076818
48,778.0514495382629
49,777.9914222522899
50,777.9297232530231
51,777.8664432202157
52,777.8016863809053
53,777.7355702250783
54,777.6682250226098
55,777.5997931349815
56,777.5304281225019
57,777.4602936553777
58,777.3895622442797
59,777.3184138124591
60,777.2470341367753
61,777.1756131888602
62,777.104343409634
63,777.0334179505758
64,776.9630289140454
65,776.8933656227771
66,776.8246129455348
67,776.7569497023602
68,776.6905471694841
69,776.6255677007105
70,776.5621634785783
71,776.5004754051919
72,776.4406321400253
73,776.3827492905243
74,776.3269287604974
75,776.273258260507
76,776.2218109834092
77,776.1726454468023
78,776.1258055022981
79,776.0813205087491
80,776.0392056624045
81,775.9994624719959
82,775.9620793628054
83,775.9270323927241
84,775.8942860653972
85,775.863794229387
86,775.8355010560059
87,775.8093420907436
88,775.7852453738346
89,775.763132625134
90,775.7429204876463
91,775.7245218227517
92,775.7078470482903
93,775.692805508452
94,775.6793068621156
95,775.6672624739052
96,775.656586789974
97,775.6471986789257
98,775.6390227176802
99,775.6319904022187
100,775.6260412638431
101,775.621123873244
102,775.6171967178187
103,775.61422894193
104,775.6122009439088
105,775.6111048265719
106,775.6109446998722
107,775.6117368357388
108,775.6135096766114
109,775.6163037005831
110,775.620171147579
111,775.6251756128956
112,775.6313915166596
113,775.6389034598743
114,775.6478054794233
115,775.6582002157493
116,775.6701980079164
117,775.6839159308167
118,775.6994767877113
119,775.7170080680794
120,775.7366408766076
121,775.7585088347932
122,775.7827469525943
123,775.8094904647103
124,775.8388736255388
125,775.871028458827
126,775.9060834614945
127,775.9441622647705
128,775.985382259397
129,776.0298531958063
130,776.0776757749888
131,776.1289402501234
132,776.1837250618702
133,776.2420955316322
134,776.3041026375357
135,776.3697818974832
136,776.4391523823455
137,776.5122158803205
138,776.5889562307975
139,776.6693388425736
140,776.75331040688
141,776.840798810816
142,776.931713252179
143,777.0259445525254
144,777.1233656613673
145,777.2238323410899
146,777.3271840201273
147,777.4332448008391
148,777.5418246073374
149,777.6527204569637
150,777.7657178379961
151,777.8805921760476
152,777.9971103721158
153,778.1150323954955
154,778.2341129140315
155,778.3541029422531
156,778.4747514852248
157,778.5958071536324
158,778.7170197250317
159,778.8381416279714
160,778.9589293298193
161,779.0791446150358
162,779.1985557471495
163,779.3169385130482
164,779.4340771511426
165,779.5497651655862
166,779.6638060283126
167,779.7760137705405
168,779.8862134659265
169,779.9942416081611
170,780.099946386101
171,780.2031878597079
172,780.3038380404819
173,780.4017808807126
174,780.4969121763777
175,780.5891393886745
176,780.6783813895445
177,780.7645681381615
178,780.8476402982747
179,780.9275488090515
180,781.0042544238134
181,781.077727232877
182,781.1479461894155
183,781.2148986589727
184,781.278580011301
185,781.3389932678358
186,781.396148812856
187,781.4500641739277
188,781.5007638764233
189,781.5482793746974
190,781.592649058198
191,781.6339183265753
192,781.6721397254082
193,781.7073731327631
194,781.7396859846701
195,781.7691535245954
196,781.7958590594964
197,781.8198942041718
198,781.8413590963359
199,781.8603625667497
200,781.8770222512431
201,781.8914646336902
202,781.9038250105415
203,781.914247368886
204,781.9228841718275
205,781.9298960469608
206,781.9354513751321
207,781.9397257769593
208,781.9429014940803
209,781.9451666618697
210,781.9467144716082
211,781.9477422231206
212,781.9484502731937
213,781.9490408895401
214,781.9497170234274
215,781.9506810159962
216,781.9521332549706
217,781.9542708007867
218,781.9572860031061
219,781.9613651285537
220,781.9666870181426
221,781.9734217898135
222,781.9817295997873
223,781.9917594763677
224,782.0036482398109
225,782.0175195202735
226,782.0334828830221
227,782.051633067596
228,782.0720493463224
229,782.0947950071518
230,782.1199169656244
231,782.1474455106792
232,782.1773941887931
233,782.2097598302578
234,782.2445227203289
235,782.2816469170308
236,782.321080716716
237,782.3627572674958
238,782.4065953290603
239,782.4525001758993
240,782.5003646402592
241,782.5500702905456
242,782.6014887388956
243,782.6544830679936
244,782.7089093625906
245,782.7646183261675
246,782.8214569583143
247,782.8792702648792
248,782.9379029719026
249,782.9972012156746
250,783.0570141840288
251,783.1171956874032
252,783.1776056411649
253,783.2381114418434
254,783.2985892188032
255,783.3589249405578
256,783.4190153529169
257,783.478768725594
258,783.538105385546
259,783.5969580194428
260,783.655271734056
261,783.7130038717052
262,783.7701235882435
263,783.8266112127035
264,783.8824574184029
265,783.9376622422836
266,783.9922339911922
267,784.0461880714889
268,784.0995457738122
269,784.1523330395157
270,784.2045792297741
271,784.2563159132583
272,784.3075756847608
273,784.3583910255347
274,784.4087932154387
275,784.4588113059872
276,784.5084711613849
277,784.5577945717984
278,784.6067984405088
279,784.6554940452413
280,784.703886374308
281,784.75197354003
282,784.7997462745432
283,784.847187515298
284,784.8942720878218
285,784.9409664909268
286,784.9872287854223
287,785.0330085833948
288,785.0782471326794
289,785.1228774903799
290,785.1668247794343
291,785.2100065229913
292,785.2523330531964
293,785.2937079936682
294,785.3340288174479
295,785.3731874838422
296,785.4110711583874
297,785.447563019885
298,785.4825431565185
299,785.5158895493169
300,785.5474791364858
301,785.5771889476654
302,785.604897293922
303,785.6304849970574
304,785.6538366396925
305,785.6748418151053
306,785.69339635372
307,785.7094035031881
308,785.7227750425819
309,785.7334323176939
310,785.7413071908658
311,785.7463429023359
312,785.7484948402588
313,785.7477312146676
314,785.7440336282923
315,785.7373975352722
316,785.7278325777119
317,785.7153627899229
318,785.7000266616906
319,785.6818770556077
320,785.6609809789876
321,785.6374192161902
322,785.611285830115
323,785.5826875413799
324,785.5517429918252
325,785.5185818979888
326,785.4833441017357
327,785.4461785288715
328,785.4072420704559
329,785.3666984037079
330,785.3247167689718
331,785.2814707168757
332,785.237136837338
333,785.1918934809951
334,785.1459194841998
335,785.0993929099146
336,785.0524898172172
337,785.0053830714041
338,784.9582412056811
339,784.911227344776
340,784.8644982000087
341,784.818203143704
342,784.7724833682099
343,784.7274711314379
344,784.683289087528
345,784.6400496993557
346,784.5978547298636
347,784.5567948106936
348,784.5169490879725
349,784.4783849464462
350,784.441157815344
351,784.4053110619001
352,784.3708759795122
353,784.3378718760991
354,784.3063062651073
355,784.2761751581273
356,784.2474634548576
357,784.2201454233256
358,784.1941852609572
359,784.1695377255955
360,784.1461488250054
361,784.123956553243
362,784.1028916620381
363,784.082878455414
364,784.0638355971403
365,784.0456769236617
366,784.0283122589722
367,784.0116482308226
368,783.9955890885765
369,783.980037522549
370,783.9648954845247
371,783.95006501027
372,783.9354490463146
373,783.9209522834244
374,783.9064819973042
375,783.891948893731
376,783.8772679516375
377,783.8623592545052
378,783.8471487982125
379,783.8315692625015
380,783.8155607334857
381,783.7990713654605
382,783.7820579705526
383,783.7644865238323
384,783.7463325701667
385,783.7275815188988
386,783.7082288144525
387,783.688279975084
388,783.6677504970705
389,783.6466656260776
390,783.6250600001173
391,783.6029771693393
392,783.580468997943
393,783.5575949545081
394,783.5344213003171
395,783.5110201902353
396,783.4874687053787
397,783.4638478396172
398,783.440241462645
399,783.4167352806265
400,783.3934158111264
401,783.3703693836203
402,783.3476811727262
403,783.3254342690255
404,783.3037087907492
405,783.2825810378732
406,783.2621226889763
407,783.2424000417254
408,783.223473300593
409,783.2053959195525
410,783.1882140113619
411,783.1719658373864
412,783.1566813925326
413,783.1423820989354
414,783.1290806196934
415,783.1167808007024
416,783.1054777456427
417,783.0951580273708
418,783.0858000380459
419,783.0773744788612
420,783.0698449869351
421,783.0631688916271
422,783.057298086481
423,783.0521799979547
424,783.0477586290232
425,783.0439756542673
426,783.0407715422465
427,783.0380866802591
428,783.0358624763068
429,783.0340424138742
430,783.0325730374
431,783.0314048497406
432,783.0304931064906
433,783.0297984944639
434,783.0292876827182
435,783.0289337355392
436,783.0287163794821
437,783.0286221212156
438,783.0286442185886
439,783.0287825127031
440,783.0290431324914
441,783.0294380848027
442,783.0299847435068
443,783.0307052526891
444,783.0316258622366
445,783.0327762177579
446,783.0341886290322
447,783.0358973409764
448,783.0379378283166
449,783.0403461302457
450,783.043158235306
451,783.0464095211837
452,783.0501342504097
453,783.054365121072
454,783.059132870425
455,783.0644659277772
456,783.0703901109259
457,783.0769283579724
458,783.0841004843385
459,783.0919229540824
460,783.1004086560541
461,783.1095666793326
462,783.119402087857
463,783.1299156997125
464,783.1411038811134
465,783.1529583681923
466,783.1654661308938
467,783.1786092928071
468,783.1923651193327
469,783.206706084316
470,783.2216000217855
471,783.2370103651112
472,783.2528964721087
473,783.269214032012
474,783.2859155480887
475,783.3029508871736
476,783.3202678844648
477,783.3378129890534
478,783.3555319336762
479,783.373370411756
480,783.3912747456117
481,783.4091925308837
482,783.4270732432765
483,783.4448687949941
484,783.462534030411
485,783.4800271535954
486,783.497310083409
487,783.5143487341312
488,783.5311132208465
489,783.5475779896885
490,783.5637218739616
491,783.5795280782808
492,783.5949840938879
493,783.6100815490298
494,783.6248159988141
495,783.6391866593278
496,783.6531960910298
497,783.666849836811
498,783.680156021219
499,783.693124919517
500,783.7057685077552
501,783.7181000060328
502,783.7301334256183
503,783.7418831276797
504,783.7533633989292
505,783.7645880480715
506,783.7755700257195
507,783.7863210685136
508,783.7968513657515
509,783.8071692449464
510,783.8172808723077
511,783.8271899656717
512,783.8368975208291
513,783.8464015562832
514,783.8556968842682
515,783.8647749167059
516,783.873623514915
517,783.8822268923477
518,783.8905655795996
519,783.8986164588723
520,783.9063528710178
521,783.913744794371
522,783.9207590925549
523,783.927359827867
524,783.9335086358975
525,783.939165154591
526,783.9442874975509
527,783.9488327586266
528,783.9527575342763
529,783.9560184519983
530,783.9585726957075
531,783.9603785202792
532,783.9613957468073
533,783.9615862284871
534,783.9609142763106
535,783.9593470352592
536,783.9568548052712
537,783.9534113055639
538,783.9489938840518
539,783.9435836745452
540,783.9371657036874
541,783.9297289487064
542,783.9212663469008
543,783.9117747578999
544,783.901254879346
545,783.8897111158489
546,783.8771514010159
547,783.8635869741798
548,783.8490321169653
549,783.8335038584327
550,783.8170216596305
551,783.799607088723
552,783.7812834968507
553,783.7620757027471
554,783.7420096913596
555,783.7211123294243
556,783.6994111001148
557,783.6769338600809
558,783.6537086248866
559,783.6297633909495
560,783.6051260013462
561,783.5798240589722
562,783.5538848847651
563,783.5273355125372
564,783.5002027070366
565,783.4725129896177
566,783.4442926567752
567,783.4155677801023
568,783.3863641810026
569,783.3567073789595
570,783.3266225175279
571,783.2961342763972
572,783.2652667800735
573,783.234043513785
574,783.2024872553417
575,783.1706200283033
576,783.1384630777819
577,783.1060368664995
578,783.0733610859749
579,783.0404546763287
580,783.0073358484786
581,782.9740221043514
582,782.9405302535275
583,782.9068764276869
584,782.8730760967704
585,782.8391440924099
586,782.8050946448433
587,782.7709414399386
588,782.7366977037834
589,782.7023763225013
590,782.6679900025271
591,782.6335514716351
592,782.5990737167542
593,782.5645702538142
594,782.5300554267578
595,782.4955447340509
596,782.461055179084
597,782.4266056362612
598,782.3922172197858
599,782.3579136395845
600,782.3237215294157
601,782.2896707353494
602,782.2557945568665
603,782.2221299362243
604,782.1887175937268
605,782.1556021070908
606,782.1228319322026
607,782.0904593604138
608,782.0585404054075
609,782.0271346122885
610,781.9963047833177
611,781.9661166176256
612,781.9366382650115
613,781.907939795797
614,781.8800925900196
615,781.8531686516515
616,781.8272398583911
617,781.8023771639917
618,781.7786497750384
619,781.7561243250233
620,781.7348640656197
621,781.7149280904338
622,781.6963706022929
623,781.6792402323695
624,781.6635794184599
625,781.6494238504038
626,781.6368019924356
627,781.6257346945341
628,781.6162349067172
629,781.6083075110635
630,781.6019492861076
631,781.5971490173172
632,781.5938877650951
633,781.5921392974268
634,781.5918706875366
635,781.5930430676586
636,781.5956125192088
637,781.59953106973
638,781.6047477606571
639,781.6112097482637
640,781.618863402289
641,781.6276553711068
642,781.6375335877376
643,781.6484481970821
644,781.6603523909289
645,781.6732031424095
646,781.6869618348613
647,781.7015947818857
648,781.7170736364693
649,781.7333756875463
650,781.7504840424159
651,781.7683876936724
652,781.7870814704697
653,781.806565876164
654,781.8268468173123
655,781.8479352322148
656,781.8698466302134
657,781.8926005557572
658,781.9162199938821
659,781.940730735376
660,781.9661607189801
661,781.9925393641356
662,782.0198969022541
663,782.0482637091512
664,782.0776696377258
665,782.1081433486689
666,782.1397116373422
667,782.1723987564434
668,782.2062257365169
669,782.2412097093368
670,782.2773632421308
671,782.3146936929646
672,782.3532025984769
673,782.3928851037756
674,782.4337294411189
675,782.4757164603659
676,782.5188192108948
677,782.5630025720682
678,782.6082229284013
679,782.6544278875033
680,782.7015560429979
681,782.7495367887985
682,782.7982901937463
683,782.8477269467749
684,782.8977483829003
685,782.9482465995222
686,782.9991046709998
687,783.0501969679838
688,783.1013895869374
689,783.1525408942209
690,783.2035021873533
691,783.2541184733657
692,783.3042293603403
693,783.3536700531994
694,783.4022724396364
695,783.4498662489489
696,783.4962802665624
697,783.5413435888204
698,783.5848869034404
699,783.6267437792204
700,783.6667519450641
701,783.7047545359504
702,783.7406012839895
703,783.7741496357452
704,783.8052657809756
705,783.8338255816759
706,783.8597153936886
707,783.8828327768589
708,783.9030870943046
709,783.9204000061749
710,783.9347058664812
711,783.9459520315282
712,783.9540990854634
713,783.9591209847116
714,783.9610051203897
715,783.959752296404
716,783.9553766205447
717,783.9479053066216
718,783.9373783874094
719,783.9238483402788
720,783.907379629323
721,783.8880481694405
722,783.8659407191769
723,783.8411542099356
724,783.8137950193293
725,783.7839781963894
726,783.751826646763
727,783.7174702870085
728,783.6810451777753
729,783.6426926452647
730,783.6025583993593
731,783.560791656493
732,783.5175442764082
733,783.4729699236102
734,783.4272232648182
735,783.3804592121105
736,783.3328322186413
737,783.2844956311183
738,783.2356011008088
739,783.1862980516862
740,783.13673320021
741,783.0870501175132
742,783.03738882288
743,782.9878853972817
744,782.938671606141
745,782.8898745206703
746,782.8416161277164
747,782.7940129199484
748,782.747175461426
749,782.7012079275668
750,782.6562076231662
751,782.6122644873724
752,782.569460599946
753,782.5278697077425
754,782.4875567928391
755,782.4485777036114
756,782.41097886841
757,782.3747971096017
758,782.3400595737626
759,782.3067837908661
760,782.2749778707117
761,782.2446408390236
762,782.2157631100754
763,782.1883270887377
764,782.1623078925932
765,782.1376741827787
766,782.11438908887
767,782.0924112084698
768,782.0716956580688
769,782.0521951499763
770,782.0338610708803
771,782.0166445398307
772,782.0004974256104
773,781.9853733043044
774,781.9712283375165
775,781.9580220519335
776,781.9457180036142
777,781.9342843154667
778,781.9236940824287
779,781.9139256445794
780,781.9049627330776
781,781.8967944971881
782,781.88941542288
783,781.8828251546868
784,781.8770282327612
785,781.8720337565599
786,781.8678549856542
787,781.8645088869779
788,781.8620156364523
789,781.8603980811489
790,781.8596811656301
791,781.8598913231781
792,781.8610558305759
793,781.8632021248917
794,781.8663570819126
795,781.8705462576584
796,781.8757930972235
797,781.8821181200948
798,781.8895380975027
799,781.8980652428537
800,781.9077064386698
801,781.9184625224135
802,781.930327650127
803,781.9432887526663
804,781.9573250960367
805,781.9724079553994
806,781.988500410789
807,782.0055572705828
808,782.023525126334
809,782.0423425397538
810,782.0619403586845
811,782.0822421535165
812,782.1031647599191
813,782.1246189101182
814,782.1465099343834
815,782.1687385158199
816,782.1912014829041
817,782.2137926246318
818,782.236403513975
819,782.2589243280091
820,782.2812446568689
821,782.3032542963599
822,782.3248440195615
823,782.345906322716
824,782.3663361421634
825,782.3860315421686
826,782.4048943767644
827,782.4228309310402
828,782.439752548128
829,782.4555762471771
830,782.4702253347001
831,782.4836300072421
832,782.4957279386124
833,782.506464841654
834,782.5157949935035
835,782.5236817139621
836,782.530097788149
837,782.535025826599
838,782.5384585578562
839,782.5403990496075
840,782.54086085408
841,782.5398680723632
842,782.5374553318568
843,782.5336676721
844,782.5285603364416
845,782.5221984692305
846,782.5146567195143
847,782.506018752482
848,782.4963766697721
849,782.4858303400501
850,782.4744866419347
851,782.462458622103
852,782.4498645722102
853,782.4368270289541
854,782.4234717017348
855,782.4099263324572
856,782.396319493769
857,782.382779336164
858,782.3694322994984
859,782.3564018084719
860,782.3438069733544
861,782.331761316501
862,782.3203715422997
863,782.3097363644484
864,782.2999454019335
865,782.2910781545569
866,782.2832030690836
867,782.276376706617
868,782.2706430205188
869,782.2660327525819
870,782.2625629537623
871,782.2602366348805
872,782.2590425518229
873,782.2589551280457
874,782.2599345148262
875,782.261926788049
876,782.2648642801936
877,782.2686660471189
878,782.273238470169
879,782.2784759942414
880,782.2842620012013
881,782.290469815188
882,782.2969638327071
883,782.3036007672727
884,782.3102309962009
885,782.3166999949615
886,782.3228498409258
887,782.3285207633754
888,782.3335527119515
889,782.3377869134763
890,782.341067388099
891,782.3432423992095
892,782.3441658162524
893,782.3436983745228
894,782.3417088208072
895,782.3380749380884
896,782.3326844461991
897,782.3254357780659
898,782.3162387331402
899,782.3050150111698
900,782.2916986309457
901,782.27623623989
902,782.2585873206431
903,782.23872429958
904,782.2166325595264
905,782.1923103555347
906,782.1657686292118
907,782.1370307146094
908,782.1061319280453
909,782.0731190359502
910,782.0380495984639
911,782.0009911910711
912,781.9620205114791
913,781.9212223839085
914,781.8786886777541
915,781.8345171621082
916,781.7888103215189
917,781.7416741603793
918,781.6932170226426
