acceleration,velocity,displacement
-0.026253816529859534,0.0,0.0
-0.026411450993059388,-1.316631688072973e-05,-3.2915792201824328e-09
-0.02656721356907001,-2.641098302126208e-05,-1.3185904195680386e-08
-0.026721736251678726,-3.9733220476449266e-05,-2.9721955070108224e-08
-0.026875622977005503,-5.3132560283620326e-05,-5.293840026012562e-08
-0.027029449836216586,-6.660882848692584e-05,-8.287374745276217e-08
-0.027183766309610502,-8.016213252338262e-05,-1.1956648770533928e-07
-0.027339097482456685,-9.379284847139941e-05,-1.630552329540348e-07
-0.027495947170969096,-0.00010750160963475586,-2.1337884748057361e-07
-0.02765480186017843,-0.00012128929689254273,-2.7057657411239825e-07
-0.02781613533632396,-0.00013515703119166834,-3.34688156133451e-07
-0.02798041388412443,-0.00014910616849678044,-4.0575395605556324e-07
-0.028148101911131863,-0.00016313829744559453,-4.83815072541157e-07
-0.028319667849797035,-0.00017725523988582675,-5.689134568740123e-07
-0.02849559016671317,-0.0001914590543899543,-6.610920304429576e-07
-0.028676363285101418,-0.00020575204275290795,-7.603948047286732e-07
-0.028862503218053715,-0.00022013675937869673,-8.668670052615743e-07
-0.02905455272361776,-0.0002346160233641146,-9.80555200947277e-07
-0.029253085817360726,-0.0002491929329993592,-1.1015074400381455e-06
-0.029458711496755663,-0.0002638708823278883,-1.2297733938699575e-06
-0.029672076539645886,-0.00027865357933698866,-1.3654045092861767e-06
-0.029893867246744178,-0.0002935450652835862,-1.5084541704413205e-06
-0.03012481001960135,-0.00030854973460017255,-1.6589778704122601e-06
-0.030365670703728045,-0.0003236723547810049,-1.8170333927575544e-06
-0.030617252672205116,-0.00033891808562498823,-1.9826810028590528e-06
-0.030880393670555124,-0.0003542924972106783,-2.1559836485679692e-06
-0.03115596149266288,-0.0003698015860014828,-2.3370071693710096e-06
-0.03144484861068747,-0.0003854517885273204,-2.5258205130032105e-06
-0.03174796592096702,-0.000401249992160234,-2.7224959581750992e-06
-0.03206623577448565,-0.00041720354258409717,-2.927109341861182e-06
-0.03240058443718196,-0.0004333202476370141,-3.13974028941646e-06
-0.03275193408614113,-0.0004496083772678449,-3.3604724456426745e-06
-0.033121194402970545,-0.0004660766593901228,-3.5893937048071664e-06
-0.03350925378573243,-0.00048273427143729854,-3.8265964375140215e-06
-0.03391697017479627,-0.0004995908274274307,-4.0721777122302034e-06
-0.03434516148174228,-0.0005166563603415653,-4.326239509172453e-06
-0.03479459562375087,-0.0005339412996179385,-4.588888924162329e-06
-0.035265980191280064,-0.0005514564435716963,-4.860238359959738e-06
-0.035759951805323785,-0.0005692129265708472,-5.140405702495373e-06
-0.03627706525294753,-0.0005872221808354151,-5.429514479346939e-06
-0.03681778252892382,-0.0006054958927808829,-5.727693997751014e-06
-0.037382461949523396,-0.0006240459539004948,-6.035079459421358e-06
-0.037971347528143934,-0.0006428844062699116,-6.35181204946396e-06
-0.038584558802843436,-0.0006620233828526585,-6.678038996744602e-06
-0.03922208128456473,-0.0006814750428745105,-7.013913603176394e-06
-0.03988375766534575,-0.0007012515026119881,-7.3595952395480185e-06
-0.04056927990970643,-0.0007213647620057512,-7.715249305702454e-06
-0.041278182360761216,-0.0007418266275733681,-8.081047153097234e-06
-0.04200983602067466,-0.0007626486321687271,-8.457165968032758e-06
-0.042763444202399664,-0.0007838419522244956,-8.843788614131063e-06
-0.043538039786668405,-0.0008054173232217626,-9.241103432992628e-06
-0.04433248434115212,-0.0008273849542537177,-9.649304002361498e-06
-0.04514546935512661,-0.0008497544426777874,-1.0068588851594373e-05
-0.04597551980913506,-0.0008725346899688529,-1.0499161134756033e-05
-0.046821000239537156,-0.0008957338199810209,-1.09412282622435e-05
-0.04768012337948314,-0.000919359100885776,-1.13950014924602e-05
-0.048550961367269496,-0.0009434168720724641,-1.186069548569976e-05
-0.04943145941722619,-0.0009679124772685881,-1.2338527823035024e-05
-0.05031945175672235,-0.0009928502050620752,-1.282871849361769e-05
-0.05121267955243688,-0.001018233237889365,-1.333148935435555e-05
-0.052108810482347584,-0.0010440636103980611,-1.3847063566427407e-05
-0.0530054595614671,-0.0010703421779090147,-1.4375665013504176e-05
-0.053900210804311954,-0.0010970685955004596,-1.4917517706856546e-05
-0.05479063930473047,-0.00112424130802772,-1.547284518273859e-05
-0.055674333327665616,-0.001151857551185819,-1.6041869897541977e-05
-0.05654891603466669,-0.0011799133635264022,-1.6624812626220033e-05
-0.05741206650433666,-0.001208403609161153,-1.722189186939192e-05
-0.05826153975351276,-0.0012373220107256154,-1.783332327436361e-05
-0.05909518550725667,-0.0012666611920408078,-1.8459319075055217e-05
-0.0599109655065877,-0.001296412729794269,-1.9100087555513987e-05
-0.0607069691869252,-0.001326567213467647,-1.9755832541329465e-05
-0.06148142760309165,-0.0013571143126651513,-2.0426752922862665e-05
-0.062232725509122906,-0.001388042850943205,-2.1113042213764754e-05
-0.06295941151978901,-0.001419340885200433,-2.1814888147800663e-05
-0.06366020629117704,-0.0014509957896531745,-2.2532472316514066e-05
-0.06433400866743544,-0.0014829943433928277,-2.3265969849775568e-05
-0.06497989975419294,-0.0015153228204982348,-2.4015549140748332e-05
-0.06559714489653921,-0.001547967081660918,-2.478137161628812e-05
-0.06618519356261233,-0.001580912666275706,-2.5563591553272278e-05
-0.06674367716883547,-0.0016141448839585679,-2.6362355940830845e-05
-0.0672724049350003,-0.0016476489044845268,-2.717780438794162e-05
-0.06777135791984526,-0.0016814098451982382,-2.801006907536231e-05
-0.06824068143731567,-0.0017154128550375286,-2.8859274750421252e-05
-0.06868067606687246,-0.0017496431944135757,-2.9725538762784027e-05
-0.06909178744491001,-0.0017840863102915213,-3.06089711389603e-05
-0.06947459497629024,-0.0018187279058968213,-3.150967469300739e-05
-0.06982979955819829,-0.0018535540045304434,-3.2427745170614205e-05
-0.07015821038006703,-0.0018885510070150097,-3.336327142350057e-05
-0.07046073085551835,-0.001923705742323906,-3.43163356108353e-05
-0.0707383437469161,-0.0019590055109745146,-3.5287013424159905e-05
-0.07099209555357722,-0.001994438120799638,-3.627537433210344e-05
-0.07122308025095778,-0.0020299919147507717,-3.728148184099104e-05
-0.07143242249175259,-0.0020656557904364494,-3.8305393767287846e-05
-0.07162126040771526,-0.0021014192111613165,-3.934716251768729e-05
-0.07179072817985745,-0.0021372722083082096,-4.040683537255467e-05
-0.07194193857452638,-0.0021732053749968054,-4.1484454768380923e-05
-0.07207596567124215,-0.0022092098510582475,-4.2580058574894686e-05
-0.07219382802818265,-0.0022452772994831036,-4.3693680362530024e-05
-0.07229647253889687,-0.0022813998746248733,-4.4825349656057016e-05
-0.07238475923208039,-0.002317570182567618,-4.597509217035514e-05
-0.07245944725758166,-0.0023537812341900334,-4.7142930024544556e-05
-0.07252118228090441,-0.002390026391574655,-4.832888193098573e-05
-0.07257048546897955,-0.002426299308512126,-4.9532963356007426e-05
-0.07260774419664899,-0.0024625938659285328,-5.0755186649617594e-05
-0.07263320455162207,-0.0024989041031156004,-5.199556114187863e-05
-0.07264696567848915,-0.002535224145673128,-5.3254093204075814e-05
-0.0726489759791421,-0.0025715481310875357,-5.453078627326598e-05
-0.072639031168827,-0.0026078701328745278,-5.582564083925649e-05
-0.07261677416900433,-0.0026441840842089856,-5.713865439352737e-05
-0.07258169680039898,-0.0026804837019513365,-5.846982134006745e-05
-0.07253314322067032,-0.002716762411956604,-5.981913286854443e-05
-0.07247031502729602,-0.0027530132765185957,-6.118657679066323e-05
-0.07239227791821609,-0.002789228924754974,-6.257213734098162e-05
-0.072297969776296,-0.002825401486678602,-6.397579494384001e-05
-0.07218621002234019,-0.002861522531628261,-6.539752594841673e-05
-0.07205571006439102,-0.0028975830116499436,-6.683730233423628e-05
-0.07190508465871587,-0.0029335732103307204,-6.829509138973144e-05
-0.07173286399712177,-0.00296948269749468,-6.977085536668779e-05
-0.07153750635501734,-0.0030053002900827146,-7.126455111358214e-05
-0.07131741117503265,-0.003041014019465227,-7.277612969096913e-05
-0.07107093251294251,-0.003076611105387221,-7.430553597218225e-05
-0.0707963928274111,-0.0031120779367223095,-7.585270823270963e-05
-0.07049209714577473,-0.003147400059215606,-7.74175777316941e-05
-0.07015634767386346,-0.0031825621704205153,-7.900006828910313e-05
-0.06978745892463357,-0.0032175481220701393,-8.060009586222578e-05
-0.06938377341556565,-0.0032523409301551892,-8.221756812528212e-05
-0.06894367794145345,-0.003286922792994444,-8.385238405606952e-05
-0.06846562038304964,-0.0033212751175755698,-8.550443353371202e-05
-0.06794812696685687,-0.0033553785544130463,-8.717359695170917e-05
-0.06738981983908024,-0.0033892130411145305,-8.885974485059107e-05
-0.06678943475647765,-0.00342275785476342,-9.056273757456057e-05
-0.06614583864210741,-0.0034559916731130664,-9.228242495652969e-05
-0.06545804671842595,-0.0034888926444532,-9.401864603592126e-05
-0.06472523891264613,-0.003521438465860968,-9.57712288134998e-05
-0.06394677522360169,-0.0035536064693950297,-9.75399900473138e-05
-0.06312220974437865,-0.0035853737156370247,-9.932473509357181e-05
-0.062251303051140155,-0.0036167170938359045,-0.00010112525779594005
-0.06133403269410334,-0.0036476134277722153,-0.00010294134042634208
-0.06037060156050199,-0.0036780395863358667,-0.0001047727536798691
-0.05936144392309593,-0.0037079725977067664,-0.00010661925672587976
-0.058307229042952345,-0.0037373897659482786,-0.00010848059731679353
-0.05720886225624714,-0.0037662687887730782,-0.00011035651195547386
-0.05606748353263779,-0.0037945878752202993,-0.0001122467261214722
-0.054884463544957074,-0.003822325861989698,-0.0001141509545557747
-0.05366139733931678,-0.0038494623272107664,-0.00011606890160307482
-0.052400095736353874,-0.003875977700479684,-0.00011800026160999743
-0.05110257462010667,-0.003901853368068799,-0.00011994471937713455
-0.04977104228469495,-0.0039270717722949995,-0.0001219019506622255
-0.04840788502400543,-0.003951616504122174,-0.0001238716227313298
-0.047015651169033605,-0.003975472388170434,-0.00012585339495440297
-0.04559703379156163,-0.0039986255594105825,-0.00012784691944129823
-0.04415485229436333,-0.004021063530932064,-0.0001298518417138839
-0.042692033101861794,-0.004042775252281121,-0.0001318678014096872
-0.041211589662037786,-0.0040637511579720955,-0.0001338944330122505
-0.03971660197953027,-0.0040839832058824875,-0.00013593136660321415
-0.03821019592425975,-0.004103464905358435,-0.00013797822863102438
-0.03669552259382982,-0.004122191334987957,-0.00014003464269111098
-0.03517573803703595,-0.004140159150145674,-0.00014210023031239438
-0.0336539836532851,-0.004157366580568254,-0.00014417461174507287
-0.03213336756028037,-0.004173813418371646,-0.00014625740674480784
-0.030616947170667215,-0.004189500997054382,-0.00014834823534866435
-0.0291077131440387,-0.004204432162133059,-0.00015044671863846123
-0.027608574798991082,-0.004218611234118816,-0.0001525524794875242
-0.026122347002654023,-0.004232043964569227,-0.00015466514328719622
-0.024651738518131797,-0.004244737485949423,-0.00015678433864982588
-0.023199341782444597,-0.004256700256024567,-0.0001589096980853194
-0.02176762409285448,-0.0042679419974933925,-0.00016104085864869887
-0.020358920180856138,-0.00427847363356182,-0.00016317746255646267
-0.01897542614645743,-0.004288307220143648,-0.00016531915776988904
-0.017619194717688715,-0.004297455875359684,-0.00016746559854376487
-0.016292131796474898,-0.004305933706988225,-0.00016961644593935183
-0.014995994249823227,-0.0043137557384998,-0.00017177136830072383
-0.013732388900029022,-0.004320937834287263,-0.0001739300416939206
-0.012502772659608627,-0.004327496624677172,-0.0001760921503086617
-0.011308453750363358,-0.004333449431279665,-0.00017825738682265092
-0.010150593943929954,-0.004338814193203239,-0.00018042545272877163
-0.00903021175658728,-0.004343609394628368,-0.00018259605862572953
-0.007948186510761786,-0.004347853994195206,-0.0001847689244729354
-0.006905263139067511,-0.004351567356607663,-0.00018694377981063614
-0.005902057572123634,-0.004354769186785461,-0.00018912036394648442
-0.004939062529485327,-0.0043574794668108634,-0.0001912984261098835
-0.0040166535101002565,-0.00435971839582076,-0.0001934777255755414
-0.003135094744826737,-0.004361506332884492,-0.00019565803175771771
-0.0022945448520262667,-0.004362863742783705,-0.00019783912427663477
-0.001495061961806552,-0.004363811144487163,-0.0002000207929984525
-0.0007366081417713397,-0.004364369062013058,-0.00020220283805007754
-1.90530232446829e-05,-0.004364557977304312,-0.00020438506980990687
0.0006578234423349823,-0.004364398284699539,-0.00020656730887540784
0.0012943291569762554,-0.0043639102465497116,-0.00020874938600822014
0.0018908590120850395,-0.004363113949507446,-0.00021093114205723444
0.0024478949651975976,-0.004362029261013125,-0.0002131124278598646
0.002966006982915671,-0.004360675785526097,-0.0002152931041214994
0.00344585474488788,-0.004359072820094146,-0.00021747304127290446
0.0038881899859449197,-0.004357239308911438,-0.00021965211930515585
0.0042938593268146,-0.0043551937965832475,-0.0002218302275815295
0.004663807406108551,-0.004352954379900017,-0.00022400726462565033
0.004999080094943761,-0.004350538658024754,-0.00022618313788513153
0.005300827564627768,-0.004347963681109861,-0.0002283577634699152
0.00557030698678964,-0.004345245897472007,-0.00023053106586456065
0.005808884669278475,-0.0043424010995579895,-0.00023270297761381815
0.006018037462538383,-0.004339444369025035,-0.0002348734389809639
0.006199353299147697,-0.004336390021334614,-0.00023704239757855382
0.006354530748524032,-0.004333251550322696,-0.00023920980797146815
0.006485377486072539,-0.004330041573264047,-0.00024137563125236483
0.006593807598705505,-0.004326771776992853,-0.00024353983458992907
0.006681837673838571,-0.004323452865674717,-0.000245702390750596
0.006751581636512853,-0.004320094510847129,-0.00024786327759472647
0.006805244302954654,-0.0043167053043622625,-0.0002500224775485288
0.006845113612503112,-0.004313292714883398,-0.0002521799770533402
0.006873551497005854,-0.004309863048606021,-0.00025433576599421257
0.00689298336230572,-0.004306421414891193,-0.00025648983711008686
0.006905886194661176,-0.004302971697501951,-0.00025864218538818517
0.006914775358734091,-0.004299516532113602,-0.00026079280744558905
0.006922190209751903,-0.004296057290721481,-0.0002629417009012978
0.006930678684577202,-0.004292594073497898,-0.0002650888637423527
0.006942781060278877,-0.0042891257085616846,-0.0002672342936878676
0.006961013089905497,-0.004285649760024138,-0.000269377987555014
0.006987848754317961,-0.004282162544563082,-0.0002715199406311608
0.0070257028932948044,-0.004278659156651179,-0.0002736601460564644
0.007076913977585025,-0.004275133502433459,-0.00027579859422123554
0.007143727253643312,-0.004271578342125652,-0.0002779352721823753
0.0072282784547457925,-0.004267985340698555,-0.0002800701631030814
0.007332578250486965,-0.004264345126522247,-0.00028220324571988657
0.0074584976058378145,-0.004260647357558166,-0.00028433449384090666
0.007607754220713915,-0.004256880794601528,-0.0002864638758789466
0.007781900200893419,-0.004253033380996126,-0.00028859135442284604
0.007982311075522993,-0.0042490923281770215,-0.00029071688585013934
0.008210176245228115,-0.004245044206346834,-0.0002928404199837703
0.008466490928647478,-0.004240875039553365,-0.00029496189979524536
0.008752049669731919,-0.00423657040440377,-0.00029708126115623464
0.009067441466200109,-0.004232115531619787,-0.00029919843264024056
0.00941304657831573,-0.004227495409608658,-0.0003013133353755477
0.009789035074329183,-0.004222694889195497,-0.00030342588295024874
0.010195367160358945,-0.004217698788636825,-0.0003055359813697068
0.010631795329074155,-0.004212491998014467,-0.0003076435290663696
0.011097868349556677,-0.004207059582094809,-0.00030974841696139693
0.01159293711213435,-0.004201386880729386,-0.000311850528577103
0.012116162329648383,-0.00419545960586894,-0.0003139497401987526
0.012666524076560418,-0.004189263934267389,-0.0003160459210837867
0.01324283312836334,-0.004182786594966158,-0.0003181389337160951
0.013843744055306303,-0.004176014950670241,-0.0003202286341025042
0.014467770016577211,-0.00416893707215227,-0.00032231487210820984
0.015113299176118661,-0.004161541804854096,-0.00032439749182746144
0.015778612615482086,-0.0041538188269061955,-0.0003264763319854015
0.01646190356115622,-0.004145758697862036,-0.00032855122636659355
0.01716129768087027,-0.004137352897551529,-0.00033062200426544697
0.017874874142129498,-0.004128593854595779,-0.0003326884909534838
0.01860068708216079,-0.004119474964289707,-0.00033475050815820516
0.019336787125373598,-0.004109990595737823,-0.00033680787454821206
0.020081242601050733,-0.004100136088306216,-0.0003388604062192231
0.020832160148854563,-0.00408990773761874,-0.00034090791717570436
0.021587704442591026,-0.004079302771470878,-0.0003429502198029768
0.022346116799947018,-0.004068319316160244,-0.0003449871253248846
0.02310573246031648,-0.004056956353845178,-0.0003470184442423859
0.02386499629884327,-0.004045213671655387,-0.00034904398674876104
0.024622476715565497,-0.004033091803401785,-0.00035106356311752536
0.025376877413293208,-0.00402059196486957,-0.0003530769840595932
0.02612704677084773,-0.004007715983823535,-0.00035508406104676647
0.02687198453882518,-0.003994466225996117,-0.0003570846065992214
0.027610845636940773,-0.0039808455184521755,-0.0003590784345353335
0.02834294091218202,-0.003966857071814895,-0.00036106536018290026
0.029067734821827815,-0.003952504402881392,-0.0003630452005515743
0.02978484013530501,-0.003937791259142109,-0.0003650177744670802
0.030494009894907068,-0.003922721546634556,-0.00036698290266852436
0.031195127009487286,-0.003907299262408457,-0.0003689404078707851
0.03188819194284378,-0.0038915284326703744,-0.0003708901147945548
0.03257330898268559,-0.0038754130574389922,-0.00037283185016708214
0.03325067154705157,-0.003858957062306558,-0.0003747654426970185
0.03392054692770998,-0.0038421642576878675,-0.0003766907230270171
0.03458326080349017,-0.0038250383057550673,-0.0003786075236678778
0.03523918178712098,-0.0038075826951074147,-0.00038051567891809345
0.0358887062051814,-0.003789800723109339,-0.00038241502477264763
0.0365322432666191,-0.003771695485741389,-0.00038430539882486033
0.03717020075495267,-0.0037532698747359964,-0.0003861866401649797
0.037802971370886514,-0.0037345265817045367,-0.0003880585892790898
0.038430919839541555,-0.0037154681089019296,-0.0003899210879517414
0.03905437087119247,-0.003696096786224246,-0.000391773979175523
0.03967359802890712,-0.003676414793999221,-0.0003936171070705789
0.040288813523703615,-0.0036564241911110685,-0.00039545031681685643
0.040900158940958935,-0.003636126947994903,-0.00039727345460163294
0.041507696906070216,-0.003615524984033146,-0.00039908636758463997
0.04211140372031926,-0.0035946202088765486,-0.0004008889038828674
0.04271116303097768,-0.0035734145671887244,-0.00040268091257688373
0.04330676062750335,-0.0035519100862741043,-0.0004044622437402494
0.04389788045881333,-0.003530108926002525,-0.00040623274849331856
0.04448410193668253,-0.0035080134304036515,-0.00040799227908242013
0.04506489853859175,-0.003485626180284833,-0.00040974068898509225
0.04563963767314728,-0.0034629500462318983,-0.0004114778330417214
0.04620758174057191,-0.0034399882413784686,-0.000413203567613624
0.04676789031115332,-0.0034167443733655375,-0.00041491775076731
0.04731962334626408,-0.0033932224949511833,-0.0004166202424843892
0.04786174539628587,-0.003369427152765546,-0.0004183109048963184
0.04839313073267109,-0.0033453634337333067,-0.0004199896025429431
0.048912569405171503,-0.003321037008698846,-0.0004216562026535512
0.049418774246564934,-0.003296454172785912,-0.0004233105754489224
0.04991038886785818,-0.0032716218820073063,-0.0004249525944626207
0.05038599669700922,-0.0032465477856160893,-0.00042658213687952654
0.05084413111081501,-0.0032212402536641333,-0.00042819908388934657
