frame_number,force
0,487.0913400000166
1,486.89945183460964
2,486.7143166869412
3,486.54230374499184
4,486.38906083982585
5,486.25924525754436
6,486.15631764794426
7,486.0823809415712
8,486.0380553298729
9,486.02241165707886
10,486.0330187858578
11,486.0661586934544
12,486.1172099341906
13,486.18112617301813
14,486.25289670320143
15,486.3278991148025
16,486.4021189666292
17,486.4722703225207
18,486.5358705060999
19,486.5912996877746
20,486.6378365265435
21,486.6756373519497
22,486.7056305868371
23,486.7293207169581
24,486.74852294272983
25,486.7650689457946
26,486.7805285090376
27,486.7959862327656
28,486.8119095963472
29,486.8281423919624
30,486.84403888836727
31,486.85871161124555
32,486.8713187923477
33,486.88129836383587
34,486.8884784114118
35,486.89304402916224
36,486.8953911597275
37,486.89593180827194
38,486.89492075606677
39,486.89234816717885
40,486.8879065958693
41,486.88102762340054
42,486.87099379186543
43,486.8571320502881
44,486.83906606316566
45,486.81696745752475
46,486.7917300989321
47,486.7650026609231
48,486.739046753837
49,486.7164362700756
50,486.6996628222813
51,486.69073691419976
52,486.69086569861526
53,486.7002592170555
54,486.71808604076165
55,486.74257751418713
56,486.7712686581572
57,486.80135354470826
58,486.8301121659902
59,486.8553369148385
60,486.8756680279625
61,486.8907574948877
62,486.90122364275834
63,486.90841756279576
64,486.9140688193707
65,486.9198905328329
66,486.92721015094196
67,486.9366762537408
68,486.9480794797094
69,486.9603014105607
70,486.9713708875898
71,486.9785953200075
72,486.97876394893956
73,486.9684600828605
74,486.9445174308397
75,486.90459217052785
76,486.8477319511758
77,486.77476754307037
78,486.68837408009847
79,486.5927422105221
80,486.4929217787135
81,486.3939944873163
82,486.3002581521944
83,486.2145694063149
84,486.1379335079782
85,486.0693815539099
86,486.0061416899258
87,485.9440843410973
88,485.87839894515474
89,485.8044377051758
90,485.71862966435526
91,485.61932256023067
92,485.50737321018227
93,485.38631659349113
94,485.26201583101755
95,485.1418117557326
96,485.0333168216162
97,484.9430975159138
98,484.87552590444676
99,484.83203365376187
100,484.8108883899733
101,484.8074791634917
102,484.81499149892056
103,484.82530357750215
104,484.8299468410353
105,484.8210176433531
106,484.7919653918011
107,484.7382032591549
108,484.65749614916274
109,484.5500891556904
110,484.4185600329826
111,484.26741477318825
112,484.1024874450234
113,483.9302387755446
114,483.7570572024324
115,483.5886427376293
116,483.42950808381164
117,483.28259219901463
118,483.14897299532544
119,483.02768483910705
120,482.9156722190221
121,482.8079267420857
122,482.6978517367951
123,482.57787178421137
124,482.44025366334387
125,482.27804226247275
126,482.0859653193183
127,481.86115160415255
128,481.6035459663099
129,481.3159709623783
130,481.0038465680331
131,480.6746210255786
132,480.33699498031984
133,480.00004556387677
134,479.67236758725113
135,479.36133438900805
136,479.07254684605545
137,478.8095024970481
138,478.5734907475897
139,478.36370631241647
140,478.1775634981265
141,478.01117987903
142,477.85997665076303
143,477.7193202937325
144,477.5851189581901
145,477.4542961694061
146,477.325087320409
147,477.19712487563055
148,477.07129126680553
149,476.9493401725139
150,476.83333743765763
151,476.7250425773788
152,476.6253925141361
153,476.53421914623493
154,476.45024489178064
155,476.3713123746389
156,476.2947606481073
157,476.21785953533714
158,476.1382275804495
159,476.0541727010996
160,475.9649141871428
161,475.8706748082412
162,475.7726643247766
163,475.6729949263266
164,475.5745604893335
165,475.48088057089336
166,475.39588615715763
167,475.32362787948176
168,475.26791070122425
169,475.23188807149404
170,475.2176792754161
171,475.2260976585556
172,475.2565751391195
173,475.30732852068826
174,475.37574705593516
175,475.45891569647694
176,475.55415138934467
177,475.65943306878665
178,475.7736412704604
179,475.89657352439343
180,476.0287569375281
181,476.17112909058864
182,476.3246810922695
183,476.49014166462376
184,476.66774914630196
185,476.8571365253376
186,477.0573435177482
187,477.26695328859773
188,477.48432570367737
189,477.70787422918914
190,477.9363212506732
191,478.168874449045
192,478.40529567308033
193,478.64587280952384
194,478.8913352616037
195,479.1427575744292
196,479.40147274797243
197,479.66898539170745
198,479.94685448535637
199,480.2365131431132
200,480.5390093917498
201,480.85468458071324
202,481.18284222944067
203,481.5214828117402
204,481.8671781241902
205,482.2151341795178
206,482.5594582106237
207,482.8936151782733
208,483.2110274573171
209,483.5057336089519
210,483.7729973156844
211,484.0097689518937
212,484.2149427667944
213,484.3893939024646
214,484.53580523558566
215,484.6583090987558
216,484.7619871535225
217,484.8522989897958
218,484.93453191419644
219,485.01335842728133
220,485.09255139110576
221,485.17486248510033
222,485.2620427460238
223,485.354977555427
224,485.45390236428165
225,485.5586478732687
226,485.6688512048569
227,485.7840863053554
228,485.90390888216825
229,486.0278477654296
230,486.1553803505217
231,486.28591111490056
232,486.41875383102064
233,486.55311115127046
234,486.6880448192204
235,486.82243680345573
236,486.95495982426576
237,487.08408868440176
238,487.2081686379592
239,487.325521487433
240,487.43454673679366
241,487.5337824656535
242,487.6219205856303
243,487.69780499896706
244,487.7604616961602
245,487.8092030889482
246,487.843811090147
247,487.86475318047303
248,487.8733531227132
249,487.87183734755
250,487.8632053051799
251,487.8509201201406
252,487.8384724019161
253,487.82891205027204
254,487.82445430270974
255,487.82625375641663
256,487.8344131014439
257,487.84824415495484
258,487.8667257571828
259,487.8890337565663
260,487.9149889769589
261,487.9452941920171
262,487.98149723514126
263,488.0256932634297
264,488.08003516370286
265,488.1461478766179
266,488.2245486448277
267,488.31416875058983
268,488.4120551310598
269,488.5133071910412
270,488.61128262284285
271,488.6980842973385
272,488.76530545638104
273,488.8049569999526
274,488.8104453370743
275,488.777440033745
276,488.70448578785425
277,488.59327140256664
278,488.4485458013291
279,488.2777325638187
280,488.0903184429982
281,487.89708715391794
282,487.7092635296237
283,487.5376391570807
284,487.39176243398083
285,487.2792779760964
286,487.2054797221367
287,487.17310025027393
288,487.1823141206894
289,487.23090541927087
290,487.3145463779684
291,487.42715237645706
292,487.56130943368635
293,487.7087936938886
294,487.8611947503132
295,488.01061121951943
296,488.1503339780749
297,488.2754038357291
298,488.3829391790518
299,488.47217105451097
300,488.5441888334392
301,488.601468031085
302,488.6472928257652
303,488.685184582269
304,488.7184169210354
305,488.74965884262605
306,488.78075199383153
307,488.8126045123288
308,488.84517946155165
309,488.8775643791222
310,488.90811238112104
311,488.9346387345305
312,488.9546508672983
313,488.9655925574437
314,488.965089347795
315,488.9511834966204
316,488.9225389190818
317,488.87858263881964
318,488.8195445674767
319,488.7463791553531
320,488.6605937709241
321,488.5640389479477
322,488.4587143287997
323,488.3466199236184
324,488.22965627831275
325,488.1095627329437
326,487.98788424423964
327,487.86597032230543
328,487.7450198290413
329,487.6261765813881
330,487.51065475627854
331,487.3998510683151
332,487.2954008876887
333,487.19915559180896
334,487.1130802052223
335,487.03908225556034
336,486.9787935586245
337,486.9333461060583
338,486.90319815993195
339,486.8880538932572
340,486.88687937751257
341,486.8979771810287
342,486.91906767452707
343,486.9473405001248
344,486.9794713050521
345,487.0116306398797
346,487.0395305253077
347,487.0585529869754
348,487.0639862905664
349,487.0513679899189
350,487.01690982461554
351,486.95796182028334
352,486.8734558179005
353,486.76424854739935
354,486.6332746325865
355,486.4854400671589
356,486.3272362251639
357,486.1661153659485
358,486.00972735648764
359,485.8651600992898
360,485.73832826209485
361,485.633605094848
362,485.5537143466698
363,485.4998336385456
364,485.47183169512135
365,485.4685653723039
366,485.488175260458
367,485.52832635043404
368,485.58635207630897
369,485.6592893144064
370,485.7438328946272
371,485.836271367195
372,485.93247532013015
373,486.0279898953562
374,486.11823919139687
375,486.19879942924285
376,486.2656679706304
377,486.3154672278578
378,486.3455661940414
379,486.3541419119549
380,486.3402138795799
381,486.3036722164123
382,486.2453035886339
383,486.16680789283896
384,486.07079669774214
385,485.9607692623286
386,485.84106289661025
387,485.71676061082826
388,485.59351810301183
389,485.4772699737348
390,485.3738058380142
391,485.28825337959637
392,485.22453823103007
393,485.1848996262629
394,485.16953730432135
395,485.1764599464547
396,485.20159287161806
397,485.2391698749148
398,485.2823803264017
399,485.32418363481554
400,485.3581615010841
401,485.37927227734485
402,485.3844009962657
403,485.37264172434345
404,485.34528631393664
405,485.3055252813784
406,485.25789731102196
407,485.2075531234353
408,485.1594284636244
409,485.11744592132095
410,485.0838696889428
411,485.0589135083302
412,485.04066387572595
413,485.02533930754515
414,485.00785473779234
415,484.9825964162712
416,484.9442628635886
417,484.8886214756657
418,484.81306934151996
419,484.7169473347172
420,484.6016126959871
421,484.4703080136053
422,484.32786870317864
423,484.1803004324708
424,484.03425079640317
425,483.8964061499503
426,483.77286800855273
427,483.6685940356631
428,483.5869997166576
429,483.529787178339
430,483.49700595533744
431,483.48729010108616
432,483.4981876017815
433,483.52650505051514
434,483.5686121198997
435,483.6206721225577
436,483.67879085466706
437,483.7391044758037
438,483.7978436092105
439,483.8514097855504
440,483.89649017726236
441,483.9302216155806
442,483.95039470819904
443,483.9556691373966
444,483.9457603095406
445,483.9215580485743
446,483.88514715477
447,483.8397137989466
448,483.7893392667542
449,483.7387011174241
450,483.69271465810516
451,483.65614920850606
452,483.63324716027745
453,483.6273684487019
454,483.6406844874814
455,483.67394956466217
456,483.7263743128871
457,483.795614617975
458,483.87787947203356
459,483.9681539281031
460,484.0605217031055
461,484.14855988751424
462,484.22577690871094
463,484.28607481970766
464,484.32422572566446
465,484.3363450326735
466,484.320317122666
467,484.2760963607339
468,484.205791707806
469,484.11346556660163
470,484.00464239404056
471,483.8856086108132
472,483.76264609421196
473,483.6413457199866
474,483.52610725541865
475,483.41987803493174
476,483.32413090234655
477,483.23903600344477
478,483.163749937302
479,483.09674194578184
480,483.0361029374743
481,482.97982274798125
482,482.9260464475853
483,482.8733159704227
484,482.8207790858479
485,482.7683273169867
486,482.7166233865396
487,482.6669996133157
488,482.62124438550137
489,482.58132747225983
490,482.54912537840124
491,482.5261861761062
492,482.5135348316418
493,482.51149844097927
494,482.51954869463646
495,482.53620167517545
496,482.55904152251463
497,482.58491782672456
498,482.6103161694366
499,482.6318456560539
500,482.64675191756
501,482.65336146834176
502,482.6513863946322
503,482.6420451209107
504,482.62797398225763
505,482.61292746240906
506,482.6013040617963
507,482.59757638340255
508,482.60572111664845
509,482.6287300692879
510,482.66825995018877
511,482.72446722988593
512,482.7960634447949
513,482.8805905366074
514,482.97485992891785
515,483.07545824939075
516,483.17922071661087
517,483.28360136919156
518,483.3869054224494
519,483.48837861500414
520,483.5881659828049
521,483.6871588674742
522,483.7867511686517
523,483.8885319590104
524,483.9939528376705
525,484.10401777465466
526,484.21904070098077
527,484.3384983429262
528,484.46098302484285
529,484.5842471197948
530,484.70533023076774
531,484.8207643616514
532,484.9268553268102
533,485.02003521782393
534,485.0972635616028
535,485.15642695971525
536,485.19666991219674
537,485.21860069642906
538,485.2243423235676
539,485.2174148588046
540,485.20244682001794
541,485.1847433915624
542,485.1697815708149
543,485.16272257844577
544,485.1680147287099
545,485.1891239206719
546,485.2283934892133
547,485.28700478553424
548,485.36499284005504
549,485.46128206188655
550,485.5737396614648
551,485.69927186275766
552,485.83399085363715
553,485.9734639381832
554,486.11303398798805
555,486.24817850463194
556,486.37485916616697
557,486.4898143606097
558,486.5907640012277
559,486.6765150770884
560,486.7469680446867
561,486.80303071328115
562,486.84645116172857
563,486.879583391371
564,486.90509876507423
565,486.9256562285678
566,486.94354934640097
567,486.96035974332364
568,486.9766599595311
569,486.99181604940924
570,487.0039361624638
571,487.00999409670453
572,487.0061266104087
573,486.9880655379466
574,486.95163393857126
575,486.893224731491
576,486.8101961718098
577,486.70115126903676
578,486.56609741168484
579,486.40649291757484
580,486.2251846574003
581,486.0262468817376
582,485.8147555664221
583,485.59655405073613
584,485.3780552008353
585,485.16608359929194
586,484.9677183773981
587,484.7900764418769
588,484.6399793891411
589,484.523473362114
590,484.445217051872
591,484.407807516676
592,484.4111628703815
593,484.4521131761985
594,484.5243448941897
595,484.6187846689019
596,484.72441719343396
597,484.82945062822284
598,484.922683467416
599,484.99487542390045
600,485.0398858969418
601,485.0553446234359
602,485.04268590145955
603,485.0065142835345
604,484.95344194402776
605,484.8906765248637
606,484.8246813479975
607,484.760169752519
608,484.69957627494335
609,484.643023510765
610,484.5887053437574
611,484.53354296970895
612,484.4739427446075
613,484.4064984148774
614,484.32852946146176
615,484.2384098726185
616,484.13569279707787
617,484.02106749425997
618,483.89620012074545
619,483.7635142195652
620,483.62596205966094
621,483.4868225342895
622,483.34953522156104
623,483.21755297733444
624,483.0941825754641
625,482.9823939021672
626,482.8846074281008
627,482.8024983766469
628,482.73686801585376
629,482.68762381813514
630,482.65388090015097
631,482.6341528616804
632,482.62656749854614
633,482.6290530856774
634,482.63948459150294
635,482.65580932362127
636,482.67616522651423
637,482.6989850396338
638,482.7230684110129
639,482.74760155887213
640,482.7721082860476
641,482.796328463519
642,482.8200349417404
643,482.8428123282006
644,482.8638348792128
645,482.8816956433464
646,482.894339985347
647,482.89913206730625
648,482.8930468933397
649,482.8729581207974
650,482.8359905782999
651,482.77991475975887
652,482.703558627701
653,482.60718836198146
654,482.4927825665401
655,482.3641268882321
656,482.2266905553845
657,482.087283807399
658,481.9535198649704
659,481.8331274331366
660,481.733182974097
661,481.6593443125949
662,481.615168571229
663,481.60159777707895
664,481.6166906661989
665,481.6556595509317
666,481.7112370589177
667,481.77434997121014
668,481.8350185590555
669,481.8833492514043
670,481.9104696714814
671,481.90927194800906
672,481.8748752298767
673,481.8047853295559
674,481.69880174546665
675,481.5587678232149
676,481.3882550911533
677,481.1922290061317
678,480.9767000528784
679,480.74835419618216
680,480.5141779005683
681,480.2811133409275
682,480.05577032224403
683,479.84418965369775
684,479.65163334083365
685,479.4823872631486
686,479.3395820330449
687,479.2250453540446
688,479.1391979271021
689,479.08100752388174
690,479.0480240173083
691,479.03652372920754
692,479.04178314037154
693,479.0584755970461
694,479.08115079994866
695,479.1047303908613
696,479.1249412629587
697,479.1386179873472
698,479.1438429030418
699,479.1399446357253
700,479.12741116749237
701,479.1077688530809
702,479.0834427902828
703,479.0575766368904
704,479.03377605659404
705,479.0157585114185
706,479.0069353923444
707,479.0099943145552
708,479.0265614317719
709,479.0570030732934
710,479.1003939640829
711,479.15465019436283
712,479.21679509304846
713,479.2832954348148
714,479.35039393221774
715,479.41438791652394
716,479.47184651255344
717,479.5197863375193
718,479.55582810388415
719,479.57834334513063
720,479.5865782464814
721,479.5807181356356
722,479.5618516461033
723,479.5318209881126
724,479.4929898221148
725,479.4479926456494
726,479.3995299565474
727,479.3502435836695
728,479.30266084992246
729,479.25915473344565
730,479.2218528394636
731,479.1924526756866
732,479.17195346024755
733,479.160371518271
734,479.15654527575714
735,479.1581405810194
736,479.161929156861
737,479.1643365855511
738,479.1621609810194
739,479.15328563065043
740,479.13718931352736
741,479.1151132907081
742,479.0898481200179
743,479.0652068468357
744,479.0453200774793
745,479.0339190401719
746,479.0337673793507
747,479.04635712559514
748,479.07190827990223
749,479.1096327244771
750,479.1581645693385
751,479.21602874362856
752,479.282022259465
753,479.3554184368954
754,479.4359606121594
755,479.523668294191
756,479.6185219166449
757,479.7201177646027
758,479.827389686264
759,479.9384781868458
760,480.0507958547122
761,480.1612964804903
762,480.2669057437899
763,480.3650222964091
764,480.45396971223045
765,480.5332918346368
766,480.6038380544128
767,480.6676564344168
768,480.72776145088795
769,480.7878439574438
770,480.8519553665998
771,480.92416207157737
772,481.0081585627433
773,481.1068517613333
774,481.2219665327303
775,481.35375023487796
776,481.5008569046991
777,481.6604628771732
778,481.8286113802855
779,482.0007234650788
780,482.17216962009843
781,482.33878664065554
782,482.49725020029257
783,482.64526022672845
784,482.7815402624873
785,482.905681034074
786,483.01787642747246
787,483.11861181836144
788,483.20836489607996
789,483.2873626514935
790,483.35541458520163
791,483.41182940667113
792,483.45542638229705
793,483.48465893231776
794,483.49785695451607
795,483.49356098468104
796,483.47088472128263
797,483.42982921530984
798,483.3714919444945
799,483.2981519902832
800,483.21324008845363
801,483.1212026756049
802,483.02725626892965
803,482.9370309251029
804,482.8561283530095
805,482.7896552138627
806,482.741810171676
807,482.71559052299506
808,482.7126524443268
809,482.73333091964685
810,482.77680337468007
811,482.8413509909418
812,482.92463891587613
813,483.02392913965855
814,483.13617359884125
815,483.2579932589989
816,483.385598146134
817,483.51472102521313
818,483.6406238205771
819,483.75820707735926
820,483.8622258556774
821,483.94759762215676
822,484.00977752608486
823,484.0451705491723
824,484.0515450042247
825,484.02840438372664
826,483.9772640634652
827,483.9017707133724
828,483.8076048411526
829,483.70212810539823
830,483.5937760497153
831,483.49124774763465
832,483.4025991317122
833,483.334389328415
834,483.2910319209451
835,483.2744552899116
836,483.28409866860056
837,483.3171911756041
838,483.36920320379636
839,483.43435157859363
840,483.5060910629742
841,483.5775936934065
842,483.64224500938985
843,483.6941567500653
844,483.7286441480229
845,483.7425857685082
846,483.7345925988743
847,483.704953840497
848,483.655380404229
849,483.5886104987234
850,483.5079612537321
851,483.4169082994089
852,483.3187567072188
853,483.216430903458
854,483.1123639112495
855,483.0084300917409
856,482.9058668558699
857,482.80517482146894
858,482.7060454754781
859,482.60739736755374
860,482.50757780217214
861,482.40471652541055
862,482.2971465402486
863,482.1837815349217
864,482.0643669640695
865,481.93957318911356
866,481.81094663297785
867,481.6807699319238
868,481.5518991719244
869,481.4276372369085
870,481.3116668831623
871,481.20801707148854
872,481.1209931647957
873,481.05499329345025
874,481.01417171437885
875,481.0019742606257
876,481.02062554010615
877,481.0706745242605
878,481.15070332487886
879,481.2572728198589
880,481.3851261272697
881,481.5276198251406
882,481.6773203553016
883,481.8266857488125
884,481.96874365013
885,482.09767882819216
886,482.2092604285996
887,482.30106614906816
888,482.3724894980279
889,482.4245425263016
890,482.45948770341823
891,482.480348898973
892,482.49036523843114
893,482.49246380805795
894,482.48883103645414
895,482.48064915935
896,482.4680356689984
897,482.4501914019799
898,482.42573243601464
