acceleration,velocity,displacement
-0.012646971592420798,0.0,0.0
-0.012363571927910334,-6.252635880082783e-06,-1.5631589700206958e-09
-0.012081642630751767,-1.2363939519748309e-05,-6.217302819978469e-09
-0.011802635980649524,-1.8335009172598634e-05,-1.3892039993065205e-08
-0.011527968456180197,-2.4167660281806065e-05,-2.451770735666638e-08
-0.011259003743115226,-2.9864403331629923e-05,-3.802572326002538e-08
-0.0109970367653341,-3.542841345874225e-05,-5.434892745761842e-08
-0.010743278985492974,-4.086349239644902e-05,-7.342190392141624e-08
-0.01049884517309267,-4.6174023436095426e-05,-9.518128287955236e-08
-0.010264741796175715,-5.136492017841252e-05,-1.1956601878317933e-07
-0.01004185715954503,-5.6441569917342706e-05,-1.4651764130711814e-07
-0.009830953382799767,-6.14097725529289e-05,-1.7598047692468604e-07
-0.009632660275269076,-6.627567596744612e-05,-2.079018390547798e-07
-0.009447471117207182,-7.104570881556518e-05,-2.422321852505326e-07
-0.009275740308658988,-7.572651167203173e-05,-2.789252403724318e-07
-0.00911768281171037,-8.032486745212407e-05,-3.1793808515347076e-07
-0.008973375286043243,-8.484763197656248e-05,-3.592312100106424e-07
-0.008842758795945448,-8.930166549705966e-05,-4.0276853437904796e-07
-0.008725642954862504,-9.369376593476165e-05,-4.4851739223700327e-07
-0.008621711381651137,-9.803060451889006e-05,-4.964484848504162e-07
-0.008530528370163406,-0.00010231866445684369,-5.465358020943497e-07
-0.008451546705268714,-0.00010656418322570172,-5.98756514014986e-07
-0.008384116575344148,-0.00011077309904585494,-6.530908345828752e-07
-0.008327495524865888,-0.00011495100207090744,-7.095218598620658e-07
-0.008280859365000053,-0.00011910309079337393,-7.680353830781362e-07
-0.008243313925685775,-0.0001232341341160454,-8.28619689305491e-07
-0.008213907501433465,-0.0001273484394728252,-8.912653327027086e-07
-0.008191643821670975,-0.0001314498273036013,-9.559648993968151e-07
-0.008175495362441738,-0.00013554161209962948,-1.0227127592476229e-06
-0.008164416804740367,-0.00013962659014142502,-1.0915048098078865e-06
-0.008157358438655274,-0.00014370703395227393,-1.1623382158313113e-06
-0.008153279318105607,-0.00014778469339146415,-1.235211147667246e-06
-0.008151159988773556,-0.00015186080321818394,-1.310122521819658e-06
-0.008150014632808514,-0.00015593609687357946,-1.3870717468425988e-06
-0.0081489024869648,-0.0001600108261535228,-1.4660584775993744e-06
-0.008146938391978767,-0.0001640847863732587,-1.5470823807310697e-06
-0.008143302325988757,-0.00016815734655275058,-1.630142913962572e-06
-0.008137247770773943,-0.00017222748407694124,-1.715239121619995e-06
-0.008128108760640972,-0.00017629382320979498,-1.802369448441679e-06
-0.008115305473351212,-0.00018035467676829302,-1.891531573436201e-06
-0.00809834824573042,-0.00018440809019806343,-1.9827222651777904e-06
-0.008076839936970889,-0.00018845188724373875,-2.075937259538241e-06
-0.008050476618853537,-0.00019248371638269486,-2.171171160444849e-06
-0.00801904663507301,-0.0001965010971961765,-2.268417363839567e-06
-0.007982428128759399,-0.0002005014658871346,-2.3676680046103946e-06
-0.007940585179576971,-0.0002044822192142187,-2.468913925885733e-06
-0.007893562719738505,-0.00020844075618904755,-2.5721446697365494e-06
-0.007841480417113269,-0.0002123745169732605,-2.6773484880271265e-06
-0.00778452572778867,-0.00021628101850948596,-2.7845123718978133e-06
-0.007722946326899782,-0.00022015788652315807,-2.8936220981559744e-06
-0.0076570421172846214,-0.00022400288363420417,-3.004662290695315e-06
-0.007587156991871801,-0.00022781393341149328,-3.1176164949567393e-06
-0.007513670502901165,-0.00023158914028518652,-3.2324672633809094e-06
-0.007436989580808485,-0.00023532680530611392,-3.3491962497787345e-06
-0.007357540440640059,-0.00023902543781147606,-3.467784310558132e-06
-0.007275760795562456,-0.0002426837631205267,-3.5882116107911328e-06
-0.007192092456183002,-0.00024630072643346305,-3.71045773317963e-06
-0.007106974340725494,-0.00024987549313269016,-3.834501788071168e-06
-0.007020835872122422,-0.0002534074456859021,-3.960322522775816e-06
-0.006934090707077723,-0.00025689617733070215,-4.0878984285299674e-06
-0.006847130737045853,-0.000260341482691733,-4.217207843535576e-06
-0.006760320322002095,-0.000263743345456495,-4.3482290505726335e-06
-0.006673990752734428,-0.00026710192322517914,-4.480940367743052e-06
-0.006588434969248824,-0.00027041752965567496,-4.615320230963266e-06
-0.00650390258586729,-0.000273690614044454,-4.751347266888298e-06
-0.006420595295194432,-0.00027692173851471944,-4.889000355028091e-06
-0.00633866274987824,-0.0002801115530259876,-5.028258677913267e-06
-0.006258199052241135,-0.00028326076847651747,-5.169101758288893e-06
-0.006179240010813038,-0.00028637012824228104,-5.311509482468593e-06
-0.006101761336807841,-0.00028944037857918625,-5.4554621091739604e-06
-0.006025677937015236,-0.000292472238397642,-5.6009402634181675e-06
-0.0059508444061241025,-0.00029546636898342685,-5.747924915263434e-06
-0.005877056742861402,-0.00029842334427067325,-5.896397343576959e-06
-0.005804055233416997,-0.00030134362226474286,-6.046339085210813e-06
-0.005731528381811412,-0.00030422751816854996,-6.197731870319136e-06
-0.005659117727332765,-0.00030707517969583603,-6.3505575447852325e-06
-0.005586423373986163,-0.00030988656497116576,-6.504797980951983e-06
-0.005513010062522277,-0.00031266142333029285,-6.6604349780273476e-06
-0.005438413634396052,-0.00031539927925452245,-6.8174501536735516e-06
-0.005362147761636165,-0.0003180994196035305,-6.975824828388065e-06
-0.005283710843354655,-0.0003207608842547782,-7.135539904352642e-06
-0.0052025929912519,-0.00032338246021342985,-7.296575740469694e-06
-0.005118283032087696,-0.00032596267921926477,-7.458912025327868e-06
-0.005030275444217656,-0.0003284998188383411,-7.62252764984227e-06
-0.004938077128747373,-0.0003309919069815824,-7.78740058129725e-06
-0.004841213902557335,-0.00033343672973940855,-7.953507740477499e-06
-0.0047392365955450785,-0.00033583184236393417,-8.120824883503334e-06
-0.004631726643963451,-0.00033817458317381133,-8.289326489887771e-06
-0.004518301099350575,-0.00034046209010963984,-8.458985658208634e-06
-0.004398617009533904,-0.000342691319636861,-8.62977401064526e-06
-0.004272375160557315,-0.0003448590676793838,-8.80166160747432e-06
-0.004139323189697155,-0.0003469619922669474,-8.974616872460904e-06
-0.003999258092454326,-0.00034899663758748527,-9.148606529924512e-06
-0.0038520281503173948,-0.0003509594591481782,-9.323595554108428e-06
-0.0036975342969797096,-0.0003528468497600025,-9.499547131335474e-06
-0.0035357309194802198,-0.0003546551660641175,-9.676422635291503e-06
-0.003366626064546919,-0.0003563807553101243,-9.854181615635063e-06
-0.0031902809987509103,-0.0003580199820759487,-1.0032781799981581e-05
-0.003006809061689821,-0.0003595692545910589,-1.0212179109148333e-05
-0.0028163737557825494,-0.000361025050295427,-1.0392327685369954e-05
-0.0026191860278693842,-0.00036238394024134,-1.0573179933004147e-05
-0.0024155007110737625,-0.0003636426119260758,-1.0754686571046e-05
-0.002205612114293532,-0.00036479789013241763,-1.0936796696560623e-05
-0.0019898487796253415,-0.00036584675535589737,-1.1119457857932703e-05
-0.0017685674764995527,-0.0003667863594199286,-1.130261613662666e-05
-0.0015421465547758007,-0.0003676140379277474,-1.1486216235963578e-05
-0.001310978822087885,-0.00036832731927196336,-1.1670201575263505e-05
-0.0010754641357948447,-0.000368923930011434,-1.1854514387584355e-05
-0.0008360019121101644,-0.00036940179652341027,-1.2039095819218067e-05
-0.0005929837584493346,-0.0003697590429410501,-1.2223886029084182e-05
-0.00034678642472131684,-0.0003699939854868428,-1.2408824286191155e-05
-9.776524513090467e-05,-0.00037010512340430584,-1.2593849063413942e-05
0.00015375178375535937,-0.0003700911267696497,-1.2778898125957431e-05
0.0004074691593701516,-0.0003699508215338683,-1.296390861303331e-05
0.0006631281425014166,-0.0003696831722084004,-1.3148817111468879e-05
0.0009205100243491125,-0.00036928726266668776,-1.3333559720187651e-05
0.001179438288710584,-0.0003687622755884228,-1.3518072104751428e-05
0.0014397795947179088,-0.0003681074711175657,-1.3702289541427925e-05
0.0017014435519593456,-0.0003673221653308964,-1.388614695054004e-05
0.001964381317009403,-0.0003664057091136542,-1.4069578919151177e-05
0.0022285830936945696,-0.0003653574680109782,-1.4252519713432334e-05
0.0024940746549218396,-0.0003641768035738241,-1.4434903281328535e-05
0.002760913016830249,-0.0003628630566558861,-1.4616663246385962e-05
0.003029181394420573,-0.0003614155330530734,-1.4797732893813203e-05
0.0032989835645653187,-0.00035983349181332693,-1.4978045150029804e-05
0.0035704377640629176,-0.00035811613648116986,-1.5157532557103428e-05
0.0038436702556582415,-0.0003562626094762396,-1.5336127243592782e-05
0.004118808699642841,-0.00035427198973741434,-1.5513760893396195e-05
0.004395975470056118,-0.00035214329369498957,-1.5690364714254295e-05
0.004675281051942108,-0.00034987547956449004,-1.5865869407569166e-05
0.004956817650216936,-0.0003474674548889503,-1.6040205141182526e-05
0.005240653130167567,-0.0003449180871938542,-1.621330152670323e-05
0.005526825394667455,-0.0003422262175626454,-1.6385087602892354e-05
0.005815337290167,-0.0003393906768914368,-1.6555491826505876e-05
0.006106152129769958,-0.0003364103045364526,-1.6724442071862848e-05
0.006399189921675412,-0.0003332839690235912,-1.689186564025286e-05
0.0066943243796145436,-0.0003300105904482687,-1.7057689280120824e-05
0.006991380763844994,-0.00032658916416240384,-1.722183921877349e-05
0.00729013456855189,-0.00032301878532930463,-1.7384241206146417e-05
0.007590311048108041,-0.00031929867392513963,-1.7544820570960027e-05
0.0078915855615921,-0.00031542819977271457,-1.770350228938449e-05
0.008193584703379607,-0.00031140690720647164,-1.7860211066129288e-05
0.008495888173075722,-0.0003072345389873578,-1.8014871427677747e-05
0.008798031327712317,-0.0003029110591121608,-1.8167407827202626e-05
0.009099508359067662,-0.0002984366741904658,-1.8317744760528284e-05
0.009399776039801246,-0.00029381185309074854,-1.8465806892348588e-05
0.009698257967512844,-0.00028903734458892,-1.8611519191768505e-05
0.009994349202280439,-0.0002841141927964717,-1.8754807076114853e-05
0.010287421154494276,-0.000279043750207278,-1.8895596561865792e-05
0.01057682655539107,-0.00027382768827980666,-1.9033814421487564e-05
0.01086190434480013,-0.00026846800555475886,-1.9169388344946206e-05
0.011141984337876004,-0.00026296703338408984,-1.9302247104680917e-05
0.011416391575041235,-0.0002573274394058605,-1.9432320722878404e-05
0.011684450306470466,-0.0002515522289354826,-1.955954063996374e-05
0.011945487606130458,-0.00024564474445733236,-1.9683839883311944e-05
0.012198836642600441,-0.00023960866339514965,-1.9805153235275066e-05
0.012443839648510934,-0.0002334479943223718,-1.9923417399704446e-05
0.012679850630734476,-0.00022716707175256045,-2.0038571166223178e-05
0.012906237860615639,-0.00022077054962972294,-2.015055557156875e-05
0.013122386185527253,-0.00021426339361818722,-2.025931405738073e-05
0.013327699206614049,-0.0002076508722701519,-2.0364792623852813e-05
0.013521601362197044,-0.00020093854712794913,-2.0466939978702337e-05
0.013703539937667581,-0.00019413226180298296,-2.056570768093507e-05
0.013872987002096427,-0.00018723813006804195,-2.0661050278902824e-05
0.014029441267004214,-0.0001802625230007668,-2.0752925442170027e-05
0.014172429879773173,-0.00017321205521407244,-2.0841294086723736e-05
0.014301510192487793,-0.00016609357019600721,-2.0926120493076257e-05
0.014416271567721704,-0.00015891412475595485,-2.1007372416814246e-05
0.014516337278031484,-0.00015168097254451656,-2.1085021191139364e-05
0.014601366517811952,-0.0001444015465955557,-2.115904182092438e-05
0.01467105648722582,-0.00013708344084429626,-2.1229413067784343e-05
0.014725144455834218,-0.00012973439060853125,-2.129611752564755e-05
0.01476340969247324,-0.00012236225207145439,-2.1359141686317545e-05
0.014785675165494174,-0.00011497498085696253,-2.141847599454965e-05
0.014791808964403344,-0.00010758060982448816,-2.1474114892220014e-05
0.014781725448300689,-0.00010018722622131214,-2.1526056851231463e-05
0.014755386166054906,-9.280294831772324e-05,-2.157430439486622e-05
0.01471280061255942,-8.543590162306966e-05,-2.161886410735142e-05
0.014654026890242184,-7.809419474736926e-05,-2.165974663144403e-05
0.014579172333164874,-7.07858949415175e-05,-2.169696665386625e-05
0.014488394119560724,-6.351900332833609e-05,-2.1730542878433712e-05
0.014381899864262611,-5.6301429832380255e-05,-2.176049798672389e-05
0.014259948167837846,-4.9140967824355143e-05,-2.1786858586138073e-05
0.014122849104144762,-4.204526850635949e-05,-2.1809655145220752e-05
0.013970964630988446,-3.502181507257619e-05,-2.1828921916115485e-05
0.01380470889706145,-2.8077896690563712e-05,-2.184469684405627e-05
0.013624548401095065,-2.1220582366024582e-05,-2.1857021463820417e-05
0.013431001950210552,-1.4456694778198178e-05,-2.1865940783106472e-05
0.01322464036532202,-7.792784199315035e-06,-2.187150315285085e-05
0.013006085884329298,-1.2351026369022062e-06,-2.1873760124559903e-05
0.012776011213857208,5.21042163764442e-06,-2.1872766294809718e-05
0.01253513817882441,1.1538208985814824e-05,-2.1868579137153854e-05
0.01228423591915318,1.774305251030922e-05,-2.1861258821779824e-05
0.012024118588852502,2.3820141137310642e-05,-2.1850868023367918e-05
0.011755642528217746,2.9765081416578202e-05,-2.1837471717729447e-05
0.011479702901159848,3.55739177739226e-05,-2.1821136967931822e-05
0.011197229806490823,4.124315095083527e-05,-2.180193270075063e-05
0.01090918388128931,4.6769754372780306e-05,-2.177992947441973e-05
0.010616551423041925,5.215118819886311e-05,-2.1755199238776818e-05
0.01032033907035163,5.73854108222115e-05,-2.172781508902155e-05
0.010021568093555536,6.247088761318829e-05,-2.16978510144127e-05
0.009721268345541698,6.74065967229626e-05,-2.166538164332866e-05
0.009420471905902497,7.219203178582365e-05,-2.1630481986201464e-05
0.009120206428584876,7.682720136944549e-05,-2.1593227177912646e-05
0.00882148819259779,8.131262502474116e-05,-2.1553692221314098e-05
0.008525314868077694,8.564932578991003e-05,-2.1511951733610434e-05
0.008232658043964107,8.983881901792048e-05,-2.1468079697408475e-05
0.007944455609551726,9.388309743129943e-05,-2.142214921829617e-05
0.007661604129623306,9.778461236609319e-05,-2.137423229084682e-05
0.007384951389671827,0.00010154625124591697,-2.132439957494382e-05
0.0071152893054282264,0.00010517131141969198,-2.1272720184277417e-05
0.006853347387983684,0.00010866347059304496,-2.121926148877423e-05
0.006599786936287647,0.0001120267541741128,-2.116408893258244e-05
0.006355196099124465,0.00011526549993296582,-2.1107265869055673e-05
0.006120085913390141,0.00011838432043609447,-2.1048853413963408e-05
0.0058948873816833626,0.00012138806375986285,-2.098891031791442e-05
0.005679949597025478,0.00012428177300454006,-2.0927492858723317e-05
0.005475538863741227,0.00012707064511973174,-2.086465475419225e-05
0.005281838717277695,0.00012975998951498646,-2.080044709553357e-05
0.005098950721349333,0.00013235518687464322,-2.0734918301436162e-05
0.004926895917483042,0.0001348616485343513,-2.0668114092583914e-05
0.004765616814849781,0.0001372847767174345,-2.060007748627097e-05
0.00461497982936071,0.00013962992587848713,-2.053084881062199e-05
0.004474778097473753,0.00014190236536019575,-2.046046573781232e-05
0.0043447345941601415,0.00014410724353310423,-2.0388963335588995e-05
0.004224505481841859,0.00014624955355210472,-2.0316374136317694e-05
0.004113683617179593,0.0001483341008268601,-2.0242728222722955e-05
0.004011802146507756,0.00015036547226778192,-2.0168053329449293e-05
0.003918338124815994,0.00015234800733561284,-2.0092374959548443e-05
0.0038327160966381397,0.00015428577089097637,-2.0015716514991796e-05
0.0037543115822558683,0.00015618252781069987,-1.9938099440316378e-05
0.0036824544238745756,0.00015804171931223249,-1.9859543378535646e-05
0.0036164319673153674,0.00015986644091002997,-1.978006633848008e-05
0.0035554920827556903,0.00016165942192254774,-1.9699684872771934e-05
0.003498846055130174,0.00016342300645701922,-1.961841426567704e-05
0.0034456713941104613,0.00016515913581932937,-1.9536268730107954e-05
0.0033951146255645818,0.00016686933232424813,-1.9453261613072058e-05
0.0033462941381144327,0.0001685546845151679,-1.9369405608862205e-05
0.0032983031761571564,0.0001702158338437358,-1.928471297927248e-05
0.003250213091541711,0.0001718529629106605,-1.9199195780083884e-05
0.0032010769782393964,0.00017346578542810578,-1.911286609299919e-05
0.003149933808202923,0.00017505353812471636,-1.9025736262110986e-05
0.0030958131630463314,0.00017661497486752868,-1.8937819133862924e-05
0.003037740622659552,0.00017814836331395514,-1.8849128299317553e-05
0.002974743834709882,0.0001796514844282975,-1.875967833738199e-05
0.0029058592514254826,0.00018112163519983134,-1.8669485057474957e-05
0.0028301394843462772,0.00018255563488377429,-1.8578565739954057e-05
0.0027466611963405806,0.000183949835053946,-1.8486939372469627e-05
0.002654533425194264,0.00018530013370932972,-1.8394626880278807e-05
0.002552906215551847,0.00018660199361951625,-1.8301651348446597e-05
0.002440979426969319,0.00018785046503014654,-1.820803823378418e-05
0.002318011586251044,0.00018904021278345163,-1.8113815564330782e-05
0.0021833286608681653,0.00019016554784523143,-1.801901412417361e-05
0.002036332640107363,0.0001912204631704753,-1.7923667621419683e-05
0.0018765098106754516,0.00019219867378317103,-1.782781283718127e-05
0.0017034386004226006,0.00019309366088594553,-1.7731489753513992e-05
0.001516796849282836,0.0001938987197483719,-1.7634741658355414e-05
0.001316368362069174,0.0001946070110512099,-1.7537615225655517e-05
0.0011020486039849365,0.00019521161529272344,-1.7440160569069535e-05
0.000873849414273531,0.00019570558979728806,-1.7342431267797032e-05
0.0006319026340831514,0.00019608202780937723,-1.7244484363395366e-05
0.0003764625634273671,0.00019633411910875486,-1.7146380326665833e-05
0.00010790717361288871,0.00019645521154301493,-1.704818299400289e-05
-0.0001732619908700512,0.00019643887283870065,-1.694995947290746e-05
-0.0004664212801393347,0.0001962789520209483,-1.6851780016692548e-05
-0.0007708278313878936,0.00019596963974306649,-1.6753717868751545e-05
-0.0010856239350170685,0.00019550552680146525,-1.6655849077115412e-05
-0.0014098429010476433,0.00019488166009244906,-1.6558252280391933e-05
-0.0017424164057607881,0.00019409359526574696,-1.6461008466552384e-05
-0.0020821832391961655,0.0001931374453545077,-1.636420070639732e-05
-0.002427899324405036,0.0001920099247136074,-1.6267913863880293e-05
-0.002778248848994865,0.00019070838767025743,-1.6172234285784326e-05
-0.0031318563259610855,0.00018923086137651846,-1.6077249473522632e-05
-0.003487299367218891,0.00018757607245322347,-1.5983047740065196e-05
-0.0038431219132459642,0.00018574346713310725,-1.5889717855168615e-05
-0.0041978476382181235,0.00018373322474524121,-1.5797348682199028e-05
-0.004549993255444918,0.00018154626452182546,-1.570602880988226e-05
-0.0048980814752177925,0.00017918424583915978,-1.5615846182292013e-05
-0.005240653402683516,0.00017664956211968445,-1.5526887730302303e-05
-0.005576280203034069,0.00017394532871825507,-1.543923900759282e-05
-0.005903573907665592,0.00017107536519058014,-1.535298383411561e-05
-0.006221197286392744,0.00016804417239206555,-1.526820394971995e-05
-0.006527872759630212,0.00016485690488055981,-1.5184978680401793e-05
-0.006822390362946947,0.00016151933909991552,-1.5103384619406674e-05
-0.007103614802060907,0.00015803783780866354,-1.502349532517953e-05
-0.00737049164803076,0.00015441931119614062,-1.494538103792833e-05
-0.007622052718821163,0.00015067117510442763,-1.4869108416353189e-05
-0.00785742067824089,0.0001468013067551621,-1.4794740295888292e-05
-0.00807581286787861,0.00014281799836863223,-1.4722335469607343e-05
-0.008276544382112035,0.00013872990905613457,-1.4651948492751152e-05
-0.008459030402833042,0.0001345460153598983,-1.4583629511647143e-05
-0.008622787825045861,0.0001302755608029286,-1.4517424117606437e-05
