frame_number,force
0,510.4715300000345
1,510.86002648932197
2,511.22817093256464
3,511.5574550232319
4,511.8327549186819
5,512.0433692837225
6,512.1834995711132
7,512.2522354731946
8,512.25316751526
9,512.1937501807982
10,512.0845046288597
11,511.9381115780759
12,511.76842718238163
13,511.58946131180323
14,511.41437519389694
15,511.2545727466442
16,511.1189753877236
17,511.0135765811734
18,510.94134981282207
19,510.9025188083683
20,510.8951093066734
21,510.91563177910535
22,510.9597314312944
23,511.02268626967805
24,511.0997055956692
25,511.1860483538905
26,511.2770244712183
27,511.3679528477619
28,511.454132360227
29,511.53086196077885
30,511.5935421218383
31,511.63789239218903
32,511.6603042438857
33,511.6583044758035
34,511.6310454779199
35,511.57969668916127
36,511.5076167211247
37,511.42023612971565
38,511.324645042728
39,511.22893257284244
40,511.1413647097357
41,511.0695174798382
42,511.01949580948724
43,510.9953585029535
44,510.99883560365856
45,511.02936706077514
46,511.08441966129925
47,511.15998084794484
48,511.2511147848883
49,511.3524997149071
50,511.45891405104265
51,511.56566508793077
52,511.66894675751666
53,511.76608734224124
54,511.85563244886197
55,511.9372256188385
56,512.0113011022695
57,512.078666581162
58,512.1400930894072
59,512.1960253683342
60,512.2464842660887
61,512.2911713905738
62,512.329721493203
63,512.3620000369601
64,512.3883343442243
65,512.4095985430532
66,512.4271220838194
67,512.4424384800683
68,512.4569317607541
69,512.4714689076413
70,512.486113074919
71,512.499987128648
72,512.5113120461299
73,512.517602352556
74,512.5159773307275
75,512.5035414976966
76,512.4777866707649
77,512.4369651997806
78,512.3803909244795
79,512.3086432041399
80,512.2236612239773
81,512.1287122448701
82,512.0282146891564
83,511.92740996085
84,511.8319061282433
85,511.7471545660395
86,511.67795002206395
87,511.6280419161754
88,511.5999018217578
89,511.59463061545665
90,511.61194806563753
91,511.6502126556092
92,511.7064609938669
93,511.7765050534755
94,511.85515414775654
95,511.9366156952237
96,512.0150683866991
97,512.0853216378986
98,512.1434277534311
99,512.187126184867
100,512.2160530445323
101,512.2317031790824
102,512.2371646505401
103,512.2366640895799
104,512.2349835499157
105,512.2368362916343
106,512.2463023593003
107,512.2664099024706
108,512.2989095056892
109,512.3442449410867
110,512.4016913260406
111,512.4696144206354
112,512.5457968517046
113,512.6277740525496
114,512.7131258939766
115,512.7996831132867
116,512.8856315134481
117,512.9695221093534
118,513.050207531569
119,513.1267237480115
120,513.1981368756446
121,513.2633856082764
122,513.3211616774314
123,513.3698727306066
124,513.4077195900578
125,513.4328906781169
126,513.4438344999115
127,513.4395356173459
128,513.4197131648555
129,513.3848863421305
130,513.3362910985026
131,513.2756738781762
132,513.2050320518125
133,513.126405358721
134,513.0418157750062
135,512.9533848895159
136,512.8635577124368
137,512.7752933727128
138,512.6920871857368
139,512.6177530268627
140,512.5559796293804
141,512.5097451288802
142,512.4807134780641
143,512.4687451246125
144,512.4716439638162
145,512.4852334859629
146,512.5037945508043
147,512.5208085163958
148,512.5298658696122
149,512.525559367889
150,512.5041918566492
151,512.464176636608
152,512.4060753152157
153,512.3322933343911
154,512.2465212474143
155,512.15305287559
156,512.0561235089878
157,511.9593952954179
158,511.8656726277829
159,511.7768576512244
160,511.6940761333948
161,511.61786071102966
162,511.54829964131306
163,511.4851221205089
164,511.42774322429983
165,511.3753020247055
166,511.32671031723135
167,511.2807176283698
168,511.2359997867179
169,511.19128167830786
170,511.1455005862587
171,511.0980027020559
172,511.0487421640019
173,510.9984290057258
174,510.94856914485905
175,510.90136127474545
176,510.859444315238
177,510.82551282223613
178,510.8018446564098
179,510.78981931125895
180,510.7895336505887
181,510.79962789732815
182,510.8174046634589
183,510.83925188894125
184,510.8612868852212
185,510.88006576548423
186,510.8931826841627
187,510.89961976482215
188,510.89978479638376
189,510.89526412624076
190,510.8883921265653
191,510.88177025301087
192,510.877850444269
193,510.87864378975286
194,510.88555394815546
195,510.89929605169743
196,510.9198630701775
197,510.94652981580396
198,510.97790622795964
199,511.0120510622512
200,511.0466504096493
201,511.07926311594514
202,511.10762255852086
203,511.1299539548022
204,511.14524012227076
205,511.1533700412454
206,511.15513414513754
207,511.15207332210514
208,511.14622710167896
209,511.13984304288124
210,511.13509816993763
211,511.1338588863385
212,511.1374888587788
213,511.1467093049281
214,511.161514194746
215,511.1811412056855
216,511.204101218913
217,511.2282760406075
218,511.2511041779331
219,511.26987760244265
220,511.2821510976035
221,511.2862171666326
222,511.2815465157609
223,511.2690680880009
224,511.2511821640355
225,511.23146229841734
226,511.2140823678546
227,511.20307425214304
228,511.2015662780916
229,511.2111689846279
230,511.23165219235744
231,511.26098904226166
232,511.29574706092126
233,511.33172223181157
234,511.36467302525324
235,511.39102192714313
236,511.4084280301505
237,511.4161695471398
238,511.4153017401394
239,511.40857774729534
240,511.4001425675309
241,511.39503780965197
242,511.39858198107663
243,511.4157042796471
244,511.4503043064535
245,511.5047006808368
246,511.57923344219665
247,511.67209057132123
248,511.7794135498482
249,511.8956886578893
250,512.0143665592195
251,512.1286053924626
252,512.2320236276
253,512.3193709306291
254,512.3870508974102
255,512.4334431444969
256,512.45898611394
257,512.4660132428521
258,512.4583785760518
259,512.4409434111318
260,512.4190125609608
261,512.3978085291811
262,512.3820535347764
263,512.375691405654
264,512.3817374041959
265,512.4022189442486
266,512.4381723617433
267,512.4896727708891
268,512.5558791806445
269,512.6350820155917
270,512.7247565388363
271,512.8216460289642
272,512.9219057555633
273,513.0213258006273
274,513.1156229651136
275,513.2007627470035
276,513.2732587106026
277,513.3304080229403
278,513.37044906964
279,513.3926464797603
280,513.3973079602906
281,513.385728416956
282,513.3600569240039
283,513.3230916808885
284,513.2780206142247
285,513.2281393308144
286,513.1765924383317
287,513.1261923448067
288,513.0793578690781
289,513.0381718048712
290,513.0044992935204
291,512.9800819944423
292,512.9665489876289
293,512.9653363582474
294,512.977540313074
295,513.0037318537076
296,513.0437567238926
297,513.0965514346863
298,513.1600165945731
299,513.2309866712961
300,513.3053225446253
301,513.3781409187243
302,513.444182031573
303,513.4982959203978
304,513.5359983114148
305,513.5540185799294
306,513.5507460891307
307,513.5264905418024
308,513.483508141603
309,513.4257923800502
310,513.3586659739013
311,513.2882262579787
312,513.2206927064163
313,513.1617030151016
314,513.1156225110418
315,513.0849627306678
316,513.070020264557
317,513.0688251958505
318,513.0774332622801
319,513.090529279998
320,513.1022498428473
321,513.1070876967341
322,513.1007189360358
323,513.0806129465255
324,513.0463415628672
325,512.9995703979486
326,512.943762936471
327,512.8836531638268
328,512.8245621263756
329,512.7716555257954
330,512.7292502351241
331,512.7002666451841
332,512.6858976282653
333,512.685533837179
334,512.6969501955305
335,512.716717742035
336,512.7407623146366
337,512.7649588103609
338,512.7856434058183
339,512.7999566556568
340,512.805987943914
341,512.8027468548653
342,512.7900160259286
343,512.7681454321963
344,512.7378432432976
345,512.7000044918665
346,512.6555934892373
347,512.6055722086761
348,512.5508607101178
349,512.4923234411339
350,512.4307818175307
351,512.3670544581618
352,512.3020258851396
353,512.2367402132994
354,512.1725037758522
355,512.1109667185468
356,512.0541521416454
357,512.0044115873341
358,511.96429016520403
359,511.93627983273313
360,511.9224500631827
361,511.9239902416861
362,511.94075863221235
363,511.97096809820385
364,512.011122860105
365,512.0562601002381
366,512.1004767125497
367,512.1376623813059
368,512.1623200430403
369,512.1703305544041
370,512.1595166159989
371,512.1298900449349
372,512.0835269256702
373,512.0240984718114
374,511.9561687919702
375,511.88442342802875
376,511.812996596217
377,511.7450229534118
378,511.68246794949954
379,511.626212608185
380,511.57630647346895
381,511.5322779965894
382,511.49341786520074
383,511.4590064710661
384,511.4284923051325
385,511.4016209481455
386,511.378491725595
387,511.3595156803982
388,511.34527210586333
389,511.336299387941
390,511.33288910437363
391,511.33495918394954
392,511.34205409466966
393,511.35346959438647
394,511.3684519702547
395,511.3863998761899
396,511.40700621075285
397,511.4303047865377
398,511.4566154122168
399,511.4864042745066
400,511.520093882915
401,511.5578668139972
402,511.59950624842173
403,511.6443034971279
404,511.69104397543344
405,511.7380666050238
406,511.7833830438183
407,511.8248407673172
408,511.8603121587731
409,511.88789028305644
410,511.9060738518062
411,511.9139253672563
412,511.91118322019844
413,511.8983072570431
414,511.8764470177003
415,511.84733613716145
416,511.8131207919296
417,511.77612674821694
418,511.7385763136217
419,511.7022893598018
420,511.6684270717798
421,511.6373453535918
422,511.60860769699985
423,511.5811646251511
424,511.55365228267084
425,511.52472593294436
426,511.49334812382295
427,511.4589854373661
428,511.42169983566345
429,511.3821351881213
430,511.3414062437018
431,511.3009088012415
432,511.2620890513311
433,511.2262278874987
434,511.19429368447
435,511.16688742984473
436,511.144268605892
437,511.1264348810642
438,511.11323042920696
439,511.10445673205186
440,511.0999547635121
441,511.0996340865884
442,511.1034479376639
443,511.1113420298393
444,511.123219552556
445,511.138952458113
446,511.1584381111159
447,511.1816749111263
448,511.2088214702927
449,511.2402054526522
450,511.2762587487333
451,511.3173764152991
452,511.36371980813044
453,511.4150025629953
454,511.4703109901762
455,511.5280123657321
456,511.58578718449786
457,511.64078899047354
458,511.68990347653556
459,511.7300588973701
460,511.75853597604544
461,511.77323764716044
462,511.77290100756335
463,511.7572503901842
464,511.72709139796956
465,511.6843387960984
466,511.6319703307527
467,511.57390745903535
468,511.51483595063803
469,511.4599818265252
470,511.41484026095384
471,511.38482730990825
472,511.37482026921606
473,511.38859325189543
474,511.4282219276361
475,511.4935849223638
476,511.5820988393988
477,511.68878432939385
478,511.80668919843174
479,511.92761496319343
480,512.0430254172102
481,512.1449780443558
482,512.2269236430541
483,512.2842595958357
484,512.3145797686763
485,512.3176259373978
486,512.2949982724293
487,512.2497095695386
488,512.1856729163108
489,512.1072153262883
490,512.0187089101864
491,511.92438094253345
492,511.8283006721781
493,511.7344781378424
494,511.6469843932851
495,511.57001664742404
496,511.5078646707189
497,511.464765646413
498,511.4446521830998
499,511.4508025968622
500,511.4854071204683
501,511.549084497781
502,511.64042431737215
503,511.7556756690786
504,511.88871928083165
505,512.0314192915034
506,512.1743569203385
507,512.3078418486116
508,512.4230235085232
509,512.5129046496679
510,512.57308881279
511,512.6021584084298
512,512.6016647692546
513,512.5757900477157
514,512.5307860529828
515,512.4742975730077
516,512.4146489342012
517,512.3601370683239
518,512.3183580344156
519,512.2956021765146
520,512.2963641414602
521,512.3230083253495
522,512.375613839573
523,512.4520101964416
524,512.5480070114991
525,512.6578104763356
526,512.7746003520786
527,512.8912139099516
528,513.000856413608
529,513.0977451580906
530,513.1776042655993
531,513.2379600108695
532,513.278232449072
533,513.2996585835184
534,513.305093197902
535,513.2987133287646
536,513.2856244003785
537,513.2713595138554
538,513.2612891469009
539,513.2599984833178
540,513.2707113303742
541,513.2948314731533
542,513.3316565559395
543,513.3783168703553
544,513.4299866788725
545,513.4803797069907
546,513.5224740846211
547,513.5493484661421
548,513.5549830288586
549,513.5348974746503
550,513.4865540002381
551,513.4095253947847
552,513.3054851433387
553,513.1780843609555
554,513.0327375584608
555,512.8762909131358
556,512.7165444484151
557,512.561648962155
558,512.4194581680226
559,512.2969395682184
560,512.1997222132777
561,512.1318129449644
562,512.095477768181
563,512.0912668768345
564,512.1181441237505
565,512.1736623367334
566,512.2541287072238
567,512.3547414926603
568,512.4697224122478
569,512.5924815782291
570,512.7158305428159
571,512.8322308404521
572,512.9340559163979
573,513.0138584958477
574,513.0646580310319
575,513.0802746789379
576,513.0557293804494
577,512.9877056906895
578,512.8750330324887
579,512.7191149562107
580,512.5242075814513
581,512.2974600205323
582,512.048653068395
583,511.78961440556134
584,511.53335456985934
585,511.2930367100625
586,511.0809195359783
587,510.9073874280831
588,510.7801455388313
589,510.7036405704944
590,510.67875242362084
591,510.7027678698533
592,510.76961090985355
593,510.87029186181604
594,510.99354823130284
595,511.12666429834707
596,511.25645642576995
597,511.37039120588753
598,511.45776305250007
599,511.51080483074827
600,511.5255641739998
601,511.5023809734022
602,511.4458597279982
603,511.36432183903804
604,511.26881146977917
605,511.1717921122686
606,511.0857051694479
607,511.0215699300402
608,510.9877930086881
609,510.98932927908305
610,511.02729140301614
611,511.09903882139315
612,511.1987026491832
613,511.31803899328844
614,511.44745992326443
615,511.57707862818285
616,511.69763430157815
617,511.8012203882094
618,511.8817909384259
619,511.9354449021085
620,511.96049844584695
621,511.95736546869057
622,511.9282822248144
623,511.87693248040273
624,511.8080418189523
625,511.72699551633013
626,511.63949475126276
627,511.5512277331401
628,511.4675249696015
629,511.39299514654004
630,511.3311790652704
631,511.2842887150829
632,511.25309822937334
633,511.23701934472683
634,511.23434532607257
635,511.242609568667
636,511.2589874067526
637,511.28067129701566
638,511.3051682233527
639,511.33049127378746
640,511.35522988799914
641,511.37849151204233
642,511.39973053950393
643,511.418516850956
644,511.43432037787
645,511.44638174093905
646,511.4537088456411
647,511.4552030434027
648,511.44988658907164
649,511.43717842238954
650,511.41715045448007
651,511.3906945885853
652,511.35954547609595
653,511.3261400047081
654,511.29334451954537
655,511.26412275957523
656,511.2412325549367
657,511.2270199002777
658,511.22332773267544
659,511.231477369158
660,511.25225416373615
661,511.2858562163422
662,511.33182033851045
663,511.3889770683852
664,511.45548606279414
665,511.52897900774354
666,511.60680973838276
667,511.68638727315204
668,511.7655454373
669,511.84288301866314
670,511.91799745875363
671,511.99154414752326
672,512.0650868707675
673,512.1407506684842
674,512.220729517683
675,512.3067342830266
676,512.3994909059282
677,512.4983996376975
678,512.6014307657407
679,512.7052761825595
680,512.8057257959206
681,512.8982016591088
682,512.9783580934094
683,513.0426482604234
684,513.0887716097749
685,513.1159415571339
686,513.1249377734102
687,513.1179406502473
688,513.0981902950775
689,513.069543902612
690,513.0360006515408
691,513.0012372932508
692,512.9681832184989
693,512.9386706786149
694,512.9132060584943
695,512.8909011814362
696,512.8695767067121
697,512.8460204743893
698,512.8163716904365
699,512.7766037812581
700,512.7230744900924
701,512.6530929794636
702,512.5654312161413
703,512.4606977244491
704,512.341507916191
705,512.2124237793462
706,512.0796779990034
707,511.95072546394533
708,511.8336720999486
709,511.7366207357126
710,511.6669619819282
711,511.63064529809014
712,511.6314934529173
713,511.67065220576103
714,511.74627790477473
715,511.853553090147
716,511.9850789105769
717,512.1316197921586
718,512.2830869668059
719,512.4295810121163
720,512.5623046370384
721,512.6742108310677
722,512.7603369714491
723,512.8178502560536
724,512.8458721173378
725,512.8451620966683
726,512.8177392401303
727,512.7665126896012
728,512.6949789037802
729,512.6070108673497
730,512.5067251534971
731,512.3983918011652
732,512.2863571591164
733,512.1749660561194
734,512.0684846287642
735,511.9710352978782
736,511.8865549694319
737,511.81877193249534
738,511.7711729073893
739,511.74691475789604
740,511.7486380681881
741,511.77816376761206
742,511.83609195972434
743,511.9213653551319
744,512.0308988019633
745,512.1593951309279
746,512.2994478006314
747,512.4419729256331
748,512.5769447844121
749,512.6943601902797
750,512.7853310289382
751,512.8431825000014
752,512.8644059269515
753,512.849290032106
754,512.8020643187542
755,512.7304616529105
756,512.644734456364
757,512.5562892850663
758,512.4761871955409
759,512.4137698945525
760,512.3756174669046
761,512.3649473762242
762,512.3814692242415
763,512.4216501745199
764,512.4793209302643
765,512.546536252497
766,512.6145822921657
767,512.6750031511767
768,512.7205180219426
769,512.7457280528243
770,512.7475607996861
771,512.7254460723889
772,512.6812420545143
773,512.6189387132995
774,512.5441707878113
775,512.4635793967251
776,512.3840677551042
777,512.3120086424722
778,512.2524860733835
779,512.2086816407641
780,512.181522611258
781,512.169670695935
782,512.1698475597053
783,512.1774062273237
784,512.1870212804743
785,512.1933953468708
786,512.1919235981024
787,512.1792815601224
788,512.1538970098164
789,512.116247449993
790,512.0689099986813
791,512.0163013057062
792,511.9640934529673
793,511.91836765813673
794,511.8846428569444
795,511.8669621091242
796,511.8672146476116
797,511.8848090495894
798,511.91671951530793
799,511.95785049261247
800,512.0016319141542
801,512.0407565882784
802,512.0679795179719
803,512.076904227293
804,512.0626803159183
805,512.0225339216665
806,511.9560644995186
807,511.86527799222824
808,511.75437223483823
809,511.6293180752788
810,511.4972853410105
811,511.36596557310827
812,511.2428542160192
813,511.13456560250535
814,511.0462545989533
815,510.9812082890634
816,510.9406523880763
817,510.92379094789925
818,510.9280675311788
819,510.94961017479386
820,510.98380528705064
821,511.0259306905847
822,511.07176150203577
823,511.1180545559838
824,511.16283236627623
825,511.2054275762922
826,511.24629716329105
827,511.2866543682104
828,511.3279930062647
829,511.3716002878848
830,511.4181645632363
831,511.4675625341649
832,511.51884949594665
833,511.5704045251308
834,511.6201433690733
835,511.6657237060473
836,511.7047110475915
837,511.73471371668205
838,511.75351231379983
839,511.75920513174566
840,511.7503750174708
841,511.72626437641003
842,511.6869335686477
843,511.63337474169373
844,511.56754890983643
845,511.49231101135376
846,511.41120432780633
847,511.32814753862175
848,511.24707937731745
849,511.1716361202235
850,511.1049128808317
851,511.04932395126434
852,511.00654978190033
853,510.9775416708093
854,510.9625500979859
855,510.96115175236815
856,510.9722669059905
857,510.9941691325949
858,511.024491845625
859,511.06024161701197
860,511.0978411325433
861,511.1332361988968
862,511.162100825608
863,511.18015853298635
864,511.18360800995157
865,511.16960259651813
866,511.1366991245512
867,511.08517600991024
868,511.01712962193807
869,510.9362981383756
870,510.847630771856
871,510.75668591136156
872,510.6689670201228
873,510.58929235870136
874,510.52127764999983
875,510.46700505907506
876,510.42693678181615
877,510.4000856750977
878,510.3843927397465
879,510.3772185872019
880,510.3758494287694
881,510.3779336813157
882,510.3817893708001
883,510.38655518586205
884,510.3921958387095
885,510.3994011193464
886,510.40942615574596
887,510.42390941035194
888,510.444685420859
889,510.47359084052056
890,510.51224982167
891,510.56182453687865
892,510.6227396620367
893,510.6944352011579
894,510.7752377237525
895,510.86242307290814
896,510.9524732368526
897,511.0414582035058
898,511.1254512175657
899,511.20091303102623
900,511.26501753399117
901,511.31590718703137
902,511.35286336353903
903,511.3763678818105
904,511.3880282986218
905,511.39034956465775
