frame_number,force
0,652.180433646822
1,652.1226739503559
2,652.0659852678933
3,652.010892398885
4,651.9579171549597
5,651.9075679803705
6,651.8603281412211
7,651.8166425613653
8,651.7769037126119
9,651.7414373557868
10,651.7104892393713
11,651.6842138847363
12,651.6626662689328
13,651.6457967862722
14,651.6334496144262
15,651.6253645542889
16,651.6211823429111
17,651.6204532241125
18,651.6226483232837
19,651.6271733115186
20,651.6333839791711
21,651.6406035031868
22,651.6481412393947
23,651.6553127847725
24,651.6614609003776
25,651.6659767486138
26,651.6683208249914
27,651.6680429102536
28,651.6648002725913
29,651.6583732447298
30,651.6486772668502
31,651.6357705418114
32,651.6198565823063
33,651.6012811769438
34,651.5805236850813
35,651.5581829955589
36,651.5349588224389
37,651.511629241475
38,651.4890255502066
39,651.468005658937
40,651.4494272260226
41,651.4341216128366
42,651.4228695029234
43,651.4163787935945
44,651.4152651744097
45,651.4200356413293
46,651.431075052057
47,651.4486357457599
48,651.4728302379283
49,651.5036270102877
50,651.5408494281279
51,651.5841778766495
52,651.6331553259556
53,651.687196629104
54,651.7456018249071
55,651.807573533891
56,651.8722382556685
57,651.938671063722
58,652.0059229110452
59,652.0730495515181
60,652.1391409300511
61,652.2033497680205
62,652.2649180116499
63,652.3231998779659
64,652.3776803914604
65,652.4279884842028
66,652.4739039498993
67,652.5153578798498
68,652.5524266859715
69,652.5853203226839
70,652.6143656716697
71,652.6399861595888
72,652.6626786467103
73,652.6829886435202
74,652.7014850446551
75,652.718735696102
76,652.7352850591178
77,652.7516349564524
78,652.7682290261637
79,652.7854412279522
80,652.8035685286429
81,652.822827625796
82,652.8433552967532
83,652.8652118662731
84,652.8883873850565
85,652.9128101696493
86,652.93835719999
87,652.9648656224514
88,652.9921444826589
89,653.0199858698968
90,653.0481748123028
91,653.0764974563066
92,653.1047472625145
93,653.1327290949736
94,653.1602611360744
95,653.1871745922724
96,653.213311288111
97,653.2385195170816
98,653.2626488250314
99,653.2855445926645
100,653.3070432818739
101,653.3269690267689
102,653.3451319261495
103,653.361328015492
104,653.3753406125217
105,653.3869426540698
106,653.395899742617
107,653.4019737768796
108,653.4049271522265
109,653.4045275405903
110,653.4005532166534
111,653.3927988680354
112,653.3810818718312
113,653.365249091137
114,653.345184220584
115,653.3208155264522
116,653.292123577671
117,653.2591484218137
118,653.2219957019304
119,653.1808413624121
120,653.1359347402164
121,653.0875999181603
122,653.0362352114045
123,652.98231057481
124,652.9263625992389
125,652.8689866885044
126,652.810826074957
127,652.7525575933674
128,652.6948745257781
129,652.6384672145571
130,652.5840024203404
131,652.5321025502944
132,652.4833258800268
133,652.4381487358866
134,652.396950373414
135,652.3600010898402
136,652.3274539647822
137,652.2993404831809
138,652.275570122756
139,652.2559338024199
140,652.2401109499222
141,652.2276799035218
142,652.21813137427
143,652.2108846580085
144,652.2053061413387
145,652.2007294522365
146,652.1964764724528
147,652.1918783964031
148,652.186296061813
149,652.1791388672214
150,652.1698817119732
151,652.1580795085454
152,652.1433789029671
153,652.1255269130779
154,652.1043762834289
155,652.0798874650376
156,652.0521272300433
157,652.0212639856671
158,651.9875598580253
159,651.9513596324452
160,651.9130767301508
161,651.8731765837913
162,651.8321579891453
163,651.7905331752012
164,651.7488074160132
165,651.7074590414534
166,651.666920715921
167,651.6275628078436
168,651.5896795523531
169,651.5534785639105
170,651.5190741089742
171,651.4864843716772
172,651.4556327409528
173,651.4263529673564
174,651.3983978940533
175,651.3714512987818
176,651.3451421540559
177,651.3190603849135
178,651.2927730864848
179,651.2658402268313
180,651.2378291052948
181,651.2083271776618
182,651.1769531531836
183,651.1433664342869
184,651.1072750556172
185,651.0684423599675
186,651.026692702183
187,650.981916416489
188,650.9340741186653
189,650.8832002486145
190,650.8294056738855
191,650.7728791489773
192,650.7138874055254
193,650.652773641277
194,650.5899542220241
195,650.5259135095812
196,650.4611968354437
197,650.3964017136667
198,650.3321674127181
199,650.2691630048472
200,650.2080740521003
201,650.1495882288721
202,650.0943803622417
203,650.0430974520846
204,649.9963441713926
205,649.954669245444
206,649.9185530440226
207,649.8883966503865
208,649.8645125423907
209,649.8471168944675
210,649.8363235024525
211,649.832139478352
212,649.8344630592667
213,649.8430839937782
214,649.8576869476952
215,649.8778582024346
216,649.9030956212001
217,649.9328215060722
218,649.9663977005066
219,650.0031422115067
220,650.04234672226
221,650.0832945242497
222,650.1252784874735
223,650.1676186705636
224,650.2096791153872
225,650.2508833219706
226,650.2907278358732
227,650.3287933144156
228,650.3647524663628
229,650.3983744451671
230,650.4295255780668
231,650.458166642108
232,650.4843471809244
233,650.5081975691946
234,650.5299196809841
235,650.5497770754331
236,650.5680855183356
237,650.5852044064544
238,650.601529332515
239,650.6174857211893
240,650.6335232537597
241,650.6501107249067
242,650.6677310183372
243,650.6868759639892
244,650.7080408909226
245,650.7317187313955
246,650.7583935731749
247,650.7885335626424
248,650.822583023286
249,650.8609536449369
250,650.904014695603
251,650.9520824031167
252,651.0054088765819
253,651.0641711239183
254,651.1284608498054
255,651.1982757920401
256,651.2735133615114
257,651.3539672534441
258,651.4393274725744
259,651.5291838941447
260,651.6230331585762
261,651.7202884737053
262,651.8202917998904
263,651.9223278663363
264,652.0256394784268
265,652.1294436470494
266,652.2329482020692
267,652.33536866997
268,652.4359452067155
269,652.533959263942
270,652.6287495068468
271,652.7197263924869
272,652.8063848201208
273,652.8883144007825
274,652.9652071143531
275,653.036862320337
276,653.1031891829077
277,653.1642065746812
278,653.2200404956286
279,653.2709190183089
280,653.3171647580136
281,653.3591848692292
282,653.3974585951836
283,653.4325224776128
284,653.4649534944862
285,653.4953505937649
286,653.524315269909
287,653.5524319734614
288,653.580249237286
289,653.6082623822689
290,653.6368985065938
291,653.6665042566834
292,653.6973367410859
293,653.7295578974317
294,653.7632325796343
295,653.7983305078374
296,653.8347319739572
297,653.8722368753841
298,653.9105763998505
299,653.949426603952
300,653.988423171767
301,654.0271767009756
302,654.065287917316
303,654.1023623230886
304,654.1380239429269
305,654.171927920519
306,654.2037716384011
307,654.2333038559817
308,654.2603313004079
309,654.2847223174188
310,654.3064075121065
311,654.3253776395442
312,654.3416792620326
313,654.3554088207148
314,654.3667057285553
315,654.3757448928341
316,654.3827287969424
317,654.3878790106063
318,654.3914268583344
319,654.3936030526775
320,654.3946263969875
321,654.3946920505724
322,654.3939601526642
323,654.3925457240168
324,654.3905106984105
325,654.3878587184894
326,654.3845330320695
327,654.3804175229154
328,654.3753406404367
329,654.3690817794009
330,654.3613795725884
331,654.3519416509472
332,654.340455613563
333,654.3266010457844
334,654.3100623363543
335,654.2905418759796
336,654.2677731235932
337,654.2415330302799
338,654.2116533313405
339,654.1780301888164
340,654.1406316009833
341,654.0995019503466
342,654.0547631098767
343,654.00661172546
344,653.9553126216596
345,653.9011886266467
346,653.8446073877809
347,653.785965961041
348,653.7256741153883
349,653.6641373217037
350,653.6017402615776
351,653.5388315088966
352,653.4757099327994
353,653.4126133227959
354,653.3497096410498
355,653.2870911291253
356,653.2247713003311
357,653.1626847186955
358,653.1006894465892
359,653.0385720999532
360,652.97605547061
361,652.9128085856471
362,652.8484589388938
363,652.7826065501895
364,652.7148394638665
365,652.6447501937342
366,652.57195245549
367,652.496097400452
368,652.4168885478447
369,652.3340946956855
370,652.2475602469924
371,652.1572126046308
372,652.0630665165086
373,651.9652254152552
374,651.8638798634173
375,651.7593032450578
376,651.651844926287
377,651.5419212598508
378,651.4300049541289
379,651.316613384335
380,651.2022964045649
381,651.0876241864029
382,650.9731755828892
383,650.8595274619241
384,650.7472453462091
385,650.6368755644555
386,650.5289390086922
387,650.4239265188954
388,650.3222958599878
389,650.2244701990959
390,650.1308379130077
391,650.041753435927
392,649.9575387111678
393,649.8784847012769
394,649.8048524072708
395,649.7368729733308
396,649.6747466723857
397,649.618640802094
398,649.5686867059756
399,649.5249762644033
400,649.4875582805088
401,649.4564351731083
402,649.4315602380256
403,649.412835503315
404,649.4001100255591
405,649.3931784711147
406,649.3917799912431
407,649.3955976083159
408,649.4042584490013
409,649.4173351627584
410,649.4343488102452
411,649.45477344067
412,649.4780425115682
413,649.5035572574265
414,649.5306970797594
415,649.5588319562708
416,649.5873367174956
417,649.6156068561077
418,649.6430753698522
419,649.6692299973005
420,649.6936300691077
421,649.7159220635336
422,649.735852830833
423,649.753279382054
424,649.7681742351413
425,649.7806256632468
426,649.7908327180262
427,649.7990953775312
428,649.8058004387918
429,649.8114039099307
430,649.8164108342128
431,649.8213537566049
432,649.8267712970796
433,649.833188343952
434,649.8410991320779
435,649.850953968453
436,649.8631497684732
437,649.8780240663339
438,649.8958518955931
439,649.9168449157462
440,649.9411523224983
441,649.9688633309096
442,650.0000112534373
443,650.0345793068781
444,650.072508226798
445,650.1137055683132
446,650.1580562887306
447,650.2054339080119
448,650.2557112942371
449,650.308769992752
450,650.3645070702496
451,650.4228387022421
452,650.4837001601288
453,650.5470423617447
454,650.6128256095462
455,650.6810114353112
456,650.7515535577606
457,650.8243888915273
458,650.8994293944543
459,650.9765553533892
460,651.0556105514715
461,651.1363996920769
462,651.2186884308825
463,651.3022062577337
464,651.3866522108958
465,651.4717030795579
466,651.5570234922815
467,651.6422771531335
468,651.7271384247986
469,651.8113034162318
470,651.8944997267407
471,651.9764940814231
472,652.057097296047
473,652.1361663230081
474,652.2136034878303
475,652.2893533088096
476,652.3633974106071
477,652.4357480153608
478,652.5064404188988
479,652.5755248130151
480,652.643057808007
481,652.7090940076941
482,652.773677961068
483,652.8368367678285
484,652.8985735934095
485,652.9588623875669
486,653.0176441633685
487,653.0748251823131
488,653.1302772437105
489,653.183840033956
490,653.2353252600549
491,653.284522164405
492,653.3312040245715
493,653.3751353382146
494,653.4160794927911
495,653.4538067508568
496,653.4881023456745
497,653.5187744528295
498,653.5456618205682
499,653.5686408261236
500,653.5876315967308
501,653.6026026625588
502,653.613573558461
503,653.6206149489591
504,653.6238461683195
505,653.6234304259544
506,653.6195682138432
507,653.6124896065278
508,653.6024461598957
509,653.589703022509
510,653.5745317241016
511,653.5572039480109
512,653.5379864505499
513,653.5171371705228
514,653.4949024801512
515,653.4715154650803
516,653.4471951109218
517,653.4221463336173
518,653.3965608515446
519,653.3706188616146
520,653.3444913486684
521,653.3183427037122
522,653.2923332241552
523,653.2666210612064
524,653.2413632463196
525,653.2167154897285
526,653.1928304738291
527,653.1698544435089
528,653.1479220765758
529,653.12714982881
530,653.1076281192626
531,653.0894128931235
532,653.0725173071855
533,653.0569044250257
534,653.042481746808
535,653.0290981349481
536,653.0165433679399
537,653.0045502758762
538,652.9927992103588
539,652.9809244817458
540,652.9685223722345
541,652.9551603990388
542,652.9403876276391
543,652.9237459759801
544,652.9047825429068
545,652.8830629867398
546,652.8581858762562
547,652.8297977710909
548,652.7976085803795
549,652.7614065029577
550,652.7210716012606
551,652.6765868916345
552,652.628045852859
553,652.5756554869538
554,652.5197344261607
555,652.4607059830512
556,652.3990864744188
557,652.3354695754144
558,652.2705077429345
559,652.2048917877042
560,652.1393295488891
561,652.0745244977041
562,652.0111550514127
563,651.9498553725539
564,651.8911983400322
565,651.8356811432735
566,651.7837136947619
567,651.735609997885
568,651.6915827622233
569,651.6517416919538
570,651.6160957984152
571,651.5845598700811
572,651.5569650204052
573,651.5330730311591
574,651.5125939205385
575,651.4952057669782
576,651.4805754092152
577,651.4683783752331
578,651.4583163922346
579,651.4501311318443
580,651.4436133664084
581,651.4386072727754
582,651.4350100615068
583,651.4327674240653
584,651.4318655510114
585,651.4323206687493
586,651.4341670939257
587,651.4374447168738
588,651.4421866947857
589,651.4484080402967
590,651.4560957335453
591,651.4652009073985
592,651.4756334922295
593,651.4872594593196
594,651.4999005517653
595,651.5133362241189
596,651.5273074330108
597,651.5415218586827
598,651.5556600446855
599,651.5693818939562
600,651.5823330802754
601,651.5941512240788
602,651.6044719728296
603,651.6129352509258
604,651.619191879761
605,651.6229105894765
606,651.6237852261615
607,651.6215417926511
608,651.6159449575557
609,651.6068038552413
610,651.5939772739982
611,651.5773785296835
612,651.5569803412308
613,651.5328198717701
614,651.5050038771175
615,651.4737137040521
616,651.4392097189165
617,651.4018345998479
618,651.362014787571
619,651.3202592906362
620,651.2771550595867
621,651.2333583683912
622,651.189582060306
623,651.146578974663
624,651.1051221876778
625,651.0659828269742
626,651.0299062745662
627,650.9975877063288
628,650.9696481451751
629,650.9466123861588
630,650.9288901177167
631,650.9167612787198
632,650.9103662726909
633,650.9097012788816
634,650.9146186478256
635,650.9248322050701
636,650.9399271203496
637,650.9593738156967
638,650.9825452468192
639,651.0087368361092
640,651.0371883322192
641,651.067106866507
642,651.0976904599585
643,651.1281512711012
644,651.1577380322323
645,651.1857573099887
646,651.2115932485439
647,651.2347252697256
648,651.2547429952268
649,651.271357584117
650,651.2844087574807
651,651.2938669701242
652,651.2998304666703
653,651.3025173196613
654,651.3022529682883
655,651.2994541708836
656,651.2946105087831
657,651.2882645561887
658,651.2809916447274
659,651.2733799718969
660,651.2660117183266
661,651.259445809109
662,651.2542029099275
663,651.2507531592634
664,651.2495069746429
665,651.2508090057348
666,651.2549349842448
667,651.2620909442888
668,651.2724141215956
669,651.2859747963325
670,651.3027784550507
671,651.3227679395845
672,651.3458256316718
673,651.3717759999485
674,651.4003888952266
675,651.4313838768502
676,651.464435722337
677,651.4991811819981
678,651.5352269595668
679,651.5721587824768
680,651.6095512701158
681,651.6469781414723
682,651.6840221578275
683,651.7202841372812
684,651.7553904887367
685,651.7889989776447
686,651.8208026870739
687,651.8505322144919
688,651.8779560766242
689,651.902879252249
690,651.9251398881103
691,651.9446044056201
692,651.9611615054366
693,651.9747158062556
694,651.9851819727817
695,651.9924800799502
696,651.9965326423292
697,651.9972633713961
698,651.9945974628291
699,651.9884630881087
700,651.9787937278503
701,651.965531021993
702,651.9486279117631
703,651.9280519469573
704,651.903788666818
705,651.8758449518195
706,651.8442522526047
707,651.809069654996
708,651.7703867973818
709,651.7283266606788
710,651.6830481812261
711,651.6347485253262
712,651.5836647451529
713,651.5300744226245
714,651.4742948430563
715,651.416680298464
716,651.3576173182515
717,651.297517887566
718,651.236810950536
719,651.1759326618499
720,651.1153159285461
721,651.0553797679429
722,650.996518920784
723,650.9390940603479
724,650.8834228890732
725,650.8297724287067
726,650.7783528409991
727,650.7293130918241
728,650.6827386576624
729,650.6386513091576
730,650.5970108792324
731,650.5577188882465
732,650.5206239314899
733,650.4855287702886
734,650.4521990553512
735,650.4203735176918
736,650.3897752850485
737,650.3601237733257
738,650.3311464621876
739,650.3025898744141
740,650.2742292524883
741,650.2458766988124
742,650.2173878107035
743,650.1886669979383
744,650.1596716763604
745,650.1304154280764
746,650.1009700964757
747,650.0714666947548
748,650.0420949454295
749,650.0131012290982
750,649.9847847074262
751,649.9574913969532
752,649.931606029827
753,649.9075416939891
754,649.8857275038512
755,649.8665948392422
756,649.8505629186338
757,649.8380246074861
758,649.8293333839033
759,649.824792245747
760,649.8246450374255
761,649.829070288645
762,649.8381773318279
763,649.8520043104262
764,649.8705177223658
765,649.893613267319
766,649.9211178627089
767,649.9527927211424
768,649.9883373941994
769,650.0273947602471
770,650.0695570916585
771,650.1143735189064
772,650.1613593105791
773,650.2100073383067
774,650.2598018831311
775,650.3102345969909
776,650.3608220413821
777,650.4111239196332
778,650.4607610054655
779,650.5094318235234
780,650.5569272500848
781,650.6031423337912
782,650.6480848273577
783,650.6918801724004
784,650.7347729063833
785,650.7771245696698
786,650.8194081547699
787,650.8621990209015
788,650.906162132451
789,650.9520356134299
790,651.0006109672498
791,651.0527107403842
792,651.1091646792331
793,651.1707854075219
794,651.238344407116
795,651.3125488498401
796,651.3940197914166
797,651.4832723629833
798,651.5806986945248
799,651.6865542774784
800,651.8009483561189
801,651.9238387820093
802,652.0550315977944
803,652.1941854432115
804,652.3408206608992
805,652.4943326754759
806,652.654008880938
807,652.8190480597162
808,652.9885813728351
809,653.1616941155282
810,653.3374475400535
811,653.5149000222591
812,653.6931267586427
813,653.8712371439954
814,654.0483890888582
815,654.2237998360887
816,654.3967532770574
817,654.5666042032851
818,654.732780215307
819,654.8947820904522
820,655.0521832915966
821,655.2046290079361
822,655.3518347298439
823,655.4935840186102
824,655.6297249968513
825,655.7601652268805
826,655.8848650075938
827,656.0038295558165
828,656.1171008439751
829,656.2247498746315
830,656.3268698911845
831,656.4235706671419
832,656.5149738122666
833,656.6012090117674
834,656.6824111277303
835,656.758718024224
836,656.8302688764129
837,656.8972027149855
838,656.9596570663824
839,657.0177666820721
840,657.0716624334289
841,657.1214704970162
842,657.1673119919773
843,657.2093032422594
844,657.2475568111848
845,657.2821834067463
846,657.3132946853624
847,657.3410068859164
848,657.3654451260231
849,657.3867481224058
850,657.4050730732496
851,657.4206004415674
852,657.4335383452357
853,657.4441261613061
854,657.4526368453279
855,657.4593774179343
856,657.4646870919657
857,657.4689326127294
858,657.4725005967223
859,657.4757869706692
860,657.4791839306415
861,657.4830650361531
862,657.4877691191828
863,657.4935837476455
864,657.5007291227064
865,657.5093434545814
866,657.5194709670003
867,657.5310536896113
868,657.5439280538858
869,657.5578269560247
870,657.5723874666309
871,657.5871639282186
872,657.6016458746857
873,657.6152799631757
874,657.6274948357714
875,657.6377275339703
876,657.645449850507
877,657.6501928890001
878,657.6515681667015
879,657.6492838635722
880,657.6431552375554
881,657.633108711554
882,657.6191796633826
883,657.6015044781541
884,657.5803078482671
885,657.5558865470307
886,657.5285909817248
887,657.4988058191415
888,657.4669308887034
889,657.4333633697789
890,657.3984819538543
891,657.3626333352294
892,657.3261211811631
893,657.2891977151627
894,657.2520580971825
895,657.2148377637438
896,657.1776127865966
897,657.1404031825691
898,657.1031789893503
899,657.065868820539
900,657.0283705571926
901,656.9905638193566
902,656.9523238131561
903,656.9135359925353
904,656.874110732032
905,656.8339970012801
906,656.7931939987305
907,656.7517598830184
908,656.7098170783208
909,656.6675540428844
910,656.6252237797615
911,656.5831396139387
912,656.5416688023387
913,656.5012244444636
914,656.462256030295
915,656.4252388791818
916,656.3906627176628
917,656.3590196755695
