frame_number,force
0,652.2529540322633
1,652.2152474397557
2,652.1774785426607
3,652.139762888543
4,652.1022155334703
5,652.0649502086864
6,652.0280785065631
7,651.9917090932145
8,651.9559469602624
9,651.9208927343562
10,651.8866420676303
11,651.8532851315015
12,651.8209062291091
13,651.7895835325334
14,651.7593889450051
15,651.730388086126
16,651.7026403957469
17,651.6761993472077
18,651.6511127553881
19,651.627423163166
20,651.6051682918268
21,651.5843815436231
22,651.5650925453564
23,651.5473277202635
24,651.5311108728288
25,651.5164637689948
26,651.5034066934512
27,651.4919589654147
28,651.4821393934167
29,651.4739666486939
30,651.4674595372737
31,651.4626371530609
32,651.4595188979371
33,651.4581243607034
34,651.4584730549999
35,651.4605840253687
36,651.4644753379616
37,651.4701634776216
38,651.477662677208
39,651.4869842079954
40,651.4981356605658
41,651.5111202433442
42,651.5259361217409
43,651.5425758163656
44,651.5610256748706
45,651.581265428398
46,651.6032678402587
47,651.6269984520973
48,651.6524154315781
49,651.6794695247081
50,651.7081041149742
51,651.7382553913599
52,651.769852628271
53,651.8028185809618
54,651.8370699983136
55,651.8725182503874
56,651.9090700620687
57,651.9466283375672
58,651.9850930546912
59,652.0243622035235
60,652.0643327410658
61,652.1049015310235
62,652.1459662369585
63,652.1874261385946
64,652.229182844501
65,652.2711408783592
66,652.3132081208447
67,652.355296096311
68,652.3973201032853
69,652.4391991982088
70,652.4808560494547
71,652.5222166816983
72,652.5632101311746
73,652.6037680337043
74,652.6438241707207
75,652.6833140016728
76,652.7221742108892
77,652.7603422923942
78,652.7977561899049
79,652.8343540043061
80,652.8700737769558
81,652.9048533521781
82,652.938630317079
83,652.971342014757
84,653.0029256283617
85,653.0333183339726
86,653.0624575167753
87,653.0902810396964
88,653.1167275505956
89,653.1417368143567
90,653.1652500582745
91,653.1872103218682
92,653.2075628050721
93,653.2262552105938
94,653.2432380764476
95,653.2584650945229
96,653.2718934127793
97,653.2834839230342
98,653.293201541411
99,653.3010154915546
100,653.3068996002866
101,653.3108326116659
102,653.312798519224
103,653.3127869090395
104,653.3107933010727
105,653.3068194748853
106,653.300873767953
107,653.2929713380013
108,653.2831343832956
109,653.271392315817
110,653.2577818821127
111,653.242347226828
112,653.2251398955868
113,653.2062187761209
114,653.1856499770741
115,653.1635066415523
116,653.139868688945
117,653.1148224770164
118,653.0884603781188
119,653.0608802672759
120,653.0321849236635
121,653.0024813494821
122,652.971880011024
123,652.9404940060172
124,652.9084381598155
125,652.8758280521797
126,652.842778978048
127,652.8094048508177
128,652.7758170640382
129,652.7421233344737
130,652.7084265544394
131,652.6748236836687
132,652.641404710382
133,652.608251707619
134,652.5754380057863
135,652.5430274977331
136,652.5110740889413
137,652.4796213016615
138,652.4487020374398
139,652.4183384977964
140,652.3885422590129
141,652.3593144949524
142,652.330646340874
143,652.3025193893984
144,652.2749063060977
145,652.2477715476972
146,652.2210721626418
147,652.1947586525479
148,652.1687758733318
149,652.1430639561374
150,652.1175592302366
151,652.0921951321562
152,652.0669030869866
153,652.0416133494232
154,652.0162557940911
155,651.9907606471579
156,651.9650591536346
157,651.9390841763309
158,651.9127707231382
159,651.8860564002075
160,651.8588817909003
161,651.831190764323
162,651.8029307217264
163,651.7740527925502
164,651.7445119937531
165,651.714267366992
166,651.6832821086276
167,651.6515237068063
168,651.6189640976728
169,651.5855798500463
170,651.5513523850768
171,651.516268233977
172,651.4803193329556
173,651.4435033509446
174,651.4058240428503
175,651.3672916177657
176,651.3279231071897
177,651.2877427139791
178,651.2467821205555
179,651.2050807361001
180,651.1626858671169
181,651.1196528022729
182,651.076044808168
183,651.0319330361804
184,650.9873963426262
185,650.9425210265853
186,650.8974004914177
187,650.8521348357344
188,650.8068303773697
189,650.761599111696
190,650.7165581049329
191,650.671828823508
192,650.6275364010273
193,650.5838088451071
194,650.5407761879356
195,650.4985695869498
196,650.457320384558
197,650.4171591376728
198,650.378214628632
199,650.3406128692395
200,650.3044761104272
201,650.2699218724943
202,650.2370620139067
203,650.206001857642
204,650.1768393922572
205,650.1496645621538
206,650.1245586593423
207,650.1015938265884
208,650.0808326782214
209,650.0623280412024
210,650.0461228175258
211,650.0322499702465
212,650.0207326375936
213,650.0115843803635
214,650.0048095659586
215,650.0004038879539
216,649.9983550132999
217,649.998643341609
218,650.00124285501
219,650.0061220347394
220,650.0132448217684
221,650.0225716012461
222,650.034060191956
223,650.0476668216512
224,650.0633470682819
225,650.0810567466358
226,650.1007527193628
227,650.1223936109569
228,650.145940404789
229,650.171356907874
230,650.1986100749349
231,650.2276701908128
232,650.2585109169944
233,650.2911092135132
234,650.3254451518216
235,650.3615016368616
236,650.3992640563561
237,650.4387198721727
238,650.4798581639345
239,650.5226691306547
240,650.5671435533974
241,650.6132722216004
242,650.6610453273252
243,650.7104518337569
244,650.7614788256786
245,650.8141108506615
246,650.8683292605276
247,650.9241115625829
248,650.9814307890471
249,651.0402548923763
250,651.100546175203
251,651.1622607663015
252,651.2253481570174
253,651.2897508148171
254,651.3554038916342
255,651.4222350446134
256,651.4901643854876
257,651.5591045714727
258,651.6289610448658
259,651.6996324210642
260,651.771011017261
261,651.8429835085335
262,651.9154316949194
263,651.9882333614166
264,652.0612632120425
265,652.1343938595637
266,652.2074968542847
267,652.2804437370046
268,652.353107101214
269,652.4253616474804
270,652.4970852101836
271,652.5681597351175
272,652.63847218708
273,652.707915369824
274,652.7763886457207
275,652.8437985471705
276,652.910059274693
277,652.9750930779161
278,653.0388305164621
279,653.1012105985719
280,653.1621807963941
281,653.2216969382089
282,653.2797229795618
283,653.3362306579247
284,653.391199039534
285,653.4446139716979
286,653.4964674579727
287,653.5467569769268
288,653.5954847674452
289,653.642657103497
290,653.688283578552
291,653.7323764160789
292,653.7749498199282
293,653.8160193772396
294,653.855601525373
295,653.893713091624
296,653.9303709093467
297,653.9655915076065
298,653.9993908662522
299,654.0317842261616
300,654.0627859445786
301,654.0924093859521
302,654.1206668390696
303,654.1475694526555
304,654.1731271839999
305,654.1973487564122
306,654.220241619399
307,654.2418119018813
308,654.2620643474028
309,654.2810022232817
310,654.2986272015074
311,654.314939215213
312,654.3299362992791
313,654.3436144260628
314,654.3559673465362
315,654.3669864435079
316,654.3766605985296
317,654.3849760693463
318,654.3919163722449
319,654.3974621651274
320,654.4015911326862
321,654.4042778822496
322,654.4054938644748
323,654.4052073352982
324,654.4033833742831
325,654.3999839704109
326,654.3949681807784
327,654.3882923619973
328,654.3799104690288
329,654.369774412162
330,654.3578344611518
331,654.3440396871748
332,654.3283384367018
333,654.3106788331601
334,654.2910093006669
335,654.2692791010545
336,654.2454388737156
337,654.2194411679691
338,654.1912409581535
339,654.1607961312732
340,654.1280679359575
341,654.0930213807992
342,654.0556255711663
343,654.0158539773531
344,653.9736846330962
345,653.9291002699626
346,653.882088398199
347,653.832641348474
348,653.7807562917324
349,653.7264352547128
350,653.6696851459415
351,653.6105178033196
352,653.5489500721255
353,653.4850039209408
354,653.4187066007811
355,653.3500908489456
356,653.2791951349776
357,653.2060639432416
358,653.1307480858043
359,653.0533050399398
360,652.9737993045969
361,652.892302768227
362,652.808895077679
363,652.7236639963131
364,652.6367057386875
365,652.5481252674005
366,652.4580365348717
367,652.3665626509072
368,652.2738359571246
369,652.1799979915095
370,652.085199330053
371,651.989599297309
372,651.8933655429105
373,651.7966734851384
374,651.6997056249847
375,651.602650735848
376,651.5057029366659
377,651.4090606602638
378,651.3129255325006
379,651.2175011799284
380,651.1229919843246
381,651.0296018027556
382,650.9375326721315
383,650.8469835168825
384,650.7581488769457
385,650.6712176712091
386,650.5863720097639
387,650.5037860670469
388,650.4236250268368
389,650.3460441087774
390,650.2711876842632
391,650.1991884867606
392,650.1301669182317
393,650.0642304504759
394,650.0014731191675
395,649.9419751096083
396,649.8858024360728
397,649.8330067196741
398,649.7836250717478
399,649.7376800907427
400,649.6951799806416
401,649.6561187972196
402,649.6204768241892
403,649.5882210754543
404,649.5593059149809
405,649.5336737843552
406,649.5112560298568
407,649.4919738235174
408,649.4757391737417
409,649.4624560201472
410,649.4520214054706
411,649.4443267155165
412,649.4392589764258
413,649.4367021973662
414,649.436538746
415,649.4386507427763
416,649.4429214576047
417,649.4492366895403
418,649.457486107723
419,649.4675645300177
420,649.4793731142697
421,649.4928204357535
422,649.507823423371
423,649.5243081272556
424,649.5422102937085
425,649.5614757314218
426,649.5820604642614
427,649.6039306762609
428,649.6270624610211
429,649.6514413917074
430,649.677061932545
431,649.7039267191941
432,649.7320457413041
433,649.7614354625528
434,649.7921179098457
435,649.8241197548816
436,649.85747140087
437,649.8922060784555
438,649.9283589503023
439,649.9659662236155
440,650.0050642729145
441,650.0456887799312
442,650.0878739015981
443,650.1316514788297
444,650.1770502973407
445,650.2240954075372
446,650.2728075046787
447,650.3232023643073
448,650.3752903226308
449,650.429075788407
450,650.4845567730638
451,650.5417244297291
452,650.6005625989246
453,650.6610473672279
454,650.7231466528858
455,650.7868198369863
456,650.8520174596036
457,650.9186809982913
458,650.9867427427325
459,651.0561257751757
460,651.1267440626829
461,651.1985026653159
462,651.2712980633447
463,651.3450186039819
464,651.4195450628704
465,651.4947513090822
466,651.5705050572516
467,651.6466686876554
468,651.7231001136706
469,651.7996536751044
470,651.8761810356913
471,651.9525320645505
472,652.0285556851737
473,652.1041006813826
474,652.1790164564311
475,652.2531537468152
476,652.3263652947338
477,652.3985064828526
478,652.4694359338567
479,652.5390160766641
480,652.6071136812938
481,652.6736003646101
482,652.7383530688976
483,652.8012545146073
484,652.8621936284703
485,652.92106594913
486,652.977774013855
487,653.0322277299412
488,653.0843447319412
489,653.1340507216455
490,653.1812797837464
491,653.2259746680654
492,653.2680870296704
493,653.3075776203412
494,653.3444164270588
495,653.3785827541757
496,653.4100652456996
497,653.4388618440529
498,653.46497968248
499,653.4884349085071
500,653.5092524340209
501,653.5274656049141
502,653.5431157828651
503,653.556251835283
504,653.5669295358487
505,653.5752108852214
506,653.5811633672553
507,653.5848591593491
508,653.5863743162345
509,653.5857879451229
510,653.5831813876396
511,653.57863742124
512,653.5722394902582
513,653.564070974542
514,653.5542145018761
515,653.5427513090623
516,653.529760656104
517,653.5153192987217
518,653.4995010251376
519,653.4823762619153
520,653.4640117506142
521,653.4444702935335
522,653.4238105642188
523,653.4020869774853
524,653.3793496141197
525,653.3556441956861
526,653.3310121044992
527,653.305490444369
528,653.2791121401084
529,653.251906076755
530,653.2238972816604
531,653.1951071548519
532,653.165553756004
533,653.1352521581301
534,653.1042148761632
535,653.0724523729936
536,653.0399736388242
537,653.006786834016
538,652.9728999814706
539,652.9383216920914
540,652.903061906255
541,652.8671326354348
542,652.8305486905869
543,652.7933283867995
544,652.7554942158824
545,652.717073479032
546,652.6780988705573
547,652.6386090014886
548,652.5986488490719
549,652.5582701147496
550,652.5175314698229
551,652.4764986661651
552,652.4352444910697
553,652.3938485509993
554,652.3523968770392
555,652.3109813536785
556,652.2696989818726
557,652.2286509964503
558,652.1879418642956
559,652.1476781915068
560,652.1079675662961
561,652.0689173627746
562,652.0306335305
563,651.9932193949396
564,651.9567744925881
565,651.9213934601748
566,651.8871649925366
567,651.8541708823634
568,651.8224851574512
569,651.7921733329821
570,651.7632917942724
571,651.7358873205935
572,651.7099967558519
573,651.685646827202
574,651.6628541063333
575,651.6416250997712
576,651.6219564459008
577,651.6038351904151
578,651.5872391108534
579,651.5721370654577
580,651.5584893502443
581,651.546248057603
582,651.5353574370051
583,651.5257542633631
584,651.5173682226055
585,651.5101223268721
586,651.5039333719903
587,651.4987124476255
588,651.4943655074898
589,651.4907940046982
590,651.4878955958137
591,651.4855649152508
592,651.4836944183324
593,651.4821752864336
594,651.480898382807
595,651.4797552444493
596,651.4786390938599
597,651.4774458534306
598,651.4760751436302
599,651.4744312454775
600,651.4724240103711
601,651.4699697061487
602,651.4669917941858
603,651.4634216353045
604,651.4591991218384
605,651.4542732307452
606,651.4486024895825
607,651.4421553451338
608,651.4349104255074
609,651.4268566911662
610,651.417993476622
611,651.4083304294601
612,651.3978873549513
613,651.3866939729211
614,651.374789590651
615,651.3622226930557
616,651.3490504494775
617,651.3353381347137
618,651.3211584602257
619,651.3065908104041
620,651.2917203797197
621,651.2766372111772
622,651.2614351445052
623,651.246210691087
624,651.2310618583895
625,651.2160869486817
626,651.2013833573592
627,651.1870463979701
628,651.173168184412
629,651.1598366030888
630,651.1471344060154
631,651.1351384493106
632,651.1239190923957
633,651.1135397647156
634,651.1040567006526
635,651.095518838785
636,651.0879678771191
637,651.0814384711318
638,651.075958557607
639,651.0715497850518
640,651.0682280304037
641,651.0660039808248
642,651.0648837584353
643,651.0648695660867
644,651.0659603349662
645,651.0681523583092
646,651.0714398961321
647,651.0758157329224
648,651.081271666981
649,651.0877989095768
650,651.0953883744753
651,651.10403084296
652,651.1137169957663
653,651.1244373112529
654,651.1361818382023
655,651.1489398602191
656,651.1626994741147
657,651.1774471054522
658,651.1931669821198
659,651.2098405845139
660,651.2274460902547
661,651.245957831568
662,651.265345783248
663,651.2855750978968
664,651.3066057023902
665,651.3283919647141
666,651.3508824342745
667,651.3740196534536
668,651.3977400347374
669,651.4219737964103
670,651.4466449512101
671,651.4716713469729
672,651.4969647644867
673,651.5224310819802
674,651.5479705157843
675,651.5734779437813
676,651.5988433148116
677,651.6239521445005
678,651.6486860954705
679,651.6729236367546
680,651.6965407734408
681,651.7194118336288
682,651.7414102963129
683,651.7624096420154
684,651.7822842094494
685,651.8009100458772
686,651.818165743076
687,651.8339332519483
688,651.8480986673734
689,651.8605529740156
690,651.8711927455905
691,651.8799207941214
692,651.8866467707186
693,651.8912877241224
694,651.8937686258149
695,651.8940228689521
696,651.8919927430048
697,651.8876298798012
698,651.8808956624782
699,651.8717615871656
700,651.8602095672687
701,651.8462321716645
702,651.8298327907554
703,651.8110257269567
704,651.7898362076472
705,651.7663003192372
706,651.7404648619872
707,651.7123871269941
708,651.682134598604
709,651.6497845863355
710,651.6154237898231
711,651.5791477988873
712,651.541060529248
713,651.5012735928441
714,651.4599056009885
715,651.4170814000414
716,651.3729312432328
717,651.32758990731
718,651.2811957671706
719,651.2338898447001
720,651.1858148493835
721,651.1371142277594
722,651.0879312368708
723,651.0384080546577
724,650.9886849388462
725,650.9388994455927
726,650.8891857190965
727,650.839673862265
728,650.7904893956943
729,650.7417528084474
730,650.6935792010029
731,650.6460780193473
732,650.5993528790552
733,650.5535014781615
734,650.5086155967314
735,650.46478117871
736,650.4220784878099
737,650.3805823248786
738,650.3403622912004
739,650.3014830820769
740,650.2640047980105
741,650.2279832657216
742,650.1934703660405
743,650.1605143686203
744,650.1291602735766
745,650.0994501583739
746,650.0714235261706
747,650.0451176503666
748,650.0205679091588
749,649.9978081033944
750,649.9768707509564
751,649.9577873513048
752,649.9405886150338
753,649.9253046562998
754,649.9119651507958
755,649.9005994672472
756,649.8912367845538
757,649.8839062090782
758,649.8786369067922
759,649.8754582622165
760,649.8744000701603
761,649.875492758826
762,649.8787676365062
763,649.8842571508956
764,649.8919951503129
765,649.9020171381169
766,649.9143605131134
767,649.9290647890592
768,649.9461717864572
769,649.9657257911371
770,649.987773677096
771,650.0123649946054
772,650.0395520267746
773,650.0693898172683
774,650.1019361685184
775,650.1372516041423
776,650.1753992828842
777,650.2164448467147
778,650.260456184708
779,650.3075030964802
780,650.3576568423222
781,650.4109895709216
782,650.4675736204711
783,650.5274806949749
784,650.5907809231174
785,650.6575418103786
786,650.7278270956417
787,650.8016955224588
788,650.8791995349178
789,650.9603839113335
790,651.0452843562023
791,651.1339260791973
792,651.2263223951592
793,651.3224733785682
794,651.4223646011518
795,651.5259659763709
796,651.6332307330524
797,651.7440945416863
798,651.8584748174761
799,651.9762702222685
800,652.0973603836769
801,652.2216058450599
802,652.3488482550079
803,652.4789107998092
804,652.6115988763593
805,652.7467009953182
806,652.8839898960607
807,653.0232238490972
808,653.1641481200894
809,653.3064965707154
810,653.4499933720491
811,653.594354804247
812,653.7392911134705
813,653.8845083952962
814,654.0297104751054
815,654.1746007609378
816,654.3188840521242
817,654.4622682949602
818,654.6044662820843
819,654.745197294036
820,654.8841886797787
821,655.0211773683114
822,655.1559112971709
823,655.2881507383503
824,655.4176695008078
825,655.5442559926115
826,655.6677141338266
827,655.7878641207064
828,655.9045430488594
829,656.0176054047107
830,656.1269234308746
831,656.2323873659453
832,656.3339055569111
833,656.4314044434141
834,656.5248284147038
835,656.6141395401999
836,656.6993171739617
837,656.7803574343797
838,656.8572725635004
839,656.930090173866
840,656.9988523931868
841,657.0636149188737
842,657.1244459958498
843,657.1814253318717
844,657.2346429646337
845,657.2841980944225
846,657.3301978950793
847,657.3727563144535
848,657.4119928737719
849,657.4480314740415
850,657.4809992170424
851,657.5110252482655
852,657.5382396282146
853,657.5627722362483
854,657.5847517086386
855,657.6043044109974
856,657.6215534448845
857,657.6366176894223
858,657.6496108817611
859,657.6606407450814
860,657.6698081776152
861,657.6772065186113
862,657.6829209071553
863,657.6870277495779
864,657.6895943124621
865,657.690678459977
866,657.6903285548751
867,657.6885835413351
868,657.6854732238755
869,657.6810187488212
870,657.675233284691
871,657.6681228886916
872,657.6596875398585
873,657.6499223140371
874,657.63881867015
875,657.6263658111931
876,657.6125520785982
877,657.5973663362511
878,657.5807993015649
879,657.5628447860374
880,657.5435008156329
881,657.5227706106618
882,657.5006634150247
883,657.4771951750323
884,657.4523890765581
885,657.4262759544823
886,657.3988945906691
887,657.3702919173347
888,657.3405231419135
889,657.3096518067559
890,657.2777497920454
891,657.2448972649828
892,657.211182575416
893,657.1767020986325
894,657.1415600277986
895,657.1058681189685
896,657.069745390458
897,657.033317776836
898,656.9967177363806
899,656.9600838097354
900,656.9235601272171
901,656.8872958627173
902,656.8514446319971
903,656.8161638310182
904,656.7816139061908
905,656.747957545333
906,656.7153587782179
907,656.6839819795953
908,656.6539907744534
909,656.6255468535054
910,656.5988087146131
911,656.5739303508582
912,656.5510599071207
913,656.5303383254885
914,656.511897997563
915,656.4958614402545
916,656.4823400114783
917,656.4714326825333
