acceleration,velocity,displacement
0.005033437175709481,0.0,0.0
0.00446603236140107,2.3748673842776377e-06,5.937168460694094e-10
0.0038976899942547555,4.465797973191594e-06,2.303883185436717e-09
0.003330148821798717,6.272757677204962e-06,4.988522098035856e-09
0.002765140195561719,7.79657993154507e-06,8.505856500223364e-09
0.002204375531269951,9.038958863252987e-06,1.2714741198922879e-08
0.0016495340591267675,1.0002436260852168e-05,1.7475089979949167e-08
0.0011022509753157515,1.0690382519462797e-05,2.2648294675027905e-08
0.0005641061826561343,1.1106971808955768e-05,2.8097633257132544e-08
3.6613900319660746e-05,1.1257151829699716e-05,3.3688664166796415e-08
-0.0004787865084978362,1.1146608677655172e-05,3.928960429363514e-08
-0.0009807381538559073,1.0781727512066736e-05,4.477168834106562e-08
-0.001467972451033392,1.0169549860844411e-05,5.00095076842934e-08
-0.001939313074840871,9.317728479375846e-06,5.4881327269348465e-08
-0.0023936780330671707,8.234480702398835e-06,5.926937956479214e-08
-0.0028300798888885145,6.9285412219099134e-06,6.306013504586932e-08
-0.00324762419772089,5.409115200257562e-06,6.614454915141118e-08
-0.0036455062984034614,3.685832576226474e-06,6.841828609553219e-08
-0.004023006677683564,1.7687043322047179e-06,6.978192032264e-08
-0.0043794851548384995,-3.3191862592579797e-07,7.014111674920972e-08
-0.004714374103955666,-2.6053834406243397e-06,6.94067912325722e-08
-0.005027170891472277,-5.040769689481325e-06,6.749525295004578e-08
-0.005317429696414088,-7.626919836452916e-06,6.432833056856222e-08
-0.005584752904709312,-1.0352465486733767e-05,5.983348423776555e-08
-0.005828782308997387,-1.3205849290160442e-05,5.3943905543542e-08
-0.006049190377676831,-1.6175342461828996e-05,4.659860760554464e-08
-0.006245671868882563,-1.9249058023468844e-05,3.7742507484220176e-08
-0.00641793606908792,-2.2414960007961465e-05,2.73265029763626e-08
-0.006565699949502201,-2.5660869012608996e-05,1.5307545721219985e-08
-0.006688682547329191,-2.8974464636816842e-05,1.6487123088635245e-09
-0.006786600871460823,-3.2343285491514345e-05,-1.3680725223219274e-08
-0.006859167598837618,-3.575472760908896e-05,-3.07052284983701e-08
-0.006906090771997084,-3.9196042201797635e-05,-4.944292095109175e-08
-0.006927075620732399,-4.265433379998e-05,-6.990551495153615e-08
-0.006921828505854687,-4.611655983162677e-05,-9.209823835943785e-08
-0.006890062847107614,-4.956953266986735e-05,-1.1601976148481137e-07
-0.006831506786950113,-5.299992507838178e-05,-1.4166212592187365e-07
-0.006745912263211528,-5.639427984092219e-05,-1.6901067715169965e-07
-0.006633065101328314,-5.973902418205715e-05,-1.9804400315744448e-07
-0.00649279569235267,-6.30204893804774e-05,-2.2873388154807813e-07
-0.006324989814012157,-6.622493575706861e-05,-2.610452378324646e-07
-0.006129599186266438,-6.933858300713826e-05,-2.9493611752351635e-07
-0.005906651415826076,-7.234764565766139e-05,-3.3035767468971625e-07
-0.0056562590517652,-7.52383732745592e-05,-3.672541794227714e-07
-0.005378627533166857,-7.79970949207922e-05,-4.0556304647160923e-07
-0.005074061863662569,-8.061026726999956e-05,-4.4521488701930716e-07
-0.0047429718980646655,-8.306452571043137e-05,-4.861335852644148e-07
-0.00438587616206174,-8.534673772546297e-05,-5.282364011233884e-07
-0.004003404144213139,-8.744405780203169e-05,-5.714341000052622e-07
-0.003596297013395411,-8.934398309143382e-05,-6.156311102286286e-07
-0.00316540672890738,-9.103440902700952e-05,-6.607257082582393e-07
-0.0027116935121718035,-9.250368408727931e-05,-7.066102315368116e-07
-0.0022362216344473302,-9.37406628739341e-05,-7.53171318277115e-07
-0.0017401534664945536,-9.473475664916957e-05,-8.002901731578909e-07
-0.0012247417623383503,-9.547598045637779e-05,-8.478428574342777e-07
-0.0006913202159228343,-9.595499595094309e-05,-8.957006015361079e-07
-0.00014129242130187484,-9.616314911024927e-05,-9.43730137801406e-07
0.00042388053434505097,-9.609250208198848e-05,-9.917940505994655e-07
0.001002693527663152,-9.573585856648642e-05,-1.0397511407615842e-06
0.0015936115242101876,-9.508678230351808e-05,-1.0874568009790853e-06
0.0021950839438496144,-9.413960843650314e-05,-1.1347633986640907e-06
0.002805558802537056,-9.288944774990647e-05,-1.181520662710693e-06
0.003423496152376967,-9.133218401117797e-05,-1.2275760706509642e-06
0.004047380365309785,-8.946446488175628e-05,-1.2727752328741978e-06
0.0046757308574989186,-8.72836870760541e-05,-1.3169622708636504e-06
0.005307110911404156,-8.478797663382833e-05,-1.3599801867911212e-06
0.005940134325176647,-8.197616532468313e-05,-1.4016712222807491e-06
0.00657346972665089,-7.884776431172625e-05,-1.4418772046898516e-06
0.007205842537026253,-7.540293624580696e-05,-1.4804398798292349e-06
0.007836034726194159,-7.164246693000185e-05,-1.517201230623187e-06
0.008462882616016817,-6.756773759444911e-05,-1.5520037817542998e-06
0.0090852730336362,-6.318069868203585e-05,-1.584690890823421e-06
0.009702138123825534,-5.848384589267042e-05,-1.6151070269670976e-06
0.010312449149647511,-5.348019907430216e-05,-1.6430980382088407e-06
0.010915209661116166,-4.817328437161124e-05,-1.668511409070319e-06
0.011509448458851336,-4.256711984161936e-05,-1.6911965101236266e-06
0.012094212775328211,-3.6666204533074475e-05,-1.7110048412173e-06
0.012668562027237729,-3.047551083243299e-05,-1.727790270058677e-06
0.013231562398202716,-2.400047972607288e-05,-1.7414092676983035e-06
0.013782282436884287,-1.724701851730113e-05,-1.7517211422591471e-06
0.01431978979619616,-1.0221500459031017e-05,-1.7585882720032302e-06
0.014843149164102525,-2.9307657189563454e-06,-1.761876338547727e-06
0.015351421357979097,4.6178769115640605e-06,-1.7614545607495751e-06
0.015843663523403693,1.241664813190976e-05,-1.7571959294887067e-06
0.016318930399053858,2.0457296612524145e-05,-1.7489774433025982e-06
0.016776276617224303,2.8731098366593686e-05,-1.7366803445578187e-06
0.017214759956813278,3.722885751010308e-05,-1.7201903555886446e-06
0.017633445385712872,4.594090884573462e-05,-1.6993979139996852e-06
0.018031409683409588,5.485712261301524e-05,-1.6741984061349977e-06
0.018407746438248843,6.396691164342984e-05,-1.6444923975708864e-06
0.018761571244780027,7.325924106418706e-05,-1.6101858593939822e-06
0.019092026967714566,8.27226406173107e-05,-1.5711903889736078e-06
0.01939828898146482,9.234521960460555e-05,-1.5274234239181288e-06
0.01967957032190451,0.00010211468443044788,-1.4788084479093654e-06
0.019935126690310317,0.00011201835868350158,-1.425275187130878e-06
0.02016426124713128,0.00012204320566786198,-1.3667597960430372e-06
0.020366329159398587,0.00013217585326949445,-1.303205031308698e-06
0.020540741931318655,0.00014240262104217377,-1.234560412730781e-06
0.02068697162442891,0.00015270954943111067,-1.1607823701124599e-06
0.02080455511939314,0.00016308243111706617,-1.0818343749754158e-06
0.02089309856499199,0.00017350684453816244,-9.976870560616086e-07
0.020952282104074925,0.00018396818970542917,-9.083182975007106e-07
0.020981864872995696,0.0001944517264496968,-8.137133184619292e-07
0.02098169016416759,0.00020494261520898763,-7.13864733047258e-07
0.020951690562428852,0.00021542596039063675,-6.08772589147352e-07
0.0208918928464318,0.00022588685624285192,-4.984443849889798e-07
0.020802422477632282,0.00023631043507386793,-3.8289506215979986e-07
0.020683507547877216,0.0002466819175802453,-2.6214697399627156e-07
0.020535482094318287,0.00025698666499079416,-1.362298283535117e-07
0.02035878870533205,0.00026721023269070675,-5.180603933136455e-09
0.0201539803390736,0.00027733842495180814,1.3095656047749226e-07
0.01992172127949533,0.00028735735035645036,2.7213050430455685e-07
0.019662787179692113,0.0002972534774712472,4.1828321126148125e-07
0.019378064176018107,0.00030701369031017477,5.693500032068368e-07
0.019068547064354614,0.00031662534312026794,7.252597615644474e-07
0.01873533649441577,0.0003260763140099605,8.859351758470045e-07
0.018379635084719636,0.0003353550569047444,1.0512930185756807e-06
0.01800274233776761,0.0003444506512603662,1.2212444456169585e-06
0.01760604826293886,0.00035335284891054285,1.3956953206596858e-06
0.017191025673235518,0.0003620521173945864,1.5745465622359682e-06
0.016759221178819783,0.00037053967910760026,1.7576945113615147e-06
0.01631224493748253,0.0003788075456366758,1.945031317547584e-06
0.01585175923430372,0.0003868485466796224,2.1364453406266584e-06
0.01537946595192381,0.0003946563529761793,2.3318215655406087e-06
0.014897092970121643,0.00040222549270669064,2.5310420269613263e-06
0.014406379520903958,0.000409551360829447,2.733986240345361e-06
0.013909060550304133,0.00041663022084724904,2.9405316357645346e-06
0.013406850215069597,0.00042345919853859247,3.150553990610995e-06
0.012901424753545825,0.0004300362672807463,3.3639278570658295e-06
0.01239440507620474,0.00043636022473818396,3.580526980070562e-06
0.011887339495715374,0.000442430660881164,3.800224701475399e-06
0.011381687051889335,0.00044824791751806514,4.022894346075206e-06
0.01087880187794288,0.0004538130397505232,4.2484095853923535e-06
0.010379919000296977,0.00045912771997008316,4.476644775322505e-06
0.00988614188714622,0.00046419423519194396,4.707475264113012e-06
0.009398431991328239,0.0004690153786615626,4.940777667576389e-06
0.008917600476830568,0.0004735943867786023,5.17643010893643e-06
0.008444302261873739,0.0004779348624632784,5.4143124212469e-06
0.007979032445443733,0.00048204069614010773,5.654306310897746e-06
0.007522125113665805,0.0004859159855298851,5.896295481315244e-06
0.0070737544652009175,0.0004895649554246018,6.140165716553866e-06
0.006633938164218464,0.0004929918785819567,6.385804925055506e-06
0.0062025428150329215,0.0004962009988267695,6.633103144407688e-06
0.005779291425351043,0.0004991964573868655,6.881952508461096e-06
0.005363772669591519,0.0005019822234106011,7.132247178660463e-06
0.004955451696318491,0.0005045620295020786,7.383883241888633e-06
0.0045536821750757185,0.0005069393129699271,7.636758577506634e-06
0.004157719259423536,0.0005091171633285519,7.890772696581253e-06
0.003766733147026693,0.0005110982764301644,8.145826556520933e-06
0.0033798229376722938,0.0005128849154513392,8.40182235449131e-06
0.0029960305209794733,0.0005144788788160021,8.658663303058146e-06
0.002614354256850296,0.0005158814750104596,8.91625339151476e-06
0.002233762237297325,0.0005170935041339965,9.174497136300874e-06
0.0018532049423586351,0.0005181152459289106,9.433299323816602e-06
0.0014716271328124436,0.0005189464539477034,9.692564748785756e-06
0.0010879788594121114,0.0005195863554457595,9.952197951134121e-06
0.0007012255043564179,0.0005200336565367016,1.0212102954129737e-05
0.00031035679431146786,0.0005202865521113686,1.0472183006291755e-05
-8.560526509619184e-05,0.0005203427399936724,1.0732340329318016e-05
-0.00048759956990642215,0.0005201994387849218,1.0992475874012665e-05
-0.0008965202154062308,0.0005198534088385935,1.1252489085918544e-05
-0.0013132118533458047,0.0005193009758214056,1.1512277682083544e-05
-0.0017384659841345098,0.0005185380563620355,1.1771737440129404e-05
-0.002173018006795388,0.000517560185364303,1.203076200056099e-05
-0.002617544821371349,0.0005163625446572614,1.228924268306638e-05
-0.0030726627646790643,0.0005149399927607488,1.2547068317420882e-05
-0.0035389256539853694,0.0005132870956560826,1.280412508952509e-05
-0.0040168227242255595,0.0005113981585615299,1.3060296403079493e-05
-0.004506776277323408,0.0005092672588111426,1.3315462757422661e-05
-0.00500913890320844,0.0005068882800160097,1.3569501642129449e-05
-0.005524190174449884,0.0005042549477465951,1.38222874490701e-05
-0.006052132767933918,0.0005013608670109991,1.4073691402759498e-05
-0.00659308802673984,0.0004981995618123307,1.4323581509965331e-05
-0.007147091028528894,0.0004947645170485135,1.4571822529680543e-05
-0.007714085269871987,0.0004910492229739132,1.4818275964686149e-05
-0.008293917125417367,0.0004870472223750909,1.50628000760234e-05
-0.00888633030696936,0.0004827521605169942,1.530524992174642e-05
-0.009490960612501143,0.00047815783778712656,1.554547742132245e-05
-0.010107331288285773,0.0004732582648119298,1.5783331446972215e-05
-0.010734849309134044,0.00046804771966257484,1.6018657943090843e-05
-0.011372802811777126,0.00046252080663234703,1.6251300074664573e-05
-0.012020359818207548,0.0004566725159748509,1.6481098405316373e-05
-0.012676568299320713,0.00045049828394546883,1.6707891105296453e-05
-0.013340357576709965,0.0004439940524764612,1.6931514189401934e-05
-0.014010541028870685,0.00043715632782506604,1.7151801784477314e-05
-0.014685820036382493,0.00042998223755875276,1.736858642582327e-05
-0.015364789075365691,0.0004224695852808157,1.7581699381533162e-05
-0.01604594187251299,0.000414616902543846,1.779097100348933e-05
-0.016727678568305798,0.0004064234974336413,1.79962311034837e-05
-0.01740831386822827,0.0003978894993245078,1.8197309352673237e-05
-0.01808608617219529,0.0003890158993144019,1.8394035702332963e-05
-0.018759167666257157,0.0003798045858547888,1.858624082362526e-05
-0.01942567535315049,0.0003702583750999369,1.8773756563863944e-05
-0.020083682987810644,0.0003603810355146966,1.8956416416517604e-05
-0.020731233859627107,0.00035017730630283717,1.9134056001971988e-05
-0.02136635432536813,0.00033965290925658834,1.9306513555861842e-05
-0.021987067958367853,0.0003288145536856543,1.9473630421597403e-05
-0.02259141015202133,0.00031766993415805703,1.9635251543558333e-05
-0.023177443003335678,0.0003062277208692178,1.9791225957315153e-05
-0.02374327030001917,0.0002944975425433791,1.9941407273168303e-05
-0.024287052422984057,0.0002824899618626283,2.0085654149269805e-05
-0.024807020939204144,0.00027021644352208125,2.0223830750615983e-05
-0.02530149261431757,0.00025768931513370084,2.035580719027993e-05
-0.025768882559302264,0.00024492172134029587,2.048145994939843e-05
-0.02620771625272323,0.0002319275716372895,2.0600672272642824e-05
-0.02661664022074104,0.00021872148251892343,2.0713334536181878e-05
-0.026994431189785485,0.0002053187146662918,2.081934458547818e-05
-0.027340003563148297,0.00019173510597805834,2.091860804063927e-05
-0.027652415127030917,0.00017798700130551353,2.1011038567460165e-05
-0.027930870946912205,0.00016409117978702777,2.10965581127333e-05
-0.028174725438117477,0.00015006478069077035,2.117509710285275e-05
-0.02838348257608476,0.00013592522868721978,2.1246594605197246e-05
-0.028556794179193455,0.00012169015949840023,2.131099845224365e-05
-0.028694456186011782,0.00010737734690709891,2.1368265328845025e-05
-0.028796402876331874,9.3004632141513e-05,2.141836082360718e-05
-0.028862699052779942,7.858985665923503e-05,2.1461259445807367e-05
-0.028893530301780494,6.415079932059493e-05,2.1496944609802323e-05
-0.028889191567894604,4.9705118853176154e-05,2.1525408589345766e-05
-0.028850074365291172,3.527030236987971e-05,2.154665244465153e-05
-0.028776652984990575,2.0863620532309273e-05,2.156068592537708e-05
-0.028669470039443434,6.502089776200769e-06,2.1567527352954205e-05
-0.028529121648731733,-7.797558145843022e-06,2.1567203485861792e-05
-0.02835624255134136,-2.2018899195861296e-05,2.1559749371526368e-05
-0.028151491427409518,-3.6145832690549014e-05,2.1545208188554766e-05
-0.02791553673524251,-5.016258973121202e-05,2.1523631082949327e-05
-0.027649043369240466,-6.405373475733277e-05,2.149507700182719e-05
-0.027352660455681244,-7.78041607135632e-05,2.1459612527959464e-05
-0.027027010608803536,-9.13990784796844e-05,2.1417311718161153e-05
-0.026672680946712015,-0.00010482400136856329,2.136825594819909e-05
-0.02629021609761739,-0.00011806472562964564,2.1312533766449536e-05
-0.025880113323352404,-0.0001311073079848881,2.1250240758045903e-05
-0.025442819774482543,-0.00014393804125934683,2.1181479420734844e-05
-0.024978731790168966,-0.0001565434291505097,2.110635905313238e-05
-0.02448819607339045,-0.00016891016111639955,2.1024995655565655e-05
-0.023971512506823514,-0.00018102508826145305,2.093751184322119e-05
-0.023428938335089727,-0.00019287520097193136,2.0844036770912845e-05
-0.022860693442191094,-0.00020444760891625156,2.07447060684408e-05
-0.022266966500615742,-0.00021572952390195327,2.0639661785236247e-05
-0.021647921839039685,-0.00022670824598686713,2.0529052342764044e-05
-0.021003706941677636,-0.00023737115318204648,2.0413032492971817e-05
-0.02033446053409858,-0.00024770569505099053,2.0291763280913557e-05
-0.01964032121586981,-0.00025769939048848265,2.0165412009528688e-05
-0.018921436575811412,-0.000267339829936403,2.0034152204422468e-05
-0.018177972694745286,-0.00027661468225404217,1.9898163576374856e-05
-0.01741012391949005,-0.000285511706407601,1.9757631979209444e-05
-0.01661812277656073,-0.00029401876808161367,1.961274936058714e-05
-0.015802249881762622,-0.0003021238612461945,1.9463713703255186e-05
-0.014962843702778934,-0.00030981513464232985,1.9310728954283054e-05
-0.014100310047912238,-0.00031708092308000265,1.9154004939852472e-05
-0.013215131165211703,-0.00032390978338328364,1.899375726323665e-05
-0.012307874320676027,-0.00033029053475475557,1.883020718370214e-05
-0.011379199683867079,-0.00033621230325589133,1.866358147419948e-05
-0.010429867303672739,-0.0003416645700027763,1.8494112255884814e-05
-0.009460742923568773,-0.00034663722255958665,1.8322036807744222e-05
-0.008472802370399574,-0.00035112060888307873,1.8147597349883555e-05
-0.007467134251794146,-0.00035510559303862714,1.7971040799403127e-05
-0.006444940717946577,-0.0003585836117810623,1.7792618498198205e-05
-0.005407536093825512,-0.00036154673098400534,1.7612585912506938e-05
-0.004356343273742985,-0.00036398770082589745,1.7431202304554463e-05
-0.003292887882472256,-0.00036590000861495126,1.724873037719425e-05
-0.002218790319495234,-0.0003672779281654431,1.7065435892999152e-05
-0.0011357558862598073,-0.00036811656471688186,1.688158726977857e-05
-4.5563243290841273e-05,-0.00036841189449926954,1.669745515497453e-05
0.001049948530990272,-0.00036816079817734467,1.651331198180538e-05
0.0021488939958954193,-0.0003673610875456232,1.632943151037464e-05
0.0032493562418166996,-0.0003660115249861952,1.6146088357241683e-05
0.0043494023713263235,-0.0003641118353329095,1.596355751716191e-05
0.005447099343960903,-0.00036166270990408767,1.578211388085266e-05
0.006540529960050163,-0.0003586658025780849,1.5602031752732118e-05
0.007627808726988229,-0.0003551237179063253,1.5423584372611015e-05
0.00870709730945281,-0.00035103999139721507,1.524704344528513e-05
0.009776619240239336,-0.00034641906225979204,1.5072678681870878e-05
0.010834673577585965,-0.0003412662390553357,1.4900757356542096e-05
0.011879647243712441,-0.0003355876588500111,1.473154388206576e-05
0.012910025854224735,-0.00032939024057552683,1.4565299407209375e-05
0.013924402918578426,-0.00032268163338232603,1.4402281438719911e-05
0.01492148733526726,-0.0003154701608188646,1.4242743490169614e-05
0.01590010912491953,-0.00030776476170381794,1.4086934759538944e-05
0.016859223356080387,-0.00029957492858356794,1.3935099836967098e-05
0.01779791223121183,-0.00029091064468674487,1.378747844364952e-05
0.018715385316762558,-0.0002817823202997513,1.3644305202402896e-05
0.019610977921369094,-0.0002722007294902184,1.3505809439955404e-05
0.020484147651893506,-0.0002621769480969027,1.3372215020558624e-05
0.021334469216802068,-0.00025172229387972883,1.3243740210064467e-05
0.022161627607035016,-0.00024084826967376956,1.3120597569176092e-05
0.022965409854386356,-0.0002295665103084142,1.3002993874180546e-05
0.02374569562921506,-0.00021788873393751386,1.2891130063119064e-05
0.024502446989285036,-0.00020582669828288883,1.2785201205063963e-05
0.02523569762510305,-0.0001933921621292918,1.2685396489960917e-05
0.02594554194668915,-0.00018059685223634377,1.2591899236369509e-05
0.026632124315565615,-0.0001674524356707801,1.2504886914392727e-05
0.027295628669191392,-0.00015397049742459085,1.2424531181118884e-05
0.027936268745610556,-0.00014016252307089036,1.2350997925995015e-05
0.02855427909844904,-0.00012603988610987546,1.2284447323699823e-05
0.029149907075359846,-0.00011161383956642324,1.2225033892280749e-05
0.02972340589170768,-9.689551132465635e-05,1.217290655455798e-05
0.030275028854022973,-8.189590263822369e-05,1.212820870106726e-05
0.030805024689933208,-6.662588925223464e-05,1.2091078253094646e-05
