frame_number,force
0,652.2367611316167
1,652.2032109828161
2,652.169530864538
3,652.1357994137134
4,652.1020969355523
5,652.0685050203425
6,652.0351061584662
7,652.0019833561479
8,651.9692197555145
9,651.9368982638158
10,651.9051011976035
11,651.8739099474868
12,651.8434046675844
13,651.8136639918524
14,651.7847647782079
15,651.7567818808782
16,651.7297879508802
17,651.703853263466
18,651.679045570238
19,651.6554299732122
20,651.6330688184757
21,651.6120216075985
22,651.5923449250598
23,651.574092379578
24,651.5573145566357
25,651.5420589790041
26,651.5283700718659
27,651.5162891290397
28,651.5058542765859
29,651.4971004298436
30,651.4900592400152
31,651.4847590268419
32,651.4812246946545
33,651.479477630263
34,651.4795355828484
35,651.481412527877
36,651.4851185185523
37,651.4906595293859
38,651.4980372972962
39,651.507249166237
40,651.5182879414464
41,651.531141758906
42,651.5457939746955
43,651.5622230779602
44,651.5804026303609
45,651.6003012341032
46,651.6218825299109
47,651.6451052257873
48,651.6699231571256
49,651.6962853785076
50,651.7241362873108
51,651.7534157791902
52,651.7840594356807
53,651.8159987442568
54,651.8491613508012
55,651.8834713434848
56,651.9188495657705
57,651.9552139548603
58,651.9924799006697
59,652.0305606195044
60,652.0693675359557
61,652.1088106660227
62,652.1487989942591
63,652.1892408380616
64,652.2300441929234
65,652.2711170533054
66,652.3123677047776
67,652.3537049845788
68,652.3950385097874
69,652.4362788744749
70,652.4773378188015
71,652.518128373649
72,652.5585649844858
73,652.5985636184458
74,652.6380418593064
75,652.6769189957114
76,652.7151161079343
77,652.7525561575229
78,652.7891640828688
79,652.8248669027232
80,652.8595938288717
81,652.8932763881423
82,652.9258485528513
83,652.9572468783668
84,652.9874106467814
85,653.0162820158041
86,653.0438061712745
87,653.0699314806118
88,653.0946096438953
89,653.1177958393467
90,653.1394488604438
91,653.1595312424934
92,653.1780093771126
93,653.1948536134877
94,653.2100383453601
95,653.2235420827027
96,653.2353475074498
97,653.2454415136048
98,653.2538152331633
99,653.2604640499744
100,653.2653876036235
101,653.2685897847031
102,653.2700787216011
103,653.2698667575105
104,653.2679704153311
105,653.2644103479223
106,653.2592112716658
107,653.252401882027
108,653.244014750394
109,653.2340862017352
110,653.2226561726567
111,653.2097680495344
112,653.195468486807
113,653.1798072060307
114,653.1628367764591
115,653.1446123774665
116,653.1251915424349
117,653.1046338834448
118,653.0830007965288
119,653.0603551480889
120,653.0367609438842
121,653.0122829825326
122,652.9869864956382
123,652.9609367765124
124,652.934198799131
125,652.906836828784
126,652.8789140261981
127,652.8504920479518
128,652.8216306475044
129,652.7923872825933
130,652.7628167357271
131,652.7329707549426
132,652.7028977217961
133,652.6726423527431
134,652.6422454389044
135,652.6117436281738
136,652.5811692527494
137,652.5505502042975
138,652.5199098579429
139,652.4892670452058
140,652.4586360751051
141,652.4280268021287
142,652.397444739459
143,652.3668912153712
144,652.3363635698439
145,652.3058553873933
146,652.2753567613639
147,652.2448545845638
148,652.214332861097
149,652.1837730344424
150,652.1531543271748
151,652.122454088089
152,652.091648142776
153,652.0607111439748
154,652.0296169183888
155,651.998338807125
156,651.9668499973794
157,651.935123843289
158,651.9031341740017
159,651.8708555871879
160,651.8382637267018
161,651.805335543923
162,651.7720495432568
163,651.7383860130273
164,651.7043272434108
165,651.6698577332907
166,651.6349643880432
167,651.5996367101661
168,651.5638669842589
169,651.5276504573601
170,651.490985515131
171,651.453873853732
172,651.4163206464921
173,651.378334703816
174,651.3399286242643
175,651.3011189341426
176,651.2619262121136
177,651.2223751945372
178,651.1824948568773
179,651.1423184668655
180,651.1018836061762
181,651.0612321588217
182,651.0204102657735
183,650.9794682461313
184,650.9384604856887
185,650.8974452942683
186,650.8564847336304
187,650.8156444177777
188,650.7749932870901
189,650.7346033573257
190,650.6945494444392
191,650.6549088663082
192,650.6157611226073
193,650.577187554252
194,650.5392709842082
195,650.502095342008
196,650.4657452748642
197,650.4303057486682
198,650.3958616423278
199,650.3624973389266
200,650.3302963173387
201,650.299340748424
202,650.2697111005368
203,650.241485759258
204,650.2147406658465
205,650.1895489782996
206,650.1659807584105
207,650.1441026876566
208,650.1239778139445
209,650.1056653304114
210,650.089220387106
211,650.0746939365641
212,650.062132614685
213,650.0515786584051
214,650.0430698612238
215,650.0366395666355
216,650.0323166980512
217,650.0301258221346
218,650.030087241177
219,650.032217109601
220,650.0365275698691
221,650.0430269035445
222,650.0517196935085
223,650.0626069932291
224,650.0756864987641
225,650.090952719051
226,650.1083971398936
227,650.1280083769514
228,650.1497723133364
229,650.1736722183659
230,650.1996888454446
231,650.2278005086033
232,650.2579831386201
233,650.2902103207904
234,650.3244533173155
235,650.3606810778317
236,650.3988602415538
237,650.4389551338509
238,650.4809277590934
239,650.5247377906961
240,650.5703425586997
241,650.6176970351593
242,650.6667538179436
243,650.7174631139785
244,650.7697727232535
245,650.8236280251161
246,650.8789719685428
247,650.9357450680492
248,650.9938854066713
249,651.0533286472787
250,651.1140080536832
251,651.1758545235489
252,651.2387966357246
253,651.3027607150631
254,651.3676709179865
255,651.4334493420226
256,651.5000161622306
257,651.5672897967187
258,651.6351871022474
259,651.7036235993388
260,651.7725137247386
261,651.8417711079118
262,651.9113088675902
263,651.9810399240404
264,652.050877322551
265,652.1207345637378
266,652.1905259366465
267,652.260166850998
268,652.3295741649317
269,652.3986665041797
270,652.4673645680426
271,652.5355914172302
272,652.6032727387851
273,652.670337084029
274,652.7367160765505
275,652.8023445882795
276,652.86716088235
277,652.9311067217733
278,652.9941274431662
279,653.0561719950135
280,653.1171929402318
281,653.1771464231464
282,653.235992101413
283,653.2936930440336
284,653.3502155975215
285,653.4055292233028
286,653.459606310366
287,653.5124219679208
288,653.563953803357
289,653.614181690841
290,653.6630875353717
291,653.7106550363824
292,653.7568694544713
293,653.801717384643
294,653.8451865392408
295,653.8872655432073
296,653.9279437432679
297,653.9672110312933
298,654.0050576810191
299,654.0414741968642
300,654.0764511736297
301,654.1099791659576
302,654.1420485665011
303,654.1726494920321
304,654.2017716771926
305,654.2294043758267
306,654.2555362694031
307,654.2801553812553
308,654.3032489950377
309,654.324803576379
310,654.3448046978828
311,654.3632369688269
312,654.3800839718449
313,654.3953282093128
314,654.4089510619541
315,654.4209327613498
316,654.4312523769091
317,654.4398878167923
318,654.4468158416776
319,654.4520120904931
320,654.4554511183146
321,654.4571064480523
322,654.4569506386405
323,654.4549553728333
324,654.4510915673651
325,654.445329507303
326,654.4376390051798
327,654.4279895842412
328,654.4163506840132
329,654.4026918854921
330,654.3869831528442
331,654.3691950887853
332,654.3492992014802
333,654.3272681811216
334,654.3030761839748
335,654.2766991210005
336,654.2481149477817
337,654.2173039524951
338,654.1842490387556
339,654.1489360000709
340,654.1113537824166
341,654.0714947313047
342,654.0293548199372
343,653.9849338558452
344,653.9382356647232
345,653.8892682515527
346,653.8380439402068
347,653.7845794935769
348,653.7288962168938
349,653.6710200470446
350,653.6109816301766
351,653.5488163891785
352,653.4845645822245
353,653.4182713533752
354,653.3499867758451
355,653.2797658878528
356,653.2076687202007
357,653.1337603142249
358,653.058110728686
359,652.9807950344031
360,652.9018932955431
361,652.8214905361738
362,652.7396766902333
363,652.6565465328516
364,652.5721995908921
365,652.486740030317
366,652.4002765174953
367,652.312922051262
368,652.2247937626831
369,652.1360126800217
370,652.0467034572584
371,651.956994065611
372,651.8670154486581
373,651.7769011425822
374,651.6867868635894
375,651.5968100649676
376,651.5071094668385
377,651.4178245625159
378,651.3290951061958
379,651.2410605871589
380,651.1538596957939
381,651.0676297868058
382,650.9825063450089
383,650.8986224590014
384,650.8161083076743
385,650.7350906640245
386,650.6556924203038
387,650.5780321381948
388,650.5022236273873
389,650.428375555569
390,650.3565910923584
391,650.2869675890245
392,650.2195962950154
393,650.1545621116011
394,650.0919433825973
395,650.0318117222707
396,649.9742318809915
397,649.919261649707
398,649.8669518046131
399,649.8173460934752
400,649.7704812649312
401,649.7263871416283
402,649.6850867370327
403,649.6465964144234
404,649.6109260854855
405,649.578079445521
406,649.5480542425631
407,649.5208425781553
408,649.4964312377056
409,649.4748020480744
410,649.4559322596236
411,649.4397949495199
412,649.4263594427028
413,649.4155917466663
414,649.4074549960353
415,649.4019099026599
416,649.3989152064418
417,649.3984281215298
418,649.4004047720659
419,649.4048006113372
420,649.4115708179374
421,649.4206706623321
422,649.4320558370914
423,649.4456827441671
424,649.4615087333681
425,649.4794922879702
426,649.4995931558689
427,649.5217724269604
428,649.5459925589234
429,649.5722173545213
430,649.6004118946503
431,649.6305424328291
432,649.6625762581765
433,649.6964815344587
434,649.7322271221395
435,649.7697823887034
436,649.8091170104476
437,649.8502007672091
438,649.893003330619
439,649.9374940465166
440,649.983641712862
441,650.0314143554957
442,650.0807790050018
443,650.1317014783319
444,650.1841461685784
445,650.2380758454208
446,650.2934514675671
447,650.3502320072147
448,650.4083742854341
449,650.4678328167099
450,650.5285596608765
451,650.5905042814727
452,650.6536134109697
453,650.7178309250554
454,650.7830977296994
455,650.8493516656173
456,650.9165274348439
457,650.9845565536202
458,651.053367334965
459,651.122884903342
460,651.1930312429877
461,651.2637252809715
462,651.334883005749
463,651.4064176213329
464,651.4782397360086
465,651.5502575830783
466,651.622377269953
467,651.6945030512356
468,651.7665376210678
469,651.8383824197329
470,651.9099379493981
471,651.9811040941156
472,652.051780439932
473,652.1218665921248
474,652.1912624879403
475,652.2598687042931
476,652.3275867603478
477,652.3943194148209
478,652.4599709575765
479,652.5244474949511
480,652.5876572282699
481,652.6495107250666
482,652.7099211824791
483,652.7688046821837
484,652.8260804362311
485,652.8816710233789
486,652.9355026158522
487,652.9875051965207
488,653.0376127660144
489,653.0857635384795
490,653.1319001239029
491,653.1759696945688
492,653.2179241333713
493,653.2577201622233
494,653.2953194493344
495,653.3306886944077
496,653.3637996908316
497,653.3946293639979
498,653.42315978512
499,653.44937816004
500,653.4732767921992
501,653.4948530184591
502,653.514109116448
503,653.5310521828782
504,653.5456939836766
505,653.5580507783027
506,653.5681431218754
507,653.5759956494564
508,653.5816368470038
509,653.5850988132512
510,653.5864170162632
511,653.5856300478612
512,653.5827793785882
513,653.5779091154269
514,653.571065764111
515,653.5622979975847
516,653.5516564320609
517,653.539193412273
518,653.5249628076361
519,653.5090198207705
520,653.491420809172
521,653.4722231200558
522,653.4514849378182
523,653.4292651433329
524,653.4056231843421
525,653.3806189562195
526,653.3543126922674
527,653.3267648627824
528,653.2980360825861
529,653.2681870272997
530,653.2372783590671
531,653.2053706628707
532,653.1725243951698
533,653.1387998469374
534,653.104257122748
535,653.0689561363833
536,653.0329566220153
537,652.9963181588287
538,652.9591002060907
539,652.9213621451503
540,652.8831633247366
541,652.8445631061945
542,652.8056209058255
543,652.7663962321365
544,652.7269487162748
545,652.6873381340638
546,652.6476244178407
547,652.6078676558926
548,652.5681280767335
549,652.528466014801
550,652.4889418534817
551,652.4496159410392
552,652.4105484754173
553,652.3717993551237
554,652.3334279951149
555,652.2954931084847
556,652.2580524567409
557,652.2211625733887
558,652.1848784668961
559,652.1492533095059
560,652.1143381180793
561,652.0801814328245
562,652.0468289997135
563,652.0143234624478
564,651.9827040695246
565,651.9520064010431
566,651.9222621188522
567,651.8934987433244
568,651.8657394605084
569,651.8390029637661
570,651.8133033335092
571,651.7886499575907
572,651.7650474938339
573,651.7424958751317
574,651.7209903561535
575,651.7005215988692
576,651.6810757922167
577,651.6626347999048
578,651.6451763300413
579,651.6286741211454
580,651.613098140828
581,651.598414795304
582,651.5845871493349
583,651.5715751571543
584,651.5593359056908
585,651.5478238719189
586,651.5369911961525
587,651.526787972556
588,651.5171625574601
589,651.5080618955326
590,651.4994318634888
591,651.4912176305908
592,651.4833640344501
593,651.4758159696075
594,651.4685187853364
595,651.4614186884343
596,651.4544631464511
597,651.4476012865805
598,651.44078428513
599,651.4339657423711
600,651.427102038144
601,651.4201526648465
602,651.4130805357263
603,651.4058522670733
604,651.3984384328838
605,651.3908137901296
606,651.3829574722002
607,651.3748531477445
608,651.3664891424434
609,651.3578585223045
610,651.3489591384733
611,651.3397936346837
612,651.3303694188993
613,651.3206986004683
614,651.3107978936075
615,651.3006884876022
616,651.2903958838086
617,651.2799496992818
618,651.269383436595
619,651.258734219281
620,651.2480424926107
621,651.2373516904623
622,651.2267078707813
623,651.2161593239913
624,651.2057561599804
625,651.1955498797682
626,651.1855929381192
627,651.1759383037828
628,651.166639024783
629,651.157747806691
630,651.1493166114659
631,651.1413962830945
632,651.1340362043678
633,651.1272839873603
634,651.1211851988917
635,651.1157831212983
636,651.1111185478827
637,651.1072296113922
638,651.1041516430441
639,651.1019170591311
640,651.1005552719795
641,651.1000926218082
642,651.1005523257954
643,651.10195444067
644,651.1043158356588
645,651.1076501732997
646,651.1119678957119
647,651.117276213238
648,651.1235790916428
649,651.1308772338829
650,651.1391680529047
651,651.1484456328188
652,651.1587006770541
653,651.1699204436802
654,651.1820886699214
655,651.1951854896043
656,651.2091873483538
657,651.2240669214468
658,651.2397930386867
659,651.2563306201148
660,651.2736406261729
661,651.2916800259051
662,651.3104017866748
663,651.329754888552
664,651.3496843658833
665,651.3701313774903
666,651.3910333056141
667,651.4123238825454
668,651.433933343102
669,651.4557886007739
670,651.4778134455901
671,651.4999287626765
672,651.5220527717111
673,651.5441012883147
674,651.5659880083922
675,651.58762481579
676,651.6089221128777
677,651.6297891730676
678,651.650134513738
679,651.669866287348
680,651.6888926877269
681,651.7071223676887
682,651.7244648633954
683,651.7408310205273
684,651.7561334176277
685,651.7702867829282
686,651.783208401869
687,651.7948185127967
688,651.8050406880571
689,651.8138021975626
690,651.8210343523359
691,651.8266728264322
692,651.8306579567438
693,651.8329350212473
694,651.8334544968558
695,651.8321722977959
696,651.8290499943863
697,651.8240550108886
698,651.8171608003132
699,651.8083469938
700,651.7975995222945
701,651.7849107086342
702,651.7702793288003
703,651.7537106417291
704,651.7352163874771
705,651.7148147537447
706,651.6925303110606
707,651.6683939173796
708,651.6424425933112
709,651.6147193694452
710,651.5852731071844
711,651.554158294271
712,651.5214348159141
713,651.4871677021542
714,651.4514268519908
715,651.4142867351368
716,651.3758260731187
717,651.3361275025137
718,651.2952772240627
719,651.2533646420422
720,651.2104819985551
721,651.1667240072834
722,651.1221874908273
723,651.0769710252639
724,651.0311745952341
725,650.9848992627616
726,650.9382468529496
727,650.8913196594092
728,650.8442201716219
729,650.7970508255867
730,650.7499137783782
731,650.7029107068797
732,650.6561426308466
733,650.6097097603708
734,650.5637113675482
735,650.518245681581
736,650.4734098056705
737,650.4292996530708
738,650.3860098989733
739,650.3436339447908
740,650.3022638919568
741,650.2619905233122
742,650.2229032910888
743,650.1850903110453
744,650.1486383622895
745,650.1136328918974
746,650.0801580229612
747,650.0482965643504
748,650.0181300202522
749,649.9897385974265
750,649.9632012080849
751,649.9385954663844
752,649.9159976767841
753,649.8954828131513
754,649.8771244885322
755,649.8609949166319
756,649.8471648669531
757,649.8357036160829
758,649.8266788977081
759,649.8201568534201
760,649.816201985195
761,649.8148771089501
762,649.8162433073305
763,649.8203598792899
764,649.8272842841698
765,649.8370720784859
766,649.8497768440344
767,649.8654501060877
768,649.8841412405628
769,649.9058973694088
770,649.9307632441731
771,649.9587811185412
772,649.9899906111821
773,650.0244285602218
774,650.0621288700443
775,650.1031223500208
776,650.1474365435091
777,650.195095544545
778,650.2461197994995
779,650.3005258914715
780,650.3583263059265
781,650.4195291769103
782,650.4841380142043
783,650.5521514130619
784,650.623562749317
785,650.69835986334
786,650.7765247364086
787,650.8580331627985
788,650.9428544208063
789,651.0309509465426
790,651.1222780157682
791,651.2167834407062
792,651.3144072897527
793,651.4150816378071
794,651.5187303538249
795,651.6252689310504
796,651.734604364952
797,651.8466350840099
798,651.9612509384857
799,652.0783332517514
800,652.1977549378132
801,652.3193806875473
802,652.4430672249686
803,652.568663633627
804,652.6960117518272
805,652.8249466336251
806,652.9552970706981
807,653.0868861688283
808,653.2195319722957
809,653.3530481295982
810,653.4872445939
811,653.6219283511292
812,653.7569041679643
813,653.8919753515339
814,654.0269445128603
815,654.1616143270777
816,654.2957882850682
817,654.4292714328041
818,654.5618710958194
819,654.6933975866285
820,654.8236648925923
821,654.9524913408034
822,655.0797002353075
823,655.2051204609481
824,655.3285870479262
825,655.4499416920785
826,655.5690332276641
827,655.6857180515485
828,655.7998604992819
829,655.9113331740525
830,656.0200172288631
831,656.125802601358
832,656.2285882004005
833,656.3282820438659
834,656.4248013476063
835,656.518072565713
836,656.6080313822264
837,656.694622654799
838,656.7778003116163
839,656.857527203734
840,656.9337749156376
841,657.0065235373067
842,657.0757614014725
843,657.1414847900318
844,657.2036976136827
845,657.2624110688253
846,657.3176432756273
847,657.3694189008884
848,657.4177687690081
849,657.4627294641283
850,657.5043429264143
851,657.5426560454105
852,657.5777202531941
853,657.6095911195686
854,657.6383279509776
855,657.6639933944608
856,657.6866530478424
857,657.7063750774886
858,657.7232298455255
859,657.7372895493294
860,657.7486278770139
861,657.7573196830442
862,657.7634406880044
863,657.7670672063913
864,657.7682759064662
865,657.767143606436
866,657.7637471112487
867,657.7581630939311
868,657.7504680244575
869,657.7407381474114
870,657.7290495074852
871,657.7154780198466
872,657.7000995809176
873,657.682990213913
874,657.6642262422031
875,657.6438844822494
876,657.622042446796
877,657.5987785484647
878,657.5741722940965
879,657.5483044612039
880,657.5212572495413
881,657.4931144027433
882,657.4639612971197
883,657.4338849968765
884,657.4029742768488
885,657.3713196149583
886,657.3390131571396
887,657.3061486576673
888,657.2728213977359
889,657.2391280846365
890,657.2051667329359
891,657.171036528035
892,657.1368376719837
893,657.1026712116462
894,657.0686388497788
895,657.0348427397846
896,657.0013852647771
897,656.9683688013738
898,656.9358954684475
899,656.9040668609359
900,656.8729837688494
901,656.8427458818096
902,656.8134514795136
903,656.7851971081445
904,656.7580772420412
905,656.7321839293531
906,656.7076064204849
907,656.684430779011
908,656.6627394762148
909,656.642610972143
910,656.6241192876907
911,656.6073335732768
912,656.5923176798935
913,656.5791297379714
914,656.567821748991
915,656.5584391944192
916,656.5510206664464
917,656.5455975250153
