acceleration,velocity,displacement
-0.0016438525015376939,0.0,0.0
-0.0009949983490110399,-6.597127126371835e-07,-1.6492817815929587e-10
-0.00034804177075626035,-9.954727425790085e-07,-5.787245419633439e-10
0.0002951302469693521,-1.0087006235257356e-06,-1.07976788348953e-09
0.0009326517496997113,-7.017551243584697e-07,-1.5073818204605813e-09
0.0015626879822145108,-7.792019137991419e-08,-1.7023006493951771e-09
0.0021834451666950363,8.586130958474725e-07,-1.5071274232782876e-09
0.002793179799955896,2.1027693375102057e-06,-7.667818149388681e-10
0.0033902074026012034,3.648616138149481e-06,6.710645539760537e-10
0.003972910681253618,5.489395659113186e-06,2.95556750329172e-09
0.004539747094672577,7.617560103094735e-06,6.232306443843701e-09
0.005089255840631372,1.0024810836920722e-05,1.0642899178847565e-08
0.005620064296168541,1.27021408711207e-05,1.632463710585792e-08
0.006130893943315534,1.563988043099172e-05,2.3410142431386023e-08
0.006620565794782843,1.8827745365516315e-05,3.202704888051303e-08
0.007088005308256199,2.2254888141276076e-05,4.229770725721113e-08
0.007532246756116018,2.590995115736913e-05,5.4338917081872436e-08
0.007952437006210974,2.978112209795088e-05,6.826168539570244e-08
0.008347838667446407,3.3856191016365224e-05,8.417101367428147e-08
0.008717832556919679,3.812260882245675e-05,1.0216571363398696e-07
0.009061919452261738,4.2567546824752106e-05,1.2233825254578918e-07
0.009379721106832902,4.717795696452577e-05,1.4477462849310865e-07
0.00967098052609023,5.194063237275655e-05,1.6955427582742922e-07
0.00993556152454971,5.6842267885416536e-05,1.967500008919725e-07
0.010173447596039303,6.18695201655638e-05,2.264279479047176e-07
0.010384740131272899,6.700906709739185e-05,2.586475947204565e-07
0.010569656009188666,7.224766613250724e-05,2.9346177802793126e-07
0.010728524577125538,7.757221127908579e-05,3.309167473808295e-07
0.010861784022349908,8.296978842895465e-05,3.7105224730783965e-07
0.010969977124948384,8.842772871577922e-05,4.1390162659402314e-07
0.011053746376387431,9.393365959111317e-05,4.5949197367074623e-07
0.011113828456992755,9.947555329945822e-05,5.078442768933891e-07
0.011151048088464243,0.00010504177243582247,5.589736083272093e-07
0.011166311304187127,0.00011062111228398532,6.128893295071612e-07
0.011160598198817238,0.0001162028396597364,6.695953174930916e-07
0.011134955224033863,0.00012177672801544918,7.29090209411888e-07
0.011090487092157037,0.0001273330885944969,7.913676635643745e-07
0.01102834834178743,0.00013286279745298302,8.564166350762445e-07
0.01094973461817966,0.0001383573181929748,9.242216639877339e-07
0.010855873728505374,0.00014380872027964606,9.947631736058891e-07
0.010748016545554889,0.00014920969284816111,1.068017776887841e-06
0.010627427847851555,0.00015455355394651272,1.1439585885865094e-06
0.010495377196601534,0.000159834255207626,1.2225555408750441e-06
0.010353129959077709,0.00016504638199654582,1.3037757001760872e-06
0.010201938593107182,0.00017018514913459204,1.3875835829588716e-06
0.01004303430679573,0.00017524639235956776,1.4739414683324116e-06
0.009877619199059254,0.0001802265557360315,1.5628097053563114e-06
0.00970685896775856,0.00018512267527773596,1.6541470131097534e-06
0.009531876245065208,0.0001899323590809419,1.7479107716994229e-06
0.00935374459075088,0.00019465376428989592,1.8440573025421324e-06
0.00917348314864335,0.00019928557122474448,1.9425421364207924e-06
0.008992051950265461,0.0002038269549994717,2.0433202679768466e-06
0.008810347833630602,0.0002082775549454457,2.146346395463076e-06
0.008629200938573459,0.00021263744213849672,2.2515751447340614e-06
0.00844937174476214,0.0002169070853093306,2.3589612765960185e-06
0.008271548630007012,0.0002210873154030229,2.4684598767741067e-06
0.008096345937687774,0.00022517928904494658,2.580026527886099e-06
0.00792430254875288,0.00022918445116655676,2.693617462938975e-06
0.0077558809554922345,0.00023310449704261804,2.809189699991269e-06
0.0075914668338072115,0.0002369413339899429,2.926701157749409e-06
0.007431369109861205,0.00024069704297586,3.04611075199086e-06
0.007275820515167846,0.00024437384038211723,3.1673784728303542e-06
0.007124978618246183,0.00024797404016547076,3.2904654429672514e-06
0.0069789273108646814,0.0002515000166477485,3.415333957170556e-06
0.006837678716925628,0.00025495416815469606,3.5419475033711673e-06
0.0067011754847872,0.00025833888170512427,3.6702707658361223e-06
0.006569293415151549,0.00026165649893010896,3.8002696109949308e-06
0.006441844363067424,0.0002649092833746637,3.931911056571124e-06
0.006318579337562443,0.00026809938929982116,4.065163224739745e-06
0.006199191714332613,0.00027122883206279495,4.199995280080399e-06
0.006083320480970535,0.0002742994601116207,4.336377353124003e-06
0.005970553448578862,0.00027731292859400805,4.47428045030041e-06
0.005860430381100692,0.00028027067455142795,4.613676351086769e-06
0.005752446009809322,0.00028317389364915544,4.754537493136915e-06
0.0056460529175325295,0.0002860235183809909,4.896836846144452e-06
0.005540664297622938,0.00028882019768477975,5.040547775160894e-06
0.005435656612138259,0.00029156427791222005,5.1856438940601446e-06
0.0053303721865060405,0.00029425578511188115,5.33209890981617e-06
0.005224121784371203,0.0002968944086046005,5.47988645824529e-06
0.005116187208569926,0.0002994794858528358,5.6289799318596495e-06
0.005005823970538718,0.00030200998864761294,5.7793523004847615e-06
0.004892264059097734,0.00030448451065502206,5.93097592531042e-06
0.00477471882339007,0.000306901256375644,6.083822367068087e-06
0.0046523819696410035,0.0003092580315739018,6.237862189055473e-06
0.0045244326619783256,0.0003115522352318066,6.3930647557569e-06
0.004390038716947081,0.00031378085307653795,6.549398027833986e-06
0.004248359889895036,0.00031594045272824846,6.7068283542851825e-06
0.004098551266273812,0.00031802718051729065,6.865320262596567e-06
0.003939766786734493,0.00032003676003054273,7.024836247733525e-06
0.0037711629458635526,0.0003219644924636922,7.185336560857084e-06
0.003591902707990577,0.00032380525887715575,7.346778998692296e-06
0.003401159682827187,0.0003255535244748602,7.5091186945303e-06
0.0031981226055391066,0.00032720334504695176,7.672307911910753e-06
0.0029820001702456447,0.00032874837574089794,7.836295842107716e-06
0.0027520262631078912,0.00033018188234923635,8.00102840663025e-06
0.0025074656218430436,0.0003314967553204741,8.166448066047679e-06
0.002247619914268339,0.00033268552670450194,8.332493636553923e-06
0.001971834190595559,0.0003337403902307179,8.499100115787728e-06
0.00167950363191891,0.00033465322468634654,8.666198519516994e-06
0.0013700804910818495,0.00033541562071709674,8.833715730867855e-06
0.0010430810986200197,0.0003360189111145222,9.00157436382576e-06
0.0006980927875034654,0.0003364542045860531,9.169692642750904e-06
0.0003347805825617873,0.0003367124229285694,9.337984299629559e-06
-4.710649284246597e-05,0.0003367843414509992,9.506358490724451e-06
-0.0004477296233980239,0.0003366606324219391,9.674719734192686e-06
-0.0008671550320330728,0.00033633191125808135,9.842967870112691e-06
-0.0013053495245813512,0.0003357887851189277,1.0010998044206943e-05
-0.001762176821518358,0.0003350219035324028,1.0178700716369777e-05
-0.002237394731592849,0.00033402201064412497,1.0345961694913908e-05
-0.002730653204346328,0.00033277999866014016,1.0512662197239975e-05
-0.0032414932823282244,0.00033128696203847154,1.0678678937414627e-05
-0.0037693469641437096,0.00032953425197685353,1.0843884240918458e-05
-0.004313537988189898,0.00032751353073877013,1.1008146186597363e-05
-0.004873283549278348,0.00032521682535440307,1.1171328775620657e-05
-0.005447696957745375,0.00032263658022764713,1.133329212701617e-05
-0.006035791238755842,0.0003197657081785218,1.1493892699117713e-05
-0.006636483650757368,0.0003165976394561435,1.165298353602638e-05
-0.007248601082139148,0.00031312636827291937,1.1810414537958646e-05
-0.007870886268237077,0.0003093464964353253,1.1966032754135708e-05
-0.008502004757367898,0.00030525327367892405,1.211968269666427e-05
-0.009140552545181254,0.00030084263435328675,1.2271206673672322e-05
-0.009785064292187114,0.00029611123014394464,1.242044513979663e-05
-0.0104340220365435,0.000291056458561762,1.2567237061973057e-05
-0.011085864306390114,0.00028567648697602863,1.2711420298357504e-05
-0.011738995521363942,0.00027997027201909013,1.2852831988106284e-05
-0.012391795556910199,0.0002739375742495216,1.2991308949673438e-05
-0.01304262933517649,0.0002675789680264999,1.3126688085242443e-05
-0.01368985630849306,0.0002608958466155825,1.3258806788902964e-05
-0.014331839717868704,0.00025389042260899207,1.3387503356209108e-05
-0.014966955535145132,0.0002465657237957386,1.351261739281029e-05
-0.01559360102311187,0.00023892558465617435,1.363399021992327e-05
-0.01621020286453589,0.0002309746336842624,1.3751465274508379e-05
-0.01681522481751139,0.0002227182767637506,1.3864888502120381e-05
-0.017407174855823944,0.00021416267684541676,1.3974108740522673e-05
-0.017984611755707782,0.00020531473019253383,1.4078978092282161e-05
-0.01854615109914952,0.0001961820394788195,1.41793522847e-05
-0.019090470677214796,0.00018677288403472843,1.4275091015578386e-05
-0.0196163152877595,0.00017709618754348485,1.436605828347294e-05
-0.020122500924837267,0.00016716148349033567,1.4452122701231394e-05
-0.02060791835540846,0.00015697887867027424,1.4533157791771546e-05
-0.021071536081954775,0.00014655901506093342,1.4609042265204347e-05
-0.021512402703625404,0.00013591303036453837,1.4679660276560714e-05
-0.021929648711669008,0.00012505251751071476,1.4744901663529528e-05
-0.022322487780107057,0.00011398948338777075,1.4804662163754149e-05
-0.022690217632364756,0.0001027363070346528,1.4858843611359755e-05
-0.02303222057424144,9.130569748300125e-05,1.4907354112489168e-05
-0.02334796378177983,7.971065139399593e-05,1.4950108199708419e-05
-0.02363699942156631,6.79644105931594e-05,1.4987026965205207e-05
-0.023898964664212537,5.6080419571714684e-05,1.5018038172746427e-05
-0.024133581628568757,4.407228299851936e-05,1.5043076348388986e-05
-0.024340657264498196,3.195372327525262e-05,1.5062082849957429e-05
-0.024520083152664872,1.9738538170961855e-05,1.5075005915318982e-05
-0.02467183518019264,7.440558587747476e-06,1.508180068950866e-05
-0.024795973043490648,-4.9263934681733465e-06,1.5082429230788554e-05
-0.024892639528296904,-1.7348546611120235e-05,1.507686049576873e-05
-0.024962059516010097,-2.9812221372196987e-05,1.50650703037729e-05
-0.025004538663230002,-4.2303870917007015e-05,1.5047041280700599e-05
-0.025020461699764407,-5.481012100775562e-05,1.5022762782719408e-05
-0.025010290289972866,-6.731780900518994e-05,1.4992230800216171e-05
-0.024974560404197713,-7.981402167873259e-05,1.4955447842545192e-05
-0.024913879153707092,-9.228613156820879e-05,1.4912422804233457e-05
-0.02482892105829644,-0.00010472183162120967,1.4863170813436102e-05
-0.024720423740649648,-0.00011710916782094619,1.4807713063575563e-05
-0.024589183069319693,-0.00012943656952343853,1.4746076629239467e-05
-0.024436047794699125,-0.00014169287723944323,1.4678294267548746e-05
-0.024261913737263368,-0.00015386736762243385,1.4604404206333277e-05
-0.024067717597594317,-0.00016594977545614828,1.4524449920563632e-05
-0.02385443046564832,-0.00017793031247195892,1.4438479898581605e-05
-0.023623051109551724,-0.00018979968286575894,1.4346547399747177e-05
-0.02337459912083557,-0.00020154909542335577,1.4248710205174897e-05
-0.023110107990258474,-0.00021317027220112928,1.4145030363268776e-05
-0.022830618192351267,-0.00022465545374678172,1.4035573931781798e-05
-0.02253717036455971,-0.00023599740088600947,1.39204107181236e-05
-0.022230798670679886,-0.00024718939314481936,1.3799614019615893e-05
-0.021912524434944642,-0.0002582252239212255,1.3673260365349382e-05
-0.02158335012657729,-0.00026909919256160595,1.3541429261228674e-05
-0.02124425377098419,-0.00027980609353599634,1.3404202939704274e-05
-0.020896183862709257,-0.0002903412029444197,1.326166611558417e-05
-0.020540054850896376,-0.0003007002626228211,1.311390574919236e-05
-0.020176743255852985,-0.00031087946214950846,1.2961010817999278e-05
-0.01980708445413667,-0.0003208754190770059,1.280307209769265e-05
-0.019431870140886605,-0.0003306851577257617,1.2640181953491957e-05
-0.019051846448694076,-0.00034030608687315685,1.2472434142342227e-05
-0.018667712679756768,-0.00034973597665526957,1.2299923626460122e-05
-0.01828012059298792,-0.00035897293497345574,1.212274639855294e-05
-0.017889674176448142,-0.00036801538366581474,1.1940999318893123e-05
-0.0174969298282791,-0.00037686203466699654,1.175477996430992e-05
-0.01710239687129769,-0.00038551186634189075,1.1564186489057698e-05
-0.016706538338671688,-0.0003939641001443831,1.1369317497436129e-05
-0.016309771985292067,-0.000402218177725374,1.117027192796869e-05
-0.01591247149464167,-0.0004102737385953574,1.0967148948888507e-05
-0.015514967860759132,-0.00041813059843420763,1.0760047864631116e-05
-0.015117550930760431,-0.0004257887281320875,1.0549068032989542e-05
-0.014720471098686563,-0.00043324823363944927,1.0334308792546659e-05
-0.014323941145723707,-0.00044050933670055183,1.0115869399961659e-05
-0.013928138220791284,-0.0004475723565421806,9.893848976650975e-06
-0.013533205946214013,-0.0004544376925839319,9.668346464369446e-06
-0.013139256618421188,-0.0004611058082250907,9.43946058916719e-06
-0.01274637345881571,-0.00046757721574439994,9.207289833174818e-06
-0.012354612861886901,-0.00047385246232457557,8.971932413657575e-06
-0.011964006590607482,-0.0004799321171876992,8.733486268779506e-06
-0.011574563880937687,-0.0004858167598055855,8.492049049531185e-06
-0.011186273432355913,-0.0004915069691339089,8.247718117296311e-06
-0.01079910527775812,-0.0004970033138114374,8.000590546559975e-06
-0.010413012544370142,-0.0005023063432669695,7.750763132290372e-06
-0.010027933133357338,-0.0005074165796864014,7.498332401552029e-06
-0.009643791351663279,-0.0005123345108076566,7.2433946289285145e-06
-0.009260499521908033,-0.0005170605835260495,6.986045855345088e-06
-0.00887795957977391,-0.00052159519830147,6.726381909888208e-06
-0.00849606465223599,-0.0005259387043594724,6.464498434222973e-06
-0.00811470059904158,-0.0005300913956722918,6.200490909215031e-06
-0.007733747491747738,-0.0005340535076949892,5.934454683373211e-06
-0.007353080995531634,-0.000537825214816809,5.666485002745261e-06
-0.006972573608487172,-0.0005414066284678137,5.396677041924106e-06
-0.006592095703690941,-0.0005447977957958582,5.1251259358581875e-06
-0.006211516313787937,-0.0005479986988002279,4.851926812209166e-06
-0.005830703598070288,-0.0005510092537781925,4.577174824064561e-06
-0.005449524939110367,-0.0005538293109124876,4.300965182891891e-06
-0.005067846630213746,-0.0005564586538048187,4.023393191712565e-06
-0.004685533137260314,-0.0005588969987466872,3.744554278574688e-06
-0.004302445947345409,-0.0005611439935178386,3.4645440305085568e-06
-0.003918442044492211,-0.000563199215515798,3.1834582282501477e-06
-0.00353337207292408,-0.0005650621690451521,2.9013928821099102e-06
-0.00314707826454031,-0.0005667322816295182,2.6184442694412425e-06
-0.002759392226923852,-0.0005682088992523843,2.334708974220767e-06
-0.002370132709296634,-0.0005694912804864394,2.050283929286061e-06
-0.0019791034729890657,-0.0005705785895320109,1.7652664617814485e-06
-0.001586091381319737,-0.0005714698882455881,1.4797543423370488e-06
-0.0011908647979394027,-0.0005721641272904028,1.193845838453051e-06
-0.0007931723582157143,-0.0005726601365794416,9.076397724855899e-07
-0.0003927421624579112,-0.0005729566152096099,6.212355845383269e-07
1.0718572344236339e-05,-0.0005730521211071383,3.3473340045913985e-07
0.0004175233806377031,-0.0005729450606188929,4.8234105027632085e-08
0.0008280059301404747,-0.0005726336782911983,-2.3816057969989066e-07
0.0012425189193750253,-0.0005721160470788194,-5.24348011042395e-07
0.001661432491760603,-0.0005713900592260355,-8.102245376186088e-07
0.0020851321624672584,-0.0005704534180624786,-1.0956854069407374e-06
0.0025140162515437693,-0.0005693036309589758,-1.380624669196101e-06
0.0029484928188062815,-0.0005679380036913883,-1.664935077858692e-06
0.003388976104997067,-0.0005663536364604374,-1.9485079878966482e-06
0.0038358825010921228,-0.0005645474218089151,-2.2312332524639863e-06
0.004289626088206151,-0.0005625160446615906,-2.5129991190816127e-06
0.004750613804818002,-0.0005602559846883346,-2.793692126419094e-06
0.005219240300526551,-0.0005577635211619985,-3.0731970028816774e-06
0.005695882531607724,-0.0005550347404539649,-3.3513965682856683e-06
0.006180894152675533,-0.000552065546282894,-3.6281716399698828e-06
0.0066745997643795196,-0.0005488516728036302,-3.903400944741514e-06
0.0071772890862949485,-0.0005453887005909616,-4.176961038090162e-06
0.007689211132673695,-0.0005416720755362194,-4.448726232121957e-06
0.008210568476175682,-0.000537697130634007,-4.7185685336645136e-06
0.008741511692382931,-0.0005334591105918674,-4.986357593970982e-06
0.00928213408452587,-0.0005289531991476402,-5.251960671405858e-06
0.009832466788959025,-0.000524174548929269,-5.515242608425086e-06
0.01039247435449653,-0.0005191183136434051,-5.776065824068254e-06
0.010962050875198479,-0.0005137796823359814,-6.034290323063101e-06
0.011541016740362725,-0.000508153915432091,-6.289773722505119e-06
0.012129116049065204,-0.0005022363822347341,-6.542371296921825e-06
0.012726014721263904,-0.0004960225995421518,-6.791936042366047e-06
0.01333129932691352,-0.0004895082710301074,-7.038318760009112e-06
0.013944476650545686,-0.0004826893270357426,-7.281368159525574e-06
0.01456497400506827,-0.0004755619643718391,-7.5209309823774694e-06
0.015192140296325485,-0.0004681226857964907,-7.756852144919552e-06
0.01582524781902823,-0.00046036833876765223,-7.988974901060588e-06
0.016463494743976,-0.00045229615312690117,-8.217141024034226e-06
0.0171060082433108,-0.00044390377738007947,-8.44119100666097e-06
0.01775184819543511,-0.00043518931327039297,-8.660964279323589e-06
0.018400011413347763,-0.00042615134836819724,-8.876299444733237e-06
0.019049436349525394,-0.00041678898642747895,-9.087034528432156e-06
0.019699008243822834,-0.0004071018752791419,-9.293007243858812e-06
0.02034756469227077,-0.0003970902320451185,-9.494055270689876e-06
0.02099390161785718,-0.0003867548654675865,-9.690016545068052e-06
0.021636779615523717,-0.00037609719515924124,-9.880729560224758e-06
0.02227493062539578,-0.0003651192675990114,-1.0066033675914321e-05
0.02290706487219066,-0.00035382376872461474,-1.0245769434995228e-05
0.02353187800464034,-0.000342214033005407,-1.0419778885427734e-05
0.02414805837647773,-0.00033029404891012743,-1.0587905905906617e-05
0.02475429442224381,-0.000318068460710447,-1.074999653331176e-05
0.025349282091155587,-0.00030554256658209717,-1.0905899290134896e-05
0.025931732306824856,-0.00029272231298260205,-1.105546551002607e-05
0.026500378417357768,-0.0002796142853015564,-1.119854965959711e-05
0.027053983590454314,-0.00026622569479960336,-1.1335009654622399e-05
0.027591348097295586,-0.0002525643618776659,-1.1464707168791716e-05
0.028111316423221133,-0.0002386386957475367,-1.1587507933198017e-05
0.0286127841460796,-0.00022445767060521153,-1.1703282024786204e-05
0.02909470453262399,-0.00021003079843553564,-1.181190414204639e-05
0.029556094812324202,-0.00019536809859929858,-1.19132538663051e-05
0.029996042090402155,-0.00018048006437361699,-1.2007215907048329e-05
0.030413708859025407,-0.0001653776266362601,-1.2093680329800799e-05
0.0308083380642233,-0.00015007211490544793,-1.2172542765186226e-05
0.03117925769059277,-0.00013457521596674392,-1.2243704597904274e-05
0.0315258848331052,-0.00011889893033581944,-1.2307073134479915e-05
0.031847729228162584,-0.00010305552682050249,-1.2362561748768995e-05
0.032144396211069674,-8.705749546069442e-05,-1.2410090004339293e-05
0.03241558905708732,-7.091749914365517e-05,-1.2449583752990381e-05
0.03266111065553972,-5.464832421549841e-05,-1.2480975208830169e-05
0.032880864467505565,-3.826283043473709e-05,-1.2504202997492728e-05
0.03307485473046666,-2.1773900635244036e-05,-1.2519212180260224e-05
0.03324318589628506,-5.1943904785561036e-06,-1.2525954253038675e-05
0.03338606131735721,1.1462921324854465e-05,-1.25243871203271e-05
