frame_number,force
0,651.7279700000533
1,651.9289253082698
2,652.1219884424115
3,652.2999871633632
4,652.4571013232805
5,652.5893281534309
6,652.6947215084664
7,652.7733808703864
8,652.827212090154
9,652.8595223839886
10,652.8745288032759
11,652.8768500647762
12,652.8710310983065
13,652.861133038148
14,652.8504140577502
15,652.8411278204751
16,652.834468322105
17,652.8306784780226
18,652.8293112921597
19,652.829598842654
20,652.8308604137999
21,652.8328763341561
22,652.8361679338979
23,652.8421427768536
24,652.8530754507505
25,652.8719058201452
26,652.901866853093
27,652.9459994260088
28,653.0066450485205
29,653.085012810735
30,653.1809015801487
31,653.2926316963216
32,653.4172023564836
33,653.5506463414577
34,653.6885135949947
35,653.8263880021768
36,653.9603383335261
37,654.0872330071596
38,654.2048942559132
39,654.3121017264758
40,654.408468909191
41,654.4942197740374
42,654.5698986602997
43,654.6360577126312
44,654.6929805941688
45,654.7405062656725
46,654.7779961581278
47,654.8044416006217
48,654.8186606606993
49,654.8195165578951
50,654.8061104876316
51,654.777935631147
52,654.7349974310345
53,654.6778977207252
54,654.6078597087085
55,654.5266656608127
56,654.4365086118241
57,654.339805055562
58,654.2390325832373
59,654.1366236471375
60,654.0348949830375
61,653.9359720517606
62,653.8416912932495
63,653.7534945456385
64,653.6723355177057
65,653.5986044182664
66,653.532070965947
67,653.4718540628039
68,653.4164333792116
69,653.3637155013839
70,653.3111588267639
71,653.2559517365187
72,653.1952299390844
73,653.126312097475
74,653.0469285701347
75,652.9554180694706
76,652.8508715467369
77,652.7332087727355
78,652.6031802244004
79,652.4622985266839
80,652.3127181873313
81,652.1570883866933
82,651.9983932557102
83,651.8397768083254
84,651.6843469146406
85,651.534974209116
86,651.3941287941517
87,651.2638019898664
88,651.1455386830903
89,651.0405755234125
90,650.9500533764349
91,650.8752522368018
92,650.8177869956038
93,650.7797058633863
94,650.7634477096345
95,650.7716349890618
96,650.806702704338
97,650.8703970347509
98,650.9632273555605
99,651.0840072184717
100,651.22963222309
101,651.3951882254124
102,651.5743833951514
103,651.7602045545065
104,651.9456498560415
105,652.1243898341652
106,652.291241757822
107,652.4423909464103
108,652.575344491717
109,652.6886543175367
110,652.7814988635529
111,652.8532531790232
112,652.903179643539
113,652.9303250479319
114,652.9336377229204
115,652.9122592075676
116,652.865916797237
117,652.7953336556844
118,652.7025626457187
119,652.5911411521932
120,652.4659812302577
121,652.3329694847172
122,652.1983399084498
123,652.0679615523582
124,651.946714797298
125,651.8381011733211
126,651.7441528684491
127,651.665608498436
128,651.6022406137464
129,651.5531902663635
130,651.5171946186904
131,651.4926714214413
132,651.477713857067
133,651.4701009702493
134,651.4674123010351
135,651.4672681449991
136,651.467645753362
137,651.4671830354263
138,651.4653842095555
139,651.4626730160219
140,651.460276300461
141,651.4599506489393
142,651.463591229723
143,651.47279201502
144,651.4884482004373
145,651.5104829730631
146,651.5377432124274
147,651.5680683162688
148,651.5985097400994
149,651.6256620910223
150,651.6460560874101
151,651.6565635407351
152,651.6547741001967
153,651.6393139133678
154,651.6100799057895
155,651.5683616617262
156,651.5168259867636
157,651.4593555348175
158,651.4007593429753
159,651.3463968913021
160,651.3017658773841
161,651.2720940847773
162,651.2619564190047
163,651.2749256939768
164,651.313270825897
165,651.3777332827241
166,651.4674272021638
167,651.5799086982543
168,651.7114377150889
169,651.8574107635958
170,652.0128917809449
171,652.1731410264963
172,652.3340554347361
173,652.4924723039398
174,652.6463202925311
175,652.7946189753081
176,652.9373491905893
177,653.0752503999805
178,653.2096263019752
179,653.3422257881732
180,653.4752122754738
181,653.6111737092418
182,653.7530935551474
183,653.9042114094087
184,654.0677407433412
185,654.2464634967755
186,654.4422698371455
187,654.6557432532917
188,654.8858959210011
189,655.1301274421762
190,655.3844131150302
191,655.6436536104799
192,655.9020800913661
193,656.1536289252555
194,656.3922540664984
195,656.6121892264043
196,656.8081881482508
197,656.9757711870221
198,657.1114976618853
199,657.2132589200305
200,657.2805484975496
201,657.3146371716365
202,657.3185852347616
203,657.2970581534736
204,657.2559547818502
205,657.2018978347139
206,657.1416680393344
207,657.081674749601
208,657.0275408550167
209,656.9838445120661
210,656.9540152621314
211,656.9403446525893
212,656.9440603933913
213,656.965427672775
214,657.0038630808718
215,657.0580633517727
216,657.1261589726571
217,657.2058957675182
218,657.2948258132802
219,657.390468785255
220,657.4904059564915
221,657.5922923336535
222,657.693801233184
223,657.7925383758031
224,657.8859752281599
225,657.9714444260092
226,658.0462083079186
227,658.1075724255862
228,658.1529992230788
229,658.1801941999792
230,658.1871694973499
231,658.1723110184729
232,658.1344761765355
233,658.073138080749
234,657.9885697145016
235,657.882026760552
236,657.7558617853
237,657.6135145410215
238,657.4593658373327
239,657.2984776442275
240,657.1362472726624
241,656.9779924775652
242,656.8284870168386
243,656.6914929852935
244,656.5693647868328
245,656.4628038406187
246,656.3708228107301
247,656.29094563108
248,656.219627428933
249,656.1528278235908
250,656.0866282314876
251,656.017773386464
252,655.9440477428839
253,655.8644497168575
254,655.7791742496595
255,655.689445296096
256,655.5972545066105
257,655.5050619440369
258,655.415504009266
259,655.3311435054369
260,655.2542948680309
261,655.1869569251033
262,655.1308668122432
263,655.0876465452258
264,655.0589731817867
265,655.0466934555037
266,655.0528251886388
267,655.0794213160667
268,655.1283042764156
269,655.2007085677649
270,655.2968969293561
271,655.4158266712045
272,655.5549254237437
273,655.7100060785427
274,655.8753340530548
275,656.0438563500134
276,656.2075954791641
277,656.3581937993425
278,656.4875643804198
279,656.5885702483083
280,656.6556331695692
281,656.6851805987222
282,656.6758731831544
283,656.6286033102612
284,656.5463011734588
285,656.4336107039494
286,656.2964971695438
287,656.141833063725
288,655.976992615871
289,655.8094687045841
290,655.6465087111626
291,655.4947607927077
292,655.3599388119945
293,655.2465340308627
294,655.1575957925875
295,655.0945758912616
296,655.0572189669138
297,655.0435061457958
298,655.0496979877711
299,655.0705303782225
300,655.0995756196086
301,655.1297213695688
302,655.153690333458
303,655.1645409166875
304,655.1561268536498
305,655.1235144828377
306,655.0633485691535
307,654.9741387760128
308,654.8564290080886
309,654.7128161545585
310,654.5477985492843
311,654.367452212007
312,654.1789498213329
313,653.9899492999211
314,653.8078871778605
315,653.6392246115362
316,653.4887174199995
317,653.358809556586
318,653.2492606740735
319,653.157091115217
320,653.0768656773247
321,653.0012737939321
322,652.9219274823907
323,652.8302858360977
324,652.7186014799022
325,652.5807624859164
326,652.4128984486522
327,652.2136619557326
328,651.9841800114959
329,651.7277504397846
330,651.4493946271381
331,651.1553645258499
332,650.8526648932703
333,650.5486162550027
334,650.2504541721122
335,649.9649385318263
336,649.6979486035808
337,649.4540729034367
338,649.236248893672
339,649.0455369766747
340,648.8811058077285
341,648.7404588065069
342,648.6198647601855
343,648.51490221568
344,648.4210110538321
345,648.3339655492035
346,648.2502257771475
347,648.1671649823633
348,648.0831884614629
349,647.9977539679599
350,647.9112969160224
351,647.8250746900695
352,647.7409639319603
353,647.6612474966398
354,647.5884088696823
355,647.5249356976153
356,647.4731393989969
357,647.4350101863539
358,647.4121219226688
359,647.4055806314798
360,647.4159945707802
361,647.4434399293708
362,647.4873981130421
363,647.5466526111387
364,647.6191646380073
365,647.7019810025492
366,647.7912327018122
367,647.8822536691647
368,647.9698150635588
369,648.0484546868539
370,648.1128774508468
371,648.1583945125919
372,648.1813509421133
373,648.1794733094745
374,648.1520655149941
375,648.1000062064184
376,648.0255471233072
377,647.9319556547005
378,647.8230716326085
379,647.7028568397593
380,647.5750067110208
381,647.4426698631531
382,647.3082956319469
383,647.1736166878994
384,647.0397664591575
385,646.9075105032373
386,646.7775388532011
387,646.6507476183832
388,646.5284457874368
389,646.412444086592
390,646.3050026786915
391,646.2086348590534
392,646.1257885617517
393,646.0584532470531
394,646.0077629065091
395,645.9736832323937
396,645.9548719227413
397,645.9487693061138
398,645.951910228233
399,645.9603793063895
400,645.9703047324654
401,645.9783110607154
402,645.9818976906788
403,645.9797400731537
404,645.9719052445034
405,645.9599370151107
406,645.9467359368043
407,645.9361803356913
408,645.9325121623373
409,645.9396001898725
410,645.9602391376831
411,645.9956242675379
412,646.0450768641557
413,646.1060298856969
414,646.1742450083223
415,646.2442198100443
416,646.3097398135793
417,646.3645260803673
418,646.4029223739566
419,646.4205541111893
420,646.4148830289246
421,646.3855932449482
422,646.334774217033
423,646.2668906216476
424,646.1885367858933
425,646.107978059744
426,646.0344962383331
427,645.9775772030282
428,645.9460038821708
429,645.9469496022529
430,645.9851937361065
431,646.0625767482521
432,646.1777680191876
433,646.3263628189773
434,646.501283009706
435,646.693433272898
436,646.8925490794823
437,647.0881570496377
438,647.2705542509636
439,647.431704410421
440,647.5659473923267
441,647.6704232269384
442,647.7451289660487
443,647.7925692687493
444,647.8170372033901
445,647.8236537458904
446,647.8173652268608
447,647.8021151138526
448,647.7803656767558
449,647.7530635782538
450,647.7200397676006
451,647.6807248349407
452,647.6349709618454
453,647.5837334125648
454,647.5294024225769
455,647.4756855912449
456,647.4270799157663
457,647.3880825886249
458,647.3623350693504
459,647.3518858907281
460,647.3567242380437
461,647.3746893344414
462,647.401790425726
463,647.4328773944784
464,647.4625089256717
465,647.4858156139185
466,647.4991738331222
467,647.5005798355808
468,647.4897049818761
469,647.4676859881088
470,647.4367425409607
471,647.3997227045031
472,647.359662236023
473,647.3194145690198
474,647.2813792754888
475,647.247340778514
476,647.2184181865027
477,647.1951108069337
478,647.1774122305566
479,647.1649706588415
480,647.1572818284917
481,647.1538944426663
482,647.1545906893671
483,647.1594971306583
484,647.1690966661001
485,647.1841463084958
486,647.2055418788858
487,647.2341867793898
488,647.2709042398491
489,647.3163968386802
490,647.3712391699781
491,647.4359016910417
492,647.5108166365002
493,647.5964779327963
494,647.6935265367155
495,647.802752883503
496,647.924975228264
497,648.0608108722719
498,648.2104050823185
499,648.3731912906046
500,648.5477340154946
501,648.7316795934905
502,648.9218221127006
503,649.1142777789203
504,649.304746135642
505,649.4888280958886
506,649.6623749536758
507,649.8218497719353
508,649.9646771792335
509,650.0895409555285
510,650.196575717943
511,650.2873986414543
512,650.364944297175
513,650.4331077546908
514,650.4962619598126
515,650.5587630154473
516,650.6245570510662
517,650.6969532351821
518,650.7785610056657
519,650.8713394086218
520,650.9766855907885
521,651.0954955263617
522,651.228155911417
523,651.3744622690875
524,651.5334949693918
525,651.7035140931517
526,651.8819441790005
527,652.065498302148
528,652.2504421966428
529,652.4329487305098
530,652.6094651179324
531,652.7770177849854
532,652.9334098608048
533,653.0773095324216
534,653.2082560706726
535,653.3266055059764
536,653.4334157505436
537,653.5302666440989
538,653.6190363819063
539,653.7016867207714
540,653.780110068453
541,653.856054800212
542,653.9311000648167
543,654.0066340170556
544,654.0838077652611
545,654.1634699522259
546,654.2461080727163
547,654.331819605828
548,654.4203158236252
549,654.5109463837182
550,654.6027355344576
551,654.6944279168781
552,654.7845422482735
553,654.8714334921201
554,654.9533736460535
555,655.0286640303855
556,655.0957767750356
557,655.1534993336002
558,655.2010410742213
559,655.2380648118922
560,655.2646283054206
561,655.2810561351436
562,655.2877977603838
563,655.2853388128062
564,655.2742046130339
565,655.2550464591906
566,655.2287700141821
567,655.1966641177047
568,655.1604983152009
569,655.1225600113479
570,655.0856014914293
571,655.0526784799298
572,655.0268916984002
573,655.0110800065095
574,655.0075369300101
575,655.0178154370727
576,655.0426508357955
577,655.0819908552211
578,655.1351016690887
579,655.2007249944415
580,655.2772738480716
581,655.363050089638
582,655.4564479484076
583,655.5560961392163
584,655.6608988385331
585,655.7699566337354
586,655.8823785561686
587,655.9970381553381
588,656.1123665425913
589,656.2262815350259
590,656.3363091766768
591,656.4398837760829
592,656.5347539452833
593,656.619399189844
594,656.6933738434659
595,656.7575292591196
596,656.8141052897854
597,656.8667096510679
598,656.9202045198124
599,656.9804993369129
600,657.0542320603444
601,657.1483272181991
602,657.2694434483689
603,657.4233496190361
604,657.6142863970053
605,657.8443750230484
606,658.11313305567
607,658.4171625648227
608,658.7500873393332
609,659.1028047949289
610,659.4640673755732
611,659.8213363680991
612,660.1617986009035
613,660.4734235501506
614,660.7459459443814
615,660.9716627255373
616,661.1459425372801
617,661.2673864310561
618,661.3376466073618
619,661.3609693606942
620,661.3435526099323
621,661.2928085848401
622,661.2166205892457
623,661.1226764139229
624,661.0179358964564
625,660.9082552136634
626,660.7981675830968
627,660.6908108232756
628,660.5879811873056
629,660.4902764942375
630,660.39728385641
631,660.3077791794933
632,660.2199318638972
633,660.1315305388425
634,660.040245187042
635,659.9439170000718
636,659.8408409964667
637,659.7299967359784
638,659.6111904150484
639,659.4850915823488
640,659.3531729099512
641,659.2175779659422
642,659.0809389705324
643,658.9461519926911
644,658.8161071342796
645,658.6933721514897
646,658.5798389494232
647,658.4763633697041
648,658.3824550780166
649,658.2960931171017
650,658.213738371278
651,658.1305802977693
652,658.0410042844616
653,657.939222798072
654,657.8199912452086
655,657.679319394527
656,657.5150804119653
657,657.3274172435746
658,657.1188645128253
659,656.8941513138323
660,656.659718703842
661,656.423050742367
662,656.1919501075923
663,655.9738725683281
664,655.7753796681112
665,655.6017141548357
666,655.4564844769586
667,655.3414590425833
668,655.25648336693
669,655.1995273077749
670,655.1668600921348
671,655.1533503209151
672,655.152885972212
673,655.1588914475419
674,655.1648927244212
675,655.1650671688973
676,655.1547141648283
677,655.130585853781
678,655.0910261297472
679,655.035894667183
680,654.9663037278059
681,654.8842501097407
682,654.7922526507424
683,654.6930860661835
684,654.5896435177608
685,654.4848983696705
686,654.3819002902289
687,654.28373748863
688,654.1934184228007
689,654.1136652413174
690,654.046649198889
691,653.9937130123997
692,653.9551218210412
693,653.9298874472781
694,653.9157182234032
695,653.9091320033397
696,653.9057269101809
697,653.900560230993
698,653.8885711025696
699,653.8650009765528
700,653.8257925500643
701,653.7679561883523
702,653.6898812154897
703,653.591556379822
704,653.474662473043
705,653.3425095829537
706,653.1998099765528
707,653.0523062047131
708,652.9063017789449
709,652.7681481793535
710,652.6437261379216
711,652.5379465692081
712,652.4543065334333
713,652.3945580595317
714,652.3585551958639
715,652.3443201266689
716,652.3483219339025
717,652.3659172017368
718,652.3918771347988
719,652.4209235494957
720,652.4482139623508
721,652.4697442237662
722,652.4826552987387
723,652.4854297369371
724,652.4779588224743
725,652.4614713587864
726,652.438335853396
727,652.4117621961407
728,652.3854291039444
729,652.3630580971223
730,652.3479555143876
731,652.3425570794083
732,652.3480333590164
733,652.3640353951091
734,652.388655256157
735,652.4186360348898
736,652.4498045547704
737,652.4776448681887
738,652.4979030151544
739,652.5071173860891
740,652.5029916592151
741,652.4845586751472
742,652.4521265056514
743,652.4070488098513
744,652.3513995113277
745,652.2876384978584
746,652.2183315686943
747,652.1459503439323
748,652.0727477995136
749,652.0006976082045
750,651.9314940191595
751,651.8666088941711
752,651.8073788939283
753,651.7550631185856
754,651.7108026172051
755,651.6754505146735
756,651.64931277023
757,651.6319016208779
758,651.6218153521553
759,651.6168099732471
760,651.6140507367214
761,651.6104722543389
762,651.6031564717778
763,651.5896408585712
764,651.5680862075112
765,651.5372813425718
766,651.4965323877244
767,651.4455274311412
768,651.3842529171399
769,651.3129897352262
770,651.232372822328
771,651.1434710393746
772,651.047833877504
773,650.9474639377645
774,650.8447095448433
775,650.742109249241
776,650.6422292403353
777,650.5475110478294
778,650.4601223437924
779,650.381808345156
780,650.3137638282604
781,650.2565532435915
782,650.2100919221314
783,650.1736849817638
784,650.146113267325
785,650.1257503135846
786,650.110690645243
787,650.0988807432434
788,650.0882679725856
789,650.076992896747
790,650.0636266861658
791,650.0474094806058
792,650.0284099443502
793,650.0075303308512
794,649.9863301670935
795,649.9667076654815
796,649.9505239722351
797,649.9392638406885
798,649.9338012072031
799,649.9342943099829
800,649.9401943703328
801,649.9503337421545
802,649.9630664095528
803,649.9764526826596
804,649.9884939181387
805,649.9974185363319
806,650.0019946805413
807,650.0018137794139
808,649.9974791022482
809,649.9906546024602
810,649.983968946342
811,649.9808076408278
812,649.9850459341629
813,650.0007663716449
814,650.0319757326739
815,650.0823125807991
816,650.1547368914245
817,650.2512116696498
818,650.3724061335308
819,650.5174587919777
820,650.6838352959783
821,650.8673075560652
822,651.0620740107867
823,651.2610346283675
824,651.4562222796208
825,651.6393720390151
826,651.8025832837643
827,651.9390000820616
828,652.0434139343911
829,652.1126956215085
830,652.1459950840646
831,652.1446952931296
832,652.1121497104722
833,652.0532674280727
834,651.9740323109648
835,651.8810406918516
836,651.7811119061845
837,651.6809853517884
838,651.5870891987073
839,651.5053520981777
840,651.4410195831571
841,651.3984290329611
842,651.380705400555
843,651.3893799725179
844,651.4239970400957
845,651.481821362647
846,651.5577612272746
847,651.6445822277846
848,651.7334318356681
849,651.8146389917188
850,651.8786979957868
851,651.9173021483886
852,651.9242769935483
853,651.8962795718857
854,651.8331674750301
855,651.7379858007971
856,651.6165638921608
857,651.4767623970673
858,651.3274752264706
859,651.1775580997252
860,651.0348843130226
861,650.9056892143623
862,650.794273772007
863,650.7030377270709
864,650.6327367318978
865,650.5828246355485
866,650.5517651446054
867,650.5372652239819
868,650.5364507683714
869,650.5460320571931
870,650.5624919969636
871,650.5823012860548
872,650.6021424828639
873,650.6191167676328
874,650.6309143214961
875,650.6359482236369
876,650.6334715293019
877,650.6237004700658
878,650.6079429414322
879,650.5886928121798
880,650.569622421625
881,650.5554027272497
882,650.551307530436
883,650.5626144789139
884,650.5938823265201
885,650.6482286555901
886,650.7267374456379
887,650.8280998454399
888,650.9485526470716
889,651.0821367233076
890,651.2212483645717
891,651.3574011456708
892,651.4820763524964
893,651.587539265124
894,651.6675317189972
895,651.7177918960044
896,651.7363828182748
897,651.7238320868879
898,651.6830973143899
899,651.6193657921679
900,651.5396777276488
901,651.4523598423176
902,651.3662906486813
903,651.2900691770233
904,651.2311887341111
905,651.1953166803027
906,651.1857647135212
907,651.2032122236825
908,651.2457180904853
909,651.309024405801
910,651.3871200920725
911,651.4729924832467
912,651.5594568011343
913,651.6399345768816
914,651.7090692076366
915,651.7631181044646
916,651.8001212894378
917,651.8198878740718
