frame_number,force
0,859.5233431993328
1,859.4576023110387
2,859.394537981021
3,859.3346369586199
4,859.2784032462159
5,859.2263560863415
6,859.179027814712
7,859.1369615820023
8,859.1007089485912
9,859.0708273585086
10,859.0478775014615
11,859.0324205750067
12,859.0250154621816
13,859.0262158425227
14,859.036567256164
15,859.0566041418888
16,859.0868468708759
17,859.1277987982681
18,859.179943354194
19,859.2437411946512
20,859.3196274317958
21,859.4080089636734
22,859.5092619248729
23,859.623729280449
24,859.7517185846143
25,859.893499923382
26,860.0493040576648
27,860.2193207812867
28,860.4036975071161
29,860.602538093615
30,860.815901922725
31,861.0438032376752
32,861.2862107462361
33,861.5430474920964
34,861.8141909953116
35,862.0994736621864
36,862.3986834646131
37,862.7115648879244
38,863.0378201445342
39,863.3771106479088
40,863.7290587374348
41,864.0932496398265
42,864.469233648016
43,864.8565284951243
44,865.2546218993975
45,865.6629742554037
46,866.0810214468397
47,866.5081777570327
48,866.9438388546811
49,867.3873848341285
50,867.8381832906907
51,868.2955924117014
52,868.7589640631943
53,869.227646851156
54,869.7009891356162
55,870.1783419755936
56,870.6590619830113
57,871.1425140641776
58,871.6280740283657
59,872.1151310443026
60,872.6030899269925
61,873.0913732395804
62,873.5794231980483
63,874.066703369663
64,874.5527001582794
65,875.0369240708405
66,875.5189107604059
67,875.998221842163
68,876.4744454801079
69,876.947196743828
70,877.4161177376872
71,877.8808775086297
72,878.3411717427591
73,878.7967222634901
74,879.2472763449787
75,879.6926058543432
76,880.1325062359507
77,880.5667953511922
78,880.9953121875167
79,881.4179154508893
80,881.8344820563268
81,882.2449055314069
82,882.6490943472095
83,883.04697019026
84,883.438466188612
85,883.8235251058431
86,884.2020975181803
87,884.5741399914535
88,884.9396132754
89,885.2984805326381
90,885.6507056185465
91,885.9962514266954
92,886.335078312708
93,886.6671426075161
94,886.9923952288362
95,887.3107803974211
96,887.6222344625497
97,887.926684839866
98,888.2240490646368
99,888.5142339647159
100,888.7971349590691
101,889.0726354885807
102,889.3406065856367
103,889.6009065882107
104,889.8533810037684
105,890.0978625286348
106,890.3341712288427
107,890.56211488795
108,890.7814895255938
109,890.9920800879592
110,891.1936613082715
111,891.3859987322576
112,891.5688499006899
113,891.7419656791226
114,891.9050917239068
115,892.0579700732201
116,892.2003408516925
117,892.3319440771807
118,892.4525215582757
119,892.5618188708173
120,892.6595874006689
121,892.7455864387945
122,892.8195853140646
123,892.8813655495106
124,892.9307230283935
125,892.9674701566403
126,892.9914380075779
127,893.0024784338723
128,893.0004661307216
129,892.9853006337746
130,892.9569082348288
131,892.9152437980539
132,892.8602924592669
133,892.7920711907633
134,892.7106302144043
135,892.6160542456608
136,892.5084635507818
137,892.388014798854
138,892.2549016915219
139,892.1093553560028
140,891.9516444909066
141,891.7820752580693
142,891.600990916736
143,891.4087711994513
144,891.2058314323032
145,890.992621405487
146,890.7696240029281
147,890.5373536016634
148,890.2963542530233
149,890.0471976588743
150,889.7904809575883
151,889.5268243360227
152,889.2568684854241
153,888.9812719206266
154,888.7007081830629
155,888.4158629488704
156,888.1274310638139
157,887.8361135270234
158,887.5426144456632
159,887.2476379825536
160,886.9518853184024
161,886.656051649589
162,886.3608232414327
163,886.0668745559051
164,885.7748654720561
165,885.4854386168041
166,885.1992168226936
167,884.9168007274192
168,884.6387665275174
169,884.3656638962187
170,884.0980140736186
171,883.8363081364258
172,883.5810054545426
173,883.3325323419917
174,883.0912809091282
175,882.8576081210704
176,882.631835064431
177,882.4142464217573
178,882.2050901508909
179,882.0045773642883
180,881.8128824009667
181,881.630143081425
182,881.4564611338592
183,881.2919027782966
184,881.1364994541523
185,880.9902486765208
186,880.85311500716
187,880.7250311272003
188,880.6058989998503
189,880.4955911125096
190,880.3939517884161
191,880.3007985583675
192,880.2159235838272
193,880.1390951241677
194,880.0700590423077
195,880.0085403435845
196,879.9542447419401
197,879.9068602454433
198,879.866058750472
199,879.8314976316622
200,879.8028213141035
201,879.7796628154332
202,879.7616452476879
203,879.7483832707848
204,879.7394844905592
205,879.7345507946728
206,879.7331796204785
207,879.7349651507778
208,879.7394994358108
209,879.7463734414699
210,879.7551780240325
211,879.7655048313742
212,879.7769471308204
213,879.7891005649886
214,879.8015638390453
215,879.8139393454064
216,879.8258337345013
217,879.8368584420741
218,879.8466301842927
219,879.8547714321969
220,879.8609108774356
221,879.864683901684
222,879.8657330615242
223,879.8637085981238
224,879.8582689772737
225,879.8490814616569
226,879.8358227147464
227,879.8181794347183
228,879.7958490168313
229,879.7685402433377
230,879.7359740006397
231,879.6978840236544
232,879.6540176669633
233,879.6041367015043
234,879.5480181348316
235,879.4854550527174
236,879.4162574799802
237,879.3402532582528
238,879.2572889372519
239,879.1672306737478
240,879.0699651292618
241,878.9654003546066
242,878.8534666478014
243,878.7341173719316
244,878.6073297203654
245,878.4731054174626
246,878.3314713431947
247,878.1824800701247
248,878.0262103010183
249,877.8627671951357
250,877.6922825716129
251,877.5149149798183
252,877.3308496288198
253,877.1402981702701
254,876.9434983304941
255,876.7407133881323
256,876.5322314936819
257,876.3183648276316
258,876.0994485955988
259,875.8758398620948
260,875.6479162283443
261,875.4160743627854
262,875.1807283949582
263,874.942308184708
264,874.7012574793706
265,874.4580319719763
266,874.2130972732601
267,873.9669268094184
268,873.7199996567535
269,873.4727983244396
270,873.2258064977594
271,872.9795067557045
272,872.7343782779849
273,872.49089455681
274,872.2495211284134
275,872.0107133389243
276,871.7749141593339
277,871.5425520647718
278,871.3140389937083
279,871.0897684030359
280,870.8701134352467
281,870.6554252138615
282,870.4460312826477
283,870.2422342027941
284,870.0443103201233
285,869.8525087121436
286,869.6670503229898
287,869.4881272932015
288,869.3159024903262
289,869.1505092449145
290,868.9920512943723
291,868.8406029345289
292,868.6962093761564
293,868.5588873012136
294,868.4286256110433
295,868.3053863560671
296,868.1891058340354
297,868.0796958419595
298,867.9770450655011
299,867.8810205888359
300,867.7914695080398
301,867.7082206317766
302,867.6310862535611
303,867.5598639792572
304,867.4943385921506
305,867.4342839371412
306,867.3794648060834
307,867.3296388077364
308,867.2845582073339
309,867.2439717217333
310,867.2076262560661
311,867.1752685668251
312,867.1466468350277
313,867.1215121325837
314,867.0996197660377
315,867.0807304845474
316,867.0646115429337
317,867.0510376151828
318,867.0397915580031
319,867.0306650272186
320,867.0234589518617
321,867.0179838723001
322,867.0140601501944
323,867.0115180596504
324,867.0101977702294
325,867.0099492332298
326,867.0106319828636
327,867.0121148637468
328,867.0142756955486
329,867.0170008848075
330,867.0201849930318
331,867.0237302693741
332,867.0275461554795
333,867.0315487696267
334,867.0356603771696
335,867.0398088546318
336,867.0439271555507
337,867.0479527868199
338,867.0518273043075
339,867.0554958360005
340,867.0589066403116
341,867.0620107064549
342,867.0647614024945
343,867.067114174857
344,867.0690263015166
345,867.0704566999833
346,867.0713657901888
347,867.0717154111974
348,867.071468789912
349,867.0705905598468
350,867.0690468280751
351,867.0668052881484
352,867.0638353764208
353,867.0601084693652
354,867.0555981200494
355,867.0502803324354
356,867.0441338724394
357,867.0371406149521
358,867.0292859261613
359,867.020559079853
360,867.0109537044017
361,867.0004682541356
362,866.9891064956968
363,866.976877997958
364,866.9637986135448
365,866.9498909408978
366,866.9351847575454
367,866.9197174170573
368,866.9035342036128
369,866.8866886393845
370,866.8692427414718
371,866.8512672270107
372,866.8328416667077
373,866.8140545874464
374,866.7950035232914
375,866.7757950116777
376,866.7565445291
377,866.7373763594501
378,866.7184233885897
379,866.6998268201105
380,866.6817358086655
381,866.6643070083699
382,866.6477040348437
383,866.6320968410116
384,866.6176610088565
385,866.6045769613345
386,866.5930290999509
387,866.5832048741393
388,866.5752937890779
389,866.5694863590237
390,866.5659730131271
391,866.5649429596797
392,866.5665830134903
393,866.5710763907053
394,866.5786014761616
395,866.5893305694783
396,866.6034286169305
397,866.6210519370684
398,866.6423469497113
399,866.667448920063
400,866.6964807312306
401,866.7295516988413
402,866.7667564409923
403,866.8081738158089
404,866.8538659378461
405,866.9038772840995
406,866.9582339005001
407,867.0169427194447
408,867.0799909972407
409,867.1473458776399
410,867.2189540851646
411,867.2947417505201
412,867.3746143698576
413,867.4584568992213
414,867.546133984611
415,867.6374903265252
416,867.7323511757852
417,867.8305229552394
418,867.9317939999596
419,868.0359354068474
420,868.142701983227
421,868.2518332831744
422,868.3630547202685
423,868.4760787462143
424,868.5906060861497
425,868.7063270228862
426,868.8229227232816
427,868.9400666000502
428,869.0574257017494
429,869.1746621229636
430,869.2914344262305
431,869.4073990671365
432,869.5222118142896
433,869.6355291566881
434,869.7470096923176
435,869.8563154933033
436,869.9631134442187
437,870.0670765510451
438,870.167885218676
439,870.2652284944851
440,870.3588052742045
441,870.448325464832
442,870.5335110985396
443,870.6140973920551
444,870.6898337471893
445,870.7604846892979
446,870.8258307412553
447,870.8856692312717
448,870.9398150337494
449,870.9881012431077
450,871.0303797808447
451,871.0665219363152
452,871.0964188424044
453,871.1199818885326
454,871.1371430743991
455,871.1478553076959
456,871.1520926478499
457,871.1498504965384
458,871.1411457348181
459,871.1260168062041
460,871.1045237446478
461,871.0767481458385
462,871.0427930795014
463,871.0027829396562
464,870.9568632295396
465,870.90520027821
466,870.8479808864936
467,870.7854119006312
468,870.7177197125588
469,870.6451496862594
470,870.5679655104502
471,870.4864484793885
472,870.4008967055453
473,870.3116242693659
474,870.2189603112387
475,870.1232480689525
476,870.0248438613414
477,869.9241160169316
478,869.8214437461156
479,869.7172159566422
480,869.6118300144518
481,869.5056904542664
482,869.3992076459517
483,869.2927964229502
484,869.1868746785232
485,869.0818619352677
486,868.9781778939588
487,868.8762409687567
488,868.7764668166205
489,868.6792668692128
490,868.5850468758881
491,868.4942054666794
492,868.4071327442718
493,868.324208913051
494,868.2458029511532
495,868.1722713286284
496,868.1039567723651
497,868.0411870769552
498,867.9842739605123
499,867.9335119655854
500,867.8891774072938
501,867.8515273726881
502,867.8207987760827
503,867.7972074744258
504,867.7809474455875
505,867.7721900318594
506,867.7710832511294
507,867.7777511784801
508,867.7922934010093
509,867.8147845487545
510,867.8452739050017
511,867.8837850997563
512,867.930315890391
513,867.9848380333287
514,868.0472972500601
515,868.117613289708
516,868.1956800888157
517,868.2813660275953
518,868.3745142813553
519,868.4749432666348
520,868.5824471831796
521,868.6967966540947
522,868.8177394662974
523,868.9450014118861
524,869.0782872289326
525,869.2172816380906
526,869.3616504695071
527,869.5110418731743
528,869.6650876053411
529,869.8234043835881
530,869.9855953030547
531,870.1512513060522
532,870.3199526972923
533,870.4912706970564
534,870.6647690242692
535,870.8400055004597
536,871.0165336648104
537,871.193904390769
538,871.371667495996
539,871.5493733388932
540,871.7265743959349
541,871.9028268144478
542,872.0776919357886
543,872.250737784301
544,872.4215405178111
545,872.5896858352988
546,872.7547703366274
547,872.9164028281004
548,873.0742055668036
549,873.2278154368047
550,873.3768850512512
551,873.5210837753443
552,873.6600986654902
553,873.7936353198968
554,873.921418636069
555,874.0431934709836
556,874.1587251998064
557,874.267800168938
558,874.3702260397092
559,874.465832020796
560,874.5544689901245
561,874.6360095097024
562,874.7103477386412
563,874.7773992505454
564,874.837100761873
565,874.889409778041
566,874.9343041636913
567,874.9717816424377
568,875.001859230103
569,875.0245726047013
570,875.0399754162453
571,875.0481385392678
572,875.0491492705429
573,875.0431104745095
574,875.0301396798045
575,875.0103681315843
576,874.9839398051159
577,874.95101038631
578,874.9117462250218
579,874.8663232676668
580,874.8149259770522
581,874.7577462487505
582,874.6949823341578
583,874.6268377804893
584,874.553520397886
585,874.4752412641204
586,874.392213777979
587,874.304652772649
588,874.2127736998556
589,874.1167918939093
590,874.0169219222325
591,873.9133770255867
592,873.8063686476988
593,873.6961060510157
594,873.5827960133138
595,873.4666425987639
596,873.3478469964512
597,873.2266074194623
598,873.1031190588052
599,872.9775740882823
600,872.8501617181843
601,872.7210682968209
602,872.5904774595504
603,872.4585703252695
604,872.325525740109
605,872.1915205669974
606,872.0567300177717
607,871.9213280219407
608,871.7854876235344
609,871.6493813952867
610,871.513181858252
611,871.3770618948304
612,871.2411951433979
613,871.1057563628294
614,870.9709217553916
615,870.8368692372557
616,870.7037786471261
617,870.5718318846441
618,870.4412129710926
619,870.3121080258047
620,870.1847051527182
621,870.0591942326596
622,869.9357666182393
623,869.8146147298053
624,869.6959315527628
625,869.5799100386314
626,869.4667424142672
627,869.356619405373
628,869.2497293817999
629,869.146257433634
630,869.0463843887625
631,868.9502857840844
632,868.8581308034211
633,868.7700811955203
634,868.6862901854349
635,868.6069013921239
636,868.5320477644916
637,868.4618505470888
638,868.3964182850414
639,868.3358458757806
640,868.2802136737643
641,868.2295866541502
642,868.1840136418408
643,868.1435266126022
644,868.1081400728292
645,868.0778505244509
646,868.0526360218378
647,868.032455827921
648,868.0172501762498
649,868.0069401443182
650,868.0014276419105
651,868.0005955169752
652,868.0043077805036
653,868.0124099509785
654,868.0247295184372
655,868.0410765282194
656,868.0612442844468
657,868.0850101721085
658,868.1121365938517
659,868.1423720140872
660,868.1754521002135
661,868.2111009492767
662,868.2490323879684
663,868.2889513342491
664,868.3305552098378
665,868.3735353937675
666,868.4175787076117
667,868.4623689230308
668,868.5075882826033
669,868.552919025756
670,868.5980449125336
671,868.6426527383495
672,868.6864338326715
673,868.7290855343807
674,868.7703126367221
675,868.8098287949346
676,868.847357889035
677,868.8826353328061
678,868.91540931856
679,868.945441986485
680,868.9725105076496
681,868.9964080707654
682,869.0169447638717
683,869.033948342949
684,869.0472648806023
685,869.056759289948
686,869.0623157214754
687,869.0638378331688
688,869.0612489356473
689,869.0544920141546
690,869.0435296286481
691,869.0283436933589
692,869.0089351387045
693,868.9853234608365
694,868.9575461664624
695,868.9256581225684
696,868.8897308224002
697,868.8498515803713
698,868.8061226690381
699,868.7586604106082
700,868.707594233833
701,868.6530657052322
702,868.5952275418755
703,868.5342426114289
704,868.4702829238344
705,868.4035286182042
706,868.3341669485584
707,868.2623912727208
708,868.1884000495992
709,868.1123958508299
710,868.034584393181
711,867.9551735982096
712,867.8743726855844
713,867.7923913063065
714,867.7094387220228
715,867.6257230369779
716,867.5414504898242
717,867.4568248129298
718,867.3720466665675
719,867.287313154505
720,867.202817426246
721,867.1187483695733
722,867.0352903950524
723,866.9526233117316
724,866.8709222903916
725,866.7903579074546
726,866.7110962594643
727,866.6332991355913
728,866.5571242344267
729,866.4827254113018
730,866.4102529431589
731,866.3398537993172
732,866.2716719080802
733,866.2058484107679
734,866.1425218962793
735,866.0818286105572
736,866.0239026363091
737,865.9688760394512
738,865.9168789804785
739,865.8680397908392
740,865.8224850151838
741,865.7803394195582
742,865.7417259638767
743,865.706765735277
744,865.6755778376338
745,865.6482792317859
746,865.6249845213447
747,865.6058056805309
748,865.5908517229552
749,865.5802283128891
750,865.5740373227169
751,865.5723763414742
752,865.5753381396232
753,865.5830100950759
754,865.5954735853607
755,865.612803350372
756,865.6350668288728
757,865.662323470301
758,865.6946240225991
759,865.7320097974707
760,865.7745119165141
761,865.8221505443161
762,865.874934116911
763,865.9328585754879
764,865.9959066158527
765,866.06404696437
766,866.1372336912339
767,866.2154055721545
768,866.2984855099071
769,866.3863800272906
770,866.4789788421691
771,866.5761545331751
772,866.6777623018556
773,866.7836398341537
774,866.8936072614895
775,867.007467219839
776,867.1250050045089
777,867.2459888184782
778,867.3701701123772
779,867.497284013913
780,867.6270498440825
781,867.7591717172863
782,867.8933392226388
783,868.029228184393
784,868.1665015002628
785,868.304810057001
786,868.4437937223565
787,868.5830824115319
788,868.7222972250086
789,868.8610516537576
790,868.998952847953
791,869.1356029465001
792,869.2706004664814
793,869.4035417530496
794,869.5340224906083
795,869.6616392752007
796,869.7859912463623
797,869.9066817747623
798,870.0233202000161
799,870.1355236113088
800,870.2429186621051
801,870.3451434091511
802,870.4418491650703
803,870.532702353075
804,870.6173863514715
805,870.6956033143557
806,870.7670759531538
807,870.8315492621156
808,870.8887921701448
809,870.938599101366
810,870.9807914269007
811,871.0152187899101
812,871.041760285317
813,871.0603254759249
814,871.0708552287164
815,871.0733223584169
816,871.0677320687881
817,871.05412218524
818,871.0325631757812
819,871.0031579611826
820,870.9660415187071
821,870.9213802859073
822,870.869371371501
823,870.8102415798298
824,870.7442462551471
825,870.6716679530778
826,870.5928149490858
827,870.5080195965597
828,870.4176365490749
829,870.3220408623986
830,870.2216259924801
831,870.1168017065092
832,870.0079919252199
833,869.8956325155934
834,869.7801690534172
835,869.6620545746879
836,869.5417473340698
837,869.4197085879542
838,869.2964004191015
839,869.1722836192073
840,869.0478156448173
841,868.923448660662
842,868.7996276826572
843,868.6767888306675
844,868.5553576988451
845,868.435747848668
846,868.3183594263307
847,868.2035779022302
848,868.0917729271281
849,867.983297298076
850,867.878486027413
851,867.7776555096902
852,867.6811027835208
853,867.5891048870806
854,867.5019183067246
855,867.4197785183721
856,867.3428996214701
857,867.2714740653641
858,867.2056724675234
859,867.1456435227409
860,867.0915140028924
861,867.0433888479403
862,867.0013513493834
863,866.9654634262591
864,866.9357659914524
865,866.9122794038037
866,866.8950040002957
867,866.8839207024146
868,866.8789916910625
869,866.8801611447144
870,866.8873560357613
871,866.9004869800208
872,866.9194491338594
873,866.9441231323389
874,866.9743760610331
875,867.0100624541865
876,867.0510253122492
877,867.097097131957
878,867.1481009422031
879,867.2038513394358
880,867.2641555170596
881,867.3288142838741
882,867.3976230669504
883,867.4703728949667
884,867.5468513590015
885,867.6268435484421
886,867.7101329590892
887,867.7965023685238
888,867.885734671153
889,867.9776136632717
890,868.071924767723
891,868.1684556883615
892,868.2669969860078
893,868.3673425692617
894,868.4692900949962
895,868.572641274774
896,868.6772020851275
897,868.7827828814649
898,868.8891984170518
899,868.9962677703644
900,869.1038141865437
901,869.2116648414819
902,869.319650539564
903,869.4276053578284
904,869.5353662502309
905,869.6427726260013
906,869.7496659160435
907,869.8558891408345
908,869.9612864919598
909,870.0657029373557
910,870.1689838582446
911,870.2709747243877
912,870.3715208137722
913,870.4704669827056
914,870.567657491846
915,870.6629358927597
916,870.7561449786701
917,870.8471268028179
