frame_number,force
0,859.3685526301857
1,859.3158397755806
2,859.2667912989594
3,859.2218159698258
4,859.1813327686755
5,859.145769296361
6,859.1155601026247
7,859.0911449382843
8,859.0729669363059
9,859.0614707280238
10,859.0571005020562
11,859.0602980149877
12,859.0715005644273
13,859.0911389362647
14,859.1196353387531
15,859.1574013365645
16,859.2048357983097
17,859.2623228711235
18,859.330229995591
19,859.4089059736161
20,859.4986791012992
21,859.5998553789731
22,859.7127168110424
23,859.8375198084889
24,859.9744937063165
25,860.1238394069217
26,860.2857281589148
27,860.4603004797275
28,860.6476652295233
29,860.8478988432449
30,861.0610447267335
31,861.2871128215097
32,861.5260793411185
33,861.7778866803502
34,862.0424434975819
35,862.3196249699338
36,862.6092732205218
37,862.9111979163698
38,863.2251770344717
39,863.5509577919881
40,863.8882577344859
41,864.2367659736318
42,864.5961445633717
43,864.9660300018861
44,865.346034845645
45,865.7357494214506
46,866.1347436222419
47,866.5425687726539
48,866.9587595508946
49,867.3828359542324
50,867.8143052958923
51,868.2526642211893
52,868.6974007303642
53,869.1479961951364
54,869.6039273557096
55,870.0646682848939
56,870.5296923061253
57,870.9984738524728
58,871.4704902542636
59,871.9452234436758
60,872.4221615655346
61,872.9008004847672
62,873.3806451825704
63,873.8612110349765
64,874.3420249687215
65,874.8226264900952
66,875.3025685831383
67,875.7814184742944
68,876.2587582614319
69,876.7341854061958
70,877.2073130902105
71,877.6777704377147
72,878.145202609263
73,878.6092707725911
74,879.0696519573896
75,879.5260388008749
76,879.9781391911441
77,880.4256758155888
78,880.8683856219875
79,881.3060192002806
80,881.7383400934152
81,882.1651240459225
82,882.5861581988298
83,883.0012402392229
84,883.4101775126774
85,883.8127861071686
86,884.2088899177975
87,884.5983197024138
88,884.9809121386247
89,885.3565088925982
90,885.7249557095611
91,886.0861015351308
92,886.4397976757577
93,886.7858970056037
94,887.124253226111
95,887.4547201833708
96,887.7771512473103
97,888.0913987559676
98,888.397313527953
99,888.6947444465992
100,888.9835381198568
101,889.2635386202056
102,889.5345873085591
103,889.7965227455784
104,890.0491806934209
105,890.2923942108844
106,890.5259938448634
107,890.749807920575
108,890.9636629319998
109,891.167384032564
110,891.3607956244632
111,891.5437220433545
112,891.7159883336296
113,891.8774211083673
114,892.0278494873978
115,892.1671061065774
116,892.2950281911374
117,892.4114586858027
118,892.5162474342629
119,892.6092524003025
120,892.6903409223296
121,892.7593909923868
122,892.8162925503767
123,892.8609487843182
124,892.8932774277108
125,892.9132120451569
126,892.920703297109
127,892.9157201741568
128,892.898251190915
129,892.8683055293662
130,892.8259141214007
131,892.7711306602436
132,892.704032530479
133,892.6247216464992
134,892.5333251894373
135,892.4299962328092
136,892.3149142470168
137,892.1882854728636
138,892.0503431548962
139,891.901347626913
140,891.7415862439951
141,891.5713731573385
142,891.3910489298453
143,891.2009799920584
144,891.0015579397755
145,890.7931986764538
146,890.5763414050222
147,890.3514474748647
148,890.1189990905827
149,889.8794978899263
150,889.6334633991553
151,889.381431375043
152,889.1239520436817
153,888.8615882471174
154,888.5949135095416
155,888.3245100352842
156,888.0509666512025
157,887.7748767063221
158,887.496835941761
159,887.2174403440218
160,886.9372839946553
161,886.6569569290394
162,886.3770430165985
163,886.0981178743727
164,885.8207468255476
165,885.5454829142598
166,885.2728649875032
167,885.003415854085
168,884.7376405294202
169,884.4760245737766
170,884.2190325306533
171,883.967106471462
172,883.7206646525689
173,883.4801002907508
174,883.2457804627219
175,883.0180451333118
176,882.7972063154041
177,882.5835473633423
178,882.377322400327
179,882.1787558791397
180,881.9880422742531
181,881.8053459021246
182,881.6308008653389
183,881.4645111152917
184,881.306550627392
185,881.1569636824744
186,881.0157652482193
187,880.8829414546823
188,880.7584501584181
189,880.6422215900225
190,880.5341590800671
191,880.434139858418
192,880.3420159221106
193,880.2576149674604
194,880.1807413826251
195,880.1111772969583
196,880.0486836829964
197,879.9930015058409
198,879.9438529133257
199,879.9009424592225
200,879.8639583513366
201,879.8325737167971
202,879.8064478777718
203,879.785227631693
204,879.7685485305026
205,879.7560361535388
206,879.7473073689953
207,879.741971579697
208,879.7396319500187
209,879.7398866115063
210,879.7423298448847
211,879.7465532359818
212,879.7521468031795
213,879.7587000945662
214,879.7658032539352
215,879.773048056001
216,879.7800289124267
217,879.7863438511503
218,879.7915954719017
219,879.795391880973
220,879.7973476085452
221,879.797084512138
222,879.7942326695255
223,879.7884312634013
224,879.7793294583978
225,879.7665872694377
226,879.7498764193316
227,879.7288811831531
228,879.7032992170377
229,879.672842369432
230,879.6372374732143
231,879.5962271173221
232,879.5495703964469
233,879.4970436370851
234,879.4384410980085
235,879.3735756432147
236,879.3022793855805
237,879.2244042994882
238,879.1398228002839
239,879.048428287456
240,878.950135647089
241,878.8448817079264
242,878.7326256447801
243,878.6133493231704
244,878.4870575796073
245,878.3537784323894
246,878.2135632180654
247,878.0664866488491
248,877.912646786335
249,877.7521649268863
250,877.585185394374
251,877.4118752367456
252,877.2324238240792
253,877.0470423469015
254,876.8559632143493
255,876.6594393521339
256,876.4577434003705
257,876.2511668116061
258,876.0400188502618
259,875.8246254962909
260,875.6053282576856
261,875.3824828980256
262,875.1564580862864
263,874.9276339767457
264,874.696400727219
265,874.4631569640601
266,874.2283082022733
267,873.9922652287136
268,873.7554424559821
269,873.5182562546622
270,873.2811232720439
271,873.0444587461623
272,872.8086748244741
273,872.5741788965926
274,872.3413719502554
275,872.1106469594586
276,871.8823873136758
277,871.6569652972026
278,871.4347406277483
279,871.2160590634446
280,871.001251087442
281,870.7906306791058
282,870.5844941804077
283,870.3831192653316
284,870.1867640190063
285,869.9956661320673
286,869.8100422147912
287,869.6300872348803
288,869.455974082165
289,869.2878532626855
290,869.1258527234774
291,868.9700778080237
292,868.8206113409697
293,868.677513839402
294,868.5408238466727
295,868.4105583833594
296,868.2867135086699
297,868.1692649845677
298,868.0581690341551
299,867.9533631853704
300,867.8547671909749
301,867.7622840160327
302,867.6758008842276
303,867.5951903740004
304,867.5203115548031
305,867.4510111533439
306,867.387124739867
307,867.3284779251364
308,867.2748875594752
309,867.2261629256377
310,867.182106917261
311,867.1425171941901
312,867.1071873053812
313,867.075907769871
314,867.0484671068059
315,867.0246528068127
316,867.0042522388682
317,866.9870534889752
318,866.9728461289632
319,866.961421915261
320,866.9525754185219
321,866.9461045857272
322,866.9418112371511
323,866.9395015013629
324,866.9389861921298
325,866.9400811315033
326,866.942607423554
327,866.9463916832044
328,866.9512662244217
329,866.9570692117244
330,866.9636447786219
331,866.9708431162949
332,866.9785205355734
333,866.9865395051215
334,866.9947686687437
335,867.0030828449418
336,867.0113630122617
337,867.0194962843119
338,867.0273758783991
339,867.0349010815193
340,867.0419772172023
341,867.0485156163958
342,867.0544335950015
343,867.0596544398678
344,867.0641074043219
345,867.0677277138477
346,867.070456582045
347,867.0722412364804
348,867.0730349536894
349,867.0727971025512
350,867.0714931952749
351,867.0690949450926
352,867.065580329584
353,867.0609336586251
354,867.0551456462259
355,867.0482134857427
356,867.0401409280755
357,867.0309383625869
358,867.0206229005418
359,867.0092184605611
360,866.9967558546822
361,866.9832728722282
362,866.9688143572763
363,866.953432274581
364,866.9371857585852
365,866.9201411405835
366,866.9023719499228
367,866.8839588859887
368,866.8649897584286
369,866.8455593936811
370,866.8257695066317
371,866.8057285371221
372,866.78555145184
373,866.7653595123387
374,866.7452800093834
375,866.7254459626884
376,866.7059957840265
377,866.6870729012029
378,866.6688253406443
379,866.6514052670424
380,866.6349684792075
381,866.619673861861
382,866.6056827936443
383,866.5931585123899
384,866.5822654397143
385,866.5731684679721
386,866.5660322132514
387,866.5610202384341
388,866.5582942506118
389,866.5580132773842
390,866.560332826549
391,866.5654040332415
392,866.5733727980299
393,866.5843789192995
394,866.5985552236275
395,866.6160266983655
396,866.6369096310258
397,866.661310760476
398,866.6893264456985
399,866.7210418588127
400,866.7565302097378
401,866.7958520100142
402,866.8390543830396
403,866.88617042747
404,866.9372186399913
405,866.9922024033746
406,867.0511095456944
407,867.1139119763594
408,867.1805654037329
409,867.2510091377775
410,867.3251659799058
411,867.4029422014687
412,867.4842276119458
413,867.5688957175948
414,867.656803970778
415,867.7477941093413
416,867.8416925843436
417,867.9383110732936
418,868.0374470750095
419,868.1388845813135
420,868.2423948200277
421,868.3477370632371
422,868.4546594946362
423,868.5629001300193
424,868.6721877854882
425,868.7822430885091
426,868.8927795272891
427,869.0035045338949
428,869.1141205961823
429,869.2243263931889
430,869.3338179483474
431,869.4422897947437
432,869.5494361467221
433,869.6549520724499
434,869.7585346626171
435,869.8598841911006
436,869.9587052639768
437,870.0547079536622
438,870.1476089151303
439,870.237132480976
440,870.3230117315172
441,870.4049895354282
442,870.4828195560807
443,870.5562672190293
444,870.6251106366697
445,870.6891414866668
446,870.7481658411706
447,870.8020049442466
448,870.8504959354244
449,870.8934925176818
450,870.9308655684293
451,870.9625036922503
452,870.9883137145713
453,871.0082211161282
454,871.0221704086525
455,871.0301254522341
456,871.0320697143995
457,871.0280064704608
458,871.0179589443966
459,871.0019703894332
460,870.98010410744
461,870.9524434061541
462,870.9190914930331
463,870.8801713043506
464,870.8358252681646
465,870.7862150000745
466,870.7315209311164
467,870.6719418676068
468,870.6076944831445
469,870.5390127433475
470,870.4661472644135
471,870.3893646074198
472,870.3089465113112
473,870.2251890683252
474,870.138401845666
475,870.0489069565023
476,869.9570380822685
477,869.863139447477
478,869.7675647482057
479,869.6706760360909
480,869.5728425607655
481,869.4744395748542
482,869.3758471064383
483,869.2774487040849
484,869.1796301593199
485,869.0827782113324
486,868.9872792389946
487,868.8935179457582
488,868.8018760433638
489,868.7127309405053
490,868.6264544427215
491,868.5434114699206
492,868.4639587979415
493,868.3884438301143
494,868.317203403722
495,868.2505626349237
496,868.1888338044888
497,868.1323152859428
498,868.0812905175688
499,868.0360270201456
500,867.9967754631213
501,867.9637687826931
502,867.9372213554941
503,867.9173282311608
504,867.9042644263876
505,867.8981842826759
506,867.8992208899368
507,867.9074855781045
508,867.9230674787979
509,867.9460331589729
510,867.9764263285426
511,868.0142676240317
512,868.0595544702944
513,868.1122610221063
514,868.1723381870372
515,868.2397137303604
516,868.314292461902
517,868.3959565039276
518,868.4845656387827
519,868.5799577352411
520,868.6819492531275
521,868.7903358262053
522,868.9048929231025
523,869.025376585233
524,869.1515242395859
525,869.2830555831727
526,869.419673534944
527,869.5610652502756
528,869.7069031928007
529,869.8568462582863
530,870.0105409451322
531,870.1676225658983
532,870.3277164942175
533,870.490439441458
534,870.6554007573018
535,870.82220374794
536,870.9904470052096
537,871.1597257401262
538,871.3296331148787
539,871.4997615680504
540,871.6697041283115
541,871.8390557120644
542,872.0074144007062
543,872.1743826934317
544,872.339568731735
545,872.5025874917867
546,872.6630619405871
547,872.820624151371
548,872.9749163734543
549,873.1255920518635
550,873.2723167926346
551,873.414769270218
552,873.5526420736728
553,873.6856424884406
554,873.8134932106932
555,873.9359329915085
556,874.0527172082984
557,874.1636183609896
558,874.268426490826
559,874.3669495205932
560,874.4590135164283
561,874.5444628727299
562,874.6231604226396
563,874.6949874770958
564,874.7598437957713
565,874.8176474933781
566,874.8683348847612
567,874.9118602717873
568,874.948195674512
569,874.9773305088441
570,874.9992712129164
571,875.0140408243498
572,875.0216785104739
573,875.0222390536258
574,875.0157922941107
575,875.0024225340414
576,874.9822279056657
577,874.9553197079102
578,874.9218217149516
579,874.8818694609699
580,874.8356095058683
581,874.7831986873962
582,874.724803365479
583,874.6605986645928
584,874.5907677199608
585,874.5155009334677
586,874.4349952454288
587,874.3494534284242
588,874.2590834091021
589,874.1640976230782
590,874.0647124068092
591,873.9611474287273
592,873.853625160238
593,873.7423703857597
594,873.6276097500061
595,873.5095713401383
596,873.3884843000831
597,873.2645784743133
598,873.1380840788751
599,873.0092313982506
600,872.8782505074096
601,872.7453710188903
602,872.610821855012
603,872.4748310454246
604,872.3376255500676
605,872.1994311070844
606,872.0604721043001
607,871.9209714716599
608,871.7811505907798
609,871.6412292167387
610,871.5014254067104
611,871.3619554499742
612,871.2230337939485
613,871.0848729609454
614,870.9476834504424
615,870.8116736220438
616,870.6770495548997
617,870.5440148799066
618,870.4127705814486
619,870.283514765863
620,870.156442394327
621,870.0317449784234
622,869.9096102372683
623,869.7902217158451
624,869.6737583650767
625,869.5603940851532
626,869.4502972346088
627,869.3436301084571
628,869.2405483893531
629,869.1412005764599
630,869.0457273975046
631,868.9542612101991
632,868.8669253996266
633,868.7838337783521
634,868.7050899959678
635,868.6307869645743
636,868.5610063064026
637,868.4958178293015
638,868.4352790350331
639,868.3794346643685
640,868.3283162823028
641,868.2819419065677
642,868.2403156827872
643,868.2034276097052
644,868.1712533177958
645,868.1437539044791
646,868.1208758292662
647,868.1025508722558
648,868.0886961591117
649,868.0792142549257
650,868.0739933285718
651,868.0729073885013
652,868.0758165903721
653,868.0825676164043
654,868.0929941260353
655,868.1069172773741
656,868.1241463188688
657,868.1444792499764
658,868.167703548274
659,868.1935969587533
660,868.2219283396824
661,868.2524585586598
662,868.2849414322358
663,868.319124702596
664,868.3547510451896
665,868.3915591015844
666,868.4292845319787
667,868.4676610817804
668,868.5064216567937
669,868.5452994019167
670,868.5840287786733
671,868.6223466370791
672,868.6599932772597
673,868.696713496147
674,868.7322576146755
675,868.7663824810024
676,868.7988524450234
677,868.829440298833
678,868.8579281771364
679,868.8841084113138
680,868.907784331018
681,868.9287710077177
682,868.946895935157
683,868.9619996421524
684,868.9739362337547
685,868.9825738577928
686,868.9877950951139
687,868.9894972730804
688,868.9875927026411
689,868.9820088394177
690,868.9726883690532
691,868.9595892172132
692,868.942684485411
693,868.921962315015
694,868.8974256829663
695,868.8690921337336
696,868.8369934528989
697,868.8011752884494
698,868.7616967261355
699,868.7186298250045
700,868.6720591185339
701,868.6220810859596
702,868.5688035976518
703,868.5123453377324
704,868.4528352065473
705,868.3904117052814
706,868.3252223050523
707,868.2574228031624
708,868.1871766696291
709,868.1146543874776
710,868.0400327904789
711,867.9634944020726
712,867.8852267791732
713,867.8054218644794
714,867.7242753508716
715,867.6419860616513
716,867.5587553506625
717,867.4747865265216
718,867.3902843050473
719,867.3054542935636
720,867.2205025101431
721,867.1356349401015
722,867.0510571311096
723,866.9669738271525
724,866.8835886402101
725,866.8011037570194
726,866.7197196767821
727,866.6396349745273
728,866.5610460842782
729,866.484147096145
730,866.409129561821
731,866.3361823035659
732,866.2654912224888
733,866.1972391027052
734,866.1316054086451
735,866.0687660733774
736,866.00889327628
737,865.9521552089022
738,865.8987158286897
739,865.8487346011157
740,865.8023662311499
741,865.7597603846391
742,865.7210613994
743,865.686407985038
744,865.6559329099176
745,865.6297626734012
746,865.608017161636
747,865.5908092859235
748,865.5782446038702
749,865.5704209247522
750,865.5674279015352
751,865.5693466125724
752,865.5762491361273
753,865.5881981208154
754,865.6052463550121
755,865.6274363380654
756,865.6547998555658
757,865.6873575601701
758,865.7251185590804
759,865.7680800095783
760,865.8162267249398
761,865.8695307942447
762,865.9279512206305
763,865.9914335831864
764,866.059909727927
765,866.1332974933242
766,866.2115004758837
767,866.2944078412909
768,866.3818941867492
769,866.4738194600998
770,866.5700289408278
771,866.6703532870023
772,866.7746086508096
773,866.8825968639103
774,866.9941056925331
775,867.1089091612484
776,867.2267679439348
777,867.347429820423
778,867.4706301972799
779,867.5960926909604
780,867.7235297712297
781,867.8526434625351
782,867.983126100983
783,868.1146611447529
784,868.2469240360709
785,868.3795831130312
786,868.5123005693429
787,868.6447334595193
788,868.7765347463633
789,868.9073543871207
790,869.036840454649
791,869.1646402904298
792,869.290401687018
793,869.4137740981351
794,869.5344098747117
795,869.651965524726
796,869.7661029938982
797,869.8764909633926
798,869.9828061597834
799,870.0847346717469
800,870.1819732673292
801,870.274230705185
802,870.3612290328058
803,870.4427048644545
804,870.5184106312004
805,870.5881157949341
806,870.6516080175312
807,870.7086942757114
808,870.7592019119238
809,870.8029796117102
810,870.839898298164
811,870.8698519340463
812,870.892758221967
813,870.9085591933307
814,870.9172216778585
815,870.9187376471873
816,870.913124427771
817,870.9004247799294
818,870.8807068416385
819,870.8540639376171
820,870.8206142560409
821,870.780500396379
822,870.7338887922551
823,870.6809690131648
824,870.6219529489259
825,870.5570738813999
826,870.4865854493269
827,870.4107605135415
828,870.3298899308785
829,870.2442812456638
830,870.1542573081217
831,870.0601548295249
832,869.9623228845181
833,869.8611213715831
834,869.7569194428293
835,869.6500939141393
836,869.5410276663926
837,869.4301080482154
838,869.3177252904809
839,869.2042709424926
840,869.0901363393637
841,868.975711109468
842,868.8613817299728
843,868.747530137431
844,868.6345323993114
845,868.5227574510427
846,868.4125659014737
847,868.3043089077677
848,868.1983271191971
849,868.0949496885208
850,867.9944933496208
851,867.8972615606784
852,867.8035437130446
853,867.7136144066283
854,867.6277327928456
855,867.5461419861199
856,867.4690685448643
857,867.396722022744
858,867.3292945907036
859,867.2669607299488
860,867.209876996148
861,867.1581818554886
862,867.1119955933224
863,867.0714202954946
864,867.0365399012323
865,867.0074203252915
866,866.9841096463787
867,866.9666383586659
868,866.9550196832275
869,866.9492499362703
870,866.9493089510464
871,866.9551605502594
872,866.9667530654443
873,866.9840198992496
874,867.0068801261193
875,867.0352391268322
876,867.0689892524646
877,867.1080105133613
878,867.152171288698
879,867.2013290524197
880,867.2553311116586
881,867.3140153539813
882,867.377210999979
883,867.4447393580064
884,867.5164145783302
885,867.5920444042769
886,867.6714309177195
887,867.7543712753429
888,867.8406584309334
889,867.930081838018
890,868.0224281268755
891,868.1174817502671
892,868.2150255929794
893,868.3148415410947
894,868.4167110076346
895,868.5204154119358
896,868.6257366109571
897,868.7324572816218
898,868.84036125413
899,868.9492337970956
900,869.0588618565389
901,869.1690342521202
902,869.2795418352033
903,869.390177614196
904,869.5007368530904
905,869.6110171493158
906,869.7208184970397
907,869.8299433418691
908,869.9381966323342
909,870.045385872612
910,870.1513211800215
911,870.2558153502191
912,870.358683932816
913,870.4597453200911
914,870.5588208512962
915,870.655734934624
916,870.7503151885035
917,870.8423926037839
