frame_number,force
0,859.4194866853092
1,859.3621811092729
2,859.3082304176351
3,859.2580706506571
4,859.2121501879011
5,859.1709280041642
6,859.1348718288356
7,859.1044562130307
8,859.0801605097918
9,859.0624667739261
10,859.0518575897087
11,859.0488138366301
12,859.0538124053471
13,859.067323877578
14,859.0898101847339
15,859.1217222607617
16,859.1634977051538
17,859.215558472253
18,859.2783086026024
19,859.3521320112662
20,859.4373903474194
21,859.5344209396659
22,859.643534842277
23,859.7650149978991
24,859.8991145316047
25,860.0460551895842
26,860.2060259339828
27,860.3791817039469
28,860.5656423519902
29,860.765491764015
30,860.9787771702775
31,861.2055086529532
32,861.4456588538895
33,861.6991628841873
34,861.9659184359863
35,862.245786096239
36,862.5385898618272
37,862.8441178545667
38,863.162123233364
39,863.4923252989333
40,863.8344107838972
41,864.1880353179516
42,864.552825054777
43,864.9283784452018
44,865.3142681399506
45,865.7100430048138
46,866.1152302309887
47,866.529337523682
48,866.9518553528495
49,867.3822592509327
50,867.8200121431336
51,868.2645666958301
52,868.715367668273
53,869.1718542521211
54,869.6334623830007
55,870.0996270081674
56,870.5697842944695
57,871.043373761184
58,871.5198403229517
59,871.9986362289234
60,872.4792228853184
61,872.9610725501161
62,873.4436698905996
63,873.9265133965215
64,874.409116643147
65,874.8910093993592
66,875.3717385768049
67,875.8508690169289
68,876.3279841136963
69,876.8026862710597
70,877.2745971961559
71,877.7433580317846
72,878.208629334288
73,878.6700909047519
74,879.127441482189
75,879.5803983074551
76,880.0286965666903
77,880.4720887233595
78,880.9103437483345
79,881.3432462578706
80,881.7705955697664
81,882.1922046882788
82,882.6078992282298
83,883.0175162883113
84,883.4209032834278
85,883.8179167463791
86,884.2084211101037
87,884.5922874826407
88,884.9693924274821
89,885.3396167618806
90,885.7028443850107
91,886.058961146909
92,886.4078537680128
93,886.7494088179085
94,887.083511760545
95,887.4100460717162
96,887.7288924332531
97,888.0399280074395
98,888.3430257950093
99,888.6380540806688
100,888.9248759708738
101,889.203349028949
102,889.4733250123288
103,889.734649716057
104,889.9871629262565
105,890.2306984872864
106,890.4650844863356
107,890.6901435586914
108,890.9056933157
109,891.1115468956854
110,891.3075136360678
111,891.4933998628397
112,891.6690097916796
113,891.8341465336104
114,891.9886131973291
115,892.1322140799722
116,892.2647559378403
117,892.3860493284592
118,892.4959100152524
119,892.5941604258009
120,892.6806311539705
121,892.755162495377
122,892.8176060052269
123,892.8678260677016
124,892.905701466413
125,892.9311269455534
126,892.9440147509919
127,892.94429613998
128,892.9319228476448
129,892.9068684981575
130,892.8691299482826
131,892.8187285509122
132,892.7557113261556
133,892.6801520276583
134,892.5921520920643
135,892.4918414596788
136,892.3793792542159
137,892.2549543094425
138,892.118785531295
139,891.9711220859499
140,891.8122434068356
141,891.6424590159841
142,891.4621081571942
143,891.271559240489
144,891.0712090995236
145,890.8614820657929
146,890.642828865352
147,890.4157253451356
148,890.1806710369616
149,889.9381875682272
150,889.6888169293281
151,889.4331196089792
152,889.1716726097602
153,888.9050673572394
154,888.6339075168665
155,888.3588067334163
156,888.0803863081529
157,887.7992728291606
158,887.5160957704535
159,887.231485075505
160,886.9460687406839
161,886.6604704137111
162,886.3753070216826
163,886.091186442645
164,885.8087052343036
165,885.5284464330666
166,885.2509774359814
167,884.9768479769995
168,884.7065882075195
169,884.4407068896563
170,884.1796897095029
171,883.9239977170306
172,883.6740658991702
173,883.4303018926641
174,883.193084842821
175,882.9627644129661
176,882.739659947547
177,882.5240597901021
178,882.316220755834
179,882.1163677570838
180,881.9246935784148
181,881.7413587964684
182,881.566491838378
183,881.4001891713474
184,881.2425156151675
185,881.093504769171
186,880.9531595453476
187,880.8214527998343
188,880.6983280555859
189,880.5837003095588
190,880.4774569180331
191,880.3794585538024
192,880.2895402292866
193,880.2075123803663
194,880.1331620065117
195,880.0662538630231
196,880.0065317006267
197,879.9537195463445
198,879.9075230178429
199,879.867630662053
200,879.8337153084035
201,879.8054354276419
202,879.7824364884798
203,879.7643523054584
204,879.7508063720139
205,879.7414131729176
206,879.7357794706984
207,879.7335055617432
208,879.734186499192
209,879.7374132807267
210,879.7427739995318
211,879.7498549565046
212,879.7582417319202
213,879.7675202154824
214,879.7772775949554
215,879.7871033051542
216,879.7965899406514
217,879.8053341367031
218,879.8129374234085
219,879.8190070583128
220,879.8231568429572
221,879.8250079291893
222,879.8241896207297
223,879.820340174081
224,879.8131076006471
225,879.8021504697831
226,879.7871387110712
227,879.767754413571
228,879.7436926199016
229,879.7146621134452
230,879.6803861974263
231,879.6406034648383
232,879.5950685580377
233,879.5435529164107
234,879.4858455101586
235,879.4217535581837
236,879.3511032282051
237,879.2737403172217
238,879.1895309098398
239,879.098362010657
240,879.0001421450868
241,878.8948019213589
242,878.7822945455771
243,878.6625962818417
244,878.535706850048
245,878.4016497545098
246,878.2604725368307
247,878.1122469465635
248,877.9570690232001
249,877.7950590830018
250,877.6263616044995
251,877.4511450074802
252,877.269601321726
253,877.0819457431706
254,876.8884160761224
255,876.6892720606337
256,876.4847945841789
257,876.2752847771002
258,876.0610629923879
259,875.8424676723627
260,875.6198541071791
261,875.3935930920466
262,875.1640694913726
263,874.9316807188065
264,874.6968351426517
265,874.4599504263651
266,874.2214518137386
267,873.981770367862
268,873.7413411725007
269,873.500601504561
270,873.2599889869891
271,873.019939732339
272,872.7808864879153
273,872.5432567935408
274,872.3074711627191
275,872.0739412976777
276,871.8430683488023
277,871.6152412291749
278,871.3908349950826
279,871.170209303478
280,870.9537069574324
281,870.7416525504772
282,870.5343512202497
283,870.3320875209231
284,870.1351244225251
285,869.9437024437613
286,869.7580389237773
287,869.5783274375096
288,869.4047373585572
289,869.2374135725345
290,869.0764763424667
291,868.9220213260949
292,868.7741197432621
293,868.6328186899418
294,868.4981415938303
295,868.3700888046894
296,868.2486383110296
297,868.1337465734483
298,868.0253494640407
299,867.9233633007394
300,867.8276859653807
301,867.7381980946507
302,867.6547643332913
303,867.5772346385211
304,867.5054456237754
305,867.439221929354
306,867.3783776078208
307,867.3227175128316
308,867.2720386809788
309,867.2261316968049
310,867.1847820311174
311,867.1477713421496
312,867.1148787283606
313,867.08588192138
314,867.0605584082618
315,867.0386864738708
316,867.0200461566428
317,867.0044201137499
318,866.9915943942796
319,866.981359121011
320,866.9735090826799
321,866.9678442395734
322,866.9641701462443
323,866.9622982961447
324,866.9620463938288
325,866.9632385608976
326,866.9657054820551
327,866.9692844975996
328,866.97381964839
329,866.9791616788978
330,866.985168003485
331,866.9917026406158
332,866.9986361193502
333,867.0058453622388
334,867.013213548718
335,867.0206299633593
336,867.0279898338162
337,867.0351941637388
338,867.0421495659765
339,867.048768101102
340,867.0549671259419
341,867.060669156384
342,867.0658017479632
343,867.0702973966457
344,867.074093461299
345,867.0771321086789
346,867.0793602811509
347,867.0807296866542
348,867.0811968099588
349,867.0807229441956
350,867.0792742416517
351,867.0768217826188
352,867.0733416608613
353,867.0688150843359
354,867.0632284901385
355,867.0565736729319
356,867.0488479262617
357,867.0400541963095
358,867.0302012477099
359,867.0193038406505
360,867.0073829172835
361,866.9944657936674
362,866.9805863516099
363,866.9657852235559
364,866.950109963358
365,866.9336151963123
366,866.9163627428915
367,866.8984217117041
368,866.8798685581072
369,866.8607871056802
370,866.8412685287199
371,866.8214112950785
372,866.8013210696733
373,866.7811105792737
374,866.7608994384221
375,866.7408139348624
376,866.7209867714114
377,866.7015567605607
378,866.6826684684056
379,866.6644718053684
380,866.6471215620915
381,866.630776889598
382,866.6156007235116
383,866.6017591531033
384,866.5894207372331
385,866.5787557705057
386,866.5699355037838
387,866.5631313236283
388,866.5585138955736
389,866.5562522764466
390,866.5565130009068
391,866.5594591468014
392,866.5652493832032
393,866.5740370047893
394,866.585968956695
395,866.6011848546577
396,866.6198160057656
397,866.6419844356751
398,866.6678019291505
399,866.697369092031
400,866.7307744436264
401,866.7680935487601
402,866.8093881983656
403,866.8547056469251
404,866.9040779143638
405,866.9575211596749
406,867.0150351335583
407,867.0766027170911
408,867.1421895523716
409,867.2117437693832
410,867.2851958117559
411,867.3624583631753
412,867.4434263757781
413,867.5279772015241
414,867.6159708268952
415,867.7072502102417
416,867.8016417197451
417,867.8989556685605
418,867.998986942398
419,868.101515713696
420,868.2063082356221
421,868.3131177085539
422,868.4216852115492
423,868.5317406916812
424,868.6430040048418
425,868.7551860023843
426,868.8679896584646
427,868.9811112329234
428,869.0942414641366
429,869.2070667857565
430,869.3192705609197
431,869.4305343273667
432,869.5405390470326
433,869.6489663541068
434,869.7554997963117
435,869.8598260650048
436,869.9616362104553
437,870.0606268391566
438,870.1565012902668
439,870.2489707880368
440,870.337755566327
441,870.422585960402
442,870.5032034607699
443,870.5793617241474
444,870.6508275373876
445,870.7173817309111
446,870.7788200386999
447,870.8349539024154
448,870.8856112177773
449,870.9306370218414
450,870.9698941200845
451,871.0032636524079
452,871.0306455976674
453,871.051959217175
454,871.0671434382847
455,871.0761571791668
456,871.0789796152608
457,871.0756103872128
458,871.066069749658
459,871.0503986600137
460,871.0286588063187
461,871.0009325729515
462,870.9673229427137
463,870.9279533334544
464,870.8829673673586
465,870.832528571327
466,870.7768200073646
467,870.7160438324267
468,870.6504207876192
469,870.5801896170578
470,870.5056064172941
471,870.4269439192195
472,870.3444907056456
473,870.258550368725
474,870.1694406114137
475,870.0774922961573
476,869.9830484425158
477,869.8864631743919
478,869.7881006174176
479,869.6883337478884
480,869.5875431960313
481,869.4861160078791
482,869.3844443710307
483,869.2829243097941
484,869.1819543549041
485,869.081934192871
486,868.9832633003919
487,868.8863395698587
488,868.7915579324912
489,868.6993089858837
490,868.6099776329346
491,868.5239417393042
492,868.4415708165702
493,868.363224737681
494,868.2892524899725
495,868.2199909692869
496,868.1557638172017
497,868.0968803024386
498,868.0436342473625
499,867.9963030010862
500,867.9551464618129
501,867.9204061520954
502,867.8923043510445
503,867.8710432870256
504,867.8568043935768
505,867.8497476308237
506,867.8500108746724
507,867.8577093761199
508,867.8729352929437
509,867.8957572959714
510,867.926220252255
511,867.9643449876546
512,868.0101281313648
513,868.0635420447056
514,868.1245348360455
515,868.1930304629595
516,868.2689289216834
517,868.3521065229511
518,868.4424162528808
519,868.5396882179461
520,868.643730173935
521,868.7543281394059
522,868.8712470939375
523,868.9942317604597
524,869.123007469608
525,869.2572811026856
526,869.3967421086023
527,869.5410635892772
528,869.6899034476146
529,869.8429055920991
530,869.9997011919327
531,870.1599099764427
532,870.3231415724484
533,870.4889968733071
534,870.6570694331181
535,870.826946878968
536,870.9982123336222
537,871.1704458412373
538,871.3432257894582
539,871.5161303221653
540,871.6887387377518
541,871.8606328680968
542,872.0313984336202
543,872.2006263701193
544,872.3679141233636
545,872.5328669074141
546,872.6950989222455
547,872.8542345256566
548,873.0099093540442
549,873.1617713867679
550,873.3094819494939
551,873.4527166525701
552,873.5911662607584
553,873.7245374907357
554,873.852553732976
555,873.9749556949292
556,874.0915019625515
557,874.2019694773043
558,874.3061539261553
559,874.4038700432653
560,874.4949518237569
561,874.5792526516578
562,874.6566453453016
563,874.7270221241037
564,874.7902945009712
565,874.8463931047946
566,874.8952674373257
567,874.9368855681653
568,874.9712337708676
569,874.9983161027744
570,875.0181539311462
571,875.0307854080917
572,875.036264896601
573,875.0346623500358
574,875.0260626480031
575,875.0105648923263
576,874.988281667332
577,874.959338268792
578,874.9238719059621
579,874.8820308815889
580,874.8339737555631
581,874.7798684987417
582,874.7198916439356
583,874.6542274410945
584,874.583067023655
585,874.5066075931712
586,874.4250516296638
587,874.3386061352362
588,874.2474819181145
589,874.1518929232715
590,874.0520556141927
591,873.9481884082888
592,873.840511166294
593,873.7292447341559
594,873.6146105346793
595,873.4968302054493
596,873.37612527916
597,873.2527169024888
598,873.126825590305
599,872.9986710130688
600,872.8684718162855
601,872.736445471527
602,872.6028081588911
603,872.467774680916
604,872.3315584078097
605,872.1943712531848
606,872.0564236782825
607,871.917924721108
608,871.7790820452941
609,871.6401020021915
610,871.5011896989972
611,871.3625490656619
612,871.224382913459
613,871.0868929781668
614,870.9502799409469
615,870.814743420482
616,870.6804819307141
617,870.547692799241
618,870.4165720419857
619,870.2873141903067
620,870.1601120673756
621,870.035156511366
622,869.9126360438129
623,869.792736482477
624,869.6756404991968
625,869.5615271244847
626,869.4505712018905
627,869.3429427962021
628,869.2388065604122
629,869.1383210672989
630,869.0416381125114
631,868.9489019969503
632,868.8602487967873
633,868.7758056296791
634,868.695689925672
635,868.6200087110327
636,868.5488579128597
637,868.4823216917283
638,868.420471808612
639,868.3633670311093
640,868.3110525831518
641,868.2635596422014
642,868.2209048881853
643,868.1830901085485
644,868.1501018636776
645,868.1219112168567
646,868.0984735330827
647,868.0797283512179
648,868.0655993336089
649,868.0559942963996
650,868.0508053227511
651,868.0499089603691
652,868.0531665040515
653,868.060424363352
654,868.0715145150675
655,868.0862550402092
656,868.1044507450251
657,868.1258938648739
658,868.1503648480153
659,868.1776332142291
660,868.2074584814231
661,868.2395911524446
662,868.2737737540037
663,868.3097419197991
664,868.3472255104604
665,868.385949763457
666,868.4256364663289
667,868.4660051465916
668,868.5067742718342
669,868.5476624540199
670,868.588389652544
671,868.6286783708348
672,868.6682548411793
673,868.7068501923267
674,868.7442015945467
675,868.7800533769444
676,868.8141581114869
677,868.8462776573795
678,868.8761841585775
679,868.9036609868049
680,868.9285036226574
681,868.9505204680404
682,868.9695335838796
683,868.9853793476132
684,868.9979090257175
685,869.0069892577758
686,869.012502450253
687,869.0143470797191
688,869.0124379062125
689,869.0067060975557
690,868.9970992651575
691,868.9835814119784
692,868.966132794313
693,868.9447497005533
694,868.9194441515755
695,868.8902435286518
696,868.8571901358855
697,868.820340705015
698,868.7797658507708
699,868.735549484611
700,868.6877881937488
701,868.6365905912763
702,868.5820766422047
703,868.5243769693541
704,868.4636321422583
705,868.3999919518005
706,868.3336146733408
707,868.2646663215273
708,868.1933199005356
709,868.1197546539378
710,868.0441553186535
711,867.9667113874935
712,867.8876163847502
713,867.8070671591657
714,867.7252631985796
715,867.6424059707491
716,867.5586982952185
717,867.4743437513465
718,867.3895461274279
719,867.3045089152963
720,867.2194348540156
721,867.1345255252791
722,867.0499810019186
723,866.9659995494476
724,866.8827773788066
725,866.8005084465162
726,866.7193842964994
727,866.6395939363458
728,866.5613237400572
729,866.4847573692844
730,866.4100757055244
731,866.3374567865309
732,866.2670757411461
733,866.1991047177382
734,866.1337128023448
735,866.0710659233847
736,866.0113267403955
737,865.9546545149308
738,865.9012049628087
739,865.8511300880366
740,865.8045779992366
741,865.761692708934
742,865.7226139150517
743,865.6874767629416
744,865.6564115855119
745,865.6295436186056
746,865.6069926889963
747,865.5888728733474
748,865.575292127984
749,865.5663518909352
750,865.5621466590158
751,865.5627635434637
752,865.5682818078269
753,865.5787723917234
754,865.5942974240481
755,865.6149097289403
756,865.640652327072
757,865.6715579338551
758,865.7076484556675
759,865.7489344856032
760,865.795414801472
761,865.8470758703396
762,865.9038913652739
763,865.9658217008198
764,866.032813594077
765,866.1047996583412
766,866.181698036307
767,866.2634120799217
768,866.3498300841471
769,866.4408250818807
770,866.536254706706
771,866.6359611288098
772,866.7397710676548
773,866.8474958831891
774,866.9589317457056
775,867.0738598832687
776,867.1920469051067
777,867.3132451993885
778,867.4371934038221
779,867.5636169472638
780,867.6922286601447
781,867.8227294512947
782,867.9548090487486
783,868.0881468024036
784,868.2224125468157
785,868.3572675226817
786,868.4923653553184
787,868.6273530877695
788,868.7618722653358
789,868.8955600677386
790,869.0280504851169
791,869.1589755347113
792,869.2879665161045
793,869.4146553036935
794,869.5386756752158
795,869.6596646745637
796,869.7772640060991
797,869.8911214565077
798,870.0008923390573
799,870.1062409540864
800,870.2068420587411
801,870.3023823383619
802,870.3925618714107
803,870.4770955794024
804,870.5557146528527
805,870.6281679435497
806,870.6942233124789
807,870.7536689218852
808,870.8063144596132
809,870.8519922839729
810,870.8905584775255
811,870.921893798048
812,870.9459045146699
813,870.9625231174801
814,870.9717088902743
815,870.9734483382257
816,870.9677554644313
817,870.9546718912954
818,870.9342668249176
819,870.9066368631056
820,870.8719056498674
821,870.8302233806634
822,870.7817661631543
823,870.72673523801
824,870.6653560643283
825,870.5978772750035
826,870.5245695090006
827,870.4457241292836
828,870.3616518364224
829,870.2726811886173
830,870.1791570393822
831,870.0814389047232
832,869.9798992723851
833,869.8749218663971
834,869.766899880391
835,869.6562341929332
836,869.5433315776945
837,869.4286029209003
838,869.3124614581953
839,869.1953210426773
840,869.0775944553006
841,868.9596917680307
842,868.8420187690065
843,868.724975457654
844,868.6089546162733
845,868.4943404629616
846,868.3815073885893
847,868.2708187781343
848,868.1626259147047
849,868.0572669635965
850,867.9550660337811
851,867.856332315044
852,867.7613592901777
853,867.6704240225632
854,867.5837865198088
855,867.5016891741092
856,867.4243562799714
857,867.3519936298436
858,867.2847881878384
859,867.2229078414283
860,867.1665012311473
861,867.1156976588826
862,867.0706070755302
863,867.0313201480235
864,866.9979084042228
865,866.9704244526938
866,866.9489022735733
867,866.9333575765181
868,866.9237882218109
869,866.9201747007983
870,866.9224806719138
871,866.9306535484865
872,866.9446251341476
873,866.9643123009771
874,866.9896177050146
875,867.0204305337335
876,867.0566272802602
877,867.0980725391665
878,867.1446198186931
879,867.1961123645337
880,867.2523839907548
881,867.3132599137459
882,867.3785575853337
883,867.4480875215656
884,867.5216541242767
885,867.5990564929704
886,867.6800892242252
887,867.7645431946619
888,867.8522063219527
889,867.9428642971494
890,868.036301281195
891,868.1323005589041
892,868.2306451446344
893,868.3311183349298
894,868.4335042043383
895,868.5375880415125
896,868.6431567237704
897,868.7499990294409
898,868.85790588838
899,868.966670572201
900,869.0760888272757
901,869.1859589552822
902,869.296081847623
903,869.4062609811211
904,869.5163023829908
905,869.6260145733041
906,869.7352084931841
907,869.8436974266876
908,869.9512969235806
909,870.0578247289918
910,870.1631007247015
911,870.2669468860249
912,870.3691872579604
913,870.4696479541916
914,870.5681571822848
915,870.6645452978589
916,870.758644889957
917,870.8502908997041
