frame_number,force
0,859.4194866838181
1,859.3621811078433
2,859.3082304162813
3,859.2580706493915
4,859.2121501867337
5,859.1709280031027
6,859.1348718278857
7,859.1044562121969
8,859.0801605090763
9,859.0624667733299
10,859.0518575892306
11,859.0488138362672
12,859.0538124050946
13,859.0673238774292
14,859.0898101846803
15,859.1217222607934
16,859.1634977052598
17,859.215558472422
18,859.2783086028227
19,859.3521320115262
20,859.4373903477078
21,859.5344209399723
22,859.643534842592
23,859.7650149982146
24,859.899114531914
25,860.0460551898828
26,860.2060259342682
27,860.3791817042182
28,860.5656423522485
29,860.7654917642624
30,860.9787771705169
31,861.205508653188
32,861.445658854123
33,861.6991628844233
34,861.9659184362295
35,862.2457860964945
36,862.5385898621008
37,862.844117854865
38,863.1621232336936
39,863.4923252993009
40,863.8344107843093
41,864.1880353184148
42,864.5528250552969
43,864.9283784457832
44,865.3142681405975
45,865.7100430055292
46,866.1152302317755
47,866.5293375245427
48,866.9518553537864
49,867.3822592519476
50,867.8200121442271
51,868.2645666970012
52,868.7153676695197
53,869.1718542534403
54,869.6334623843884
55,870.0996270096182
56,870.5697842959769
57,871.0433737627409
58,871.5198403245514
59,871.9986362305591
60,872.4792228869838
61,872.9610725518046
62,873.4436698923045
63,873.9265133982365
64,874.4091166448669
65,874.8910094010802
66,875.3717385785231
67,875.8508690186408
68,876.3279841153985
69,876.8026862727487
70,877.2745971978276
71,877.7433580334334
72,878.2086293359067
73,878.6700909063316
74,879.1274414837196
75,879.5803983089254
76,880.0286965680885
77,880.4720887246739
78,880.910343749553
79,881.3432462589809
80,881.7705955707565
81,882.1922046891375
82,882.6078992289464
83,883.0175162888759
84,883.4209032838314
85,883.8179167466135
86,884.2084211101612
87,884.592287482514
88,884.9693924271647
89,885.3396167613671
90,885.7028443842976
91,886.0589611459942
92,886.4078537668955
93,886.7494088165888
94,887.083511759024
95,887.4100460699956
96,887.7288924313357
97,888.039928005329
98,888.34302579271
99,888.6380540781855
100,888.9248759682122
101,889.2033490261152
102,889.4733250093295
103,889.7346497128996
104,889.9871629229492
105,890.2306984838388
106,890.4650844827581
107,890.6901435549959
108,890.905693311899
109,891.1115468917922
110,891.3075136320965
111,891.4933998588044
112,891.669009787595
113,891.8341465294909
114,891.9886131931889
115,892.132214075825
116,892.2647559336995
117,892.3860493243378
118,892.4959100111635
119,892.5941604217568
120,892.6806311499836
121,892.7551624914591
122,892.8176060013891
123,892.8678260639537
124,892.9057014627638
125,892.93112694201
126,892.9440147475597
127,892.944296136662
128,892.9319228444429
129,892.9068684950714
130,892.8691299453109
131,892.8187285480518
132,892.7557113234026
133,892.6801520250073
134,892.5921520895099
135,892.4918414572155
136,892.3793792518383
137,892.2549543071439
138,892.1187855290682
139,891.9711220837871
140,891.812243404729
141,891.6424590139261
142,891.4621081551777
143,891.2715592385073
144,891.0712090975711
145,890.861482063865
146,890.6428288634451
147,890.4157253432469
148,890.1806710350899
149,889.938187566373
150,889.6888169274943
151,889.4331196071704
152,889.171672607983
153,888.9050673555025
154,888.6339075151802
155,888.3588067317918
156,888.0803863066023
157,887.799272827696
158,887.5160957690861
159,887.2314850742451
160,886.9460687395408
161,886.6604704126929
162,886.375307020797
163,886.0911864418982
164,885.8087052336998
165,885.5284464326079
166,885.2509774356682
167,884.9768479768303
168,884.7065882074917
169,884.4407068897654
170,884.1796897097428
171,883.9239977173937
172,883.6740658996479
173,883.4303018932474
174,883.1930848434998
175,882.9627644137308
176,882.7396599483887
177,882.5240597910122
178,882.3162207568048
179,882.1163677581093
180,881.9246935794893
181,881.7413587975859
182,881.5664918395331
183,881.4001891725346
184,881.2425156163821
185,881.093504770408
186,880.9531595466017
187,880.8214528011
188,880.6983280568577
189,880.5837003108321
190,880.4774569193039
191,880.3794585550667
192,880.2895402305405
193,880.2075123816063
194,880.1331620077352
195,880.0662538642287
196,880.0065317018132
197,879.9537195475107
198,879.907523018988
199,879.8676306631769
200,879.8337153095069
201,879.8054354287256
202,879.782436489544
203,879.7643523065034
204,879.7508063730398
205,879.7414131739254
206,879.7357794716894
207,879.7335055627196
208,879.7341865001573
209,879.7374132816858
210,879.7427740004907
211,879.7498549574707
212,879.7582417329013
213,879.7675202164862
214,879.7772775959897
215,879.7871033062258
216,879.796589941766
217,879.8053341378653
218,879.8129374246222
219,879.8190070595808
220,879.8231568442817
221,879.8250079305715
222,879.8241896221701
223,879.8203401755796
224,879.8131076022034
225,879.8021504713973
226,879.7871387127436
227,879.7677544153022
228,879.7436926216925
229,879.7146621152974
230,879.6803861993416
231,879.6406034668187
232,879.5950685600847
233,879.5435529185248
234,879.4858455123393
235,879.4217535604287
236,879.35110323051
237,879.2737403195795
238,879.1895309122409
239,879.0983620130897
240,879.0001421475381
241,878.8948019238139
242,878.7822945480206
243,878.662596284258
244,878.5357068524214
245,878.4016497568255
246,878.2604725390744
247,878.112246948722
248,877.9570690252611
249,877.7950590849536
250,877.6263616063311
251,877.4511450091821
252,877.26960132329
253,877.0819457445897
254,876.8884160773908
255,876.689272061747
256,876.4847945851338
257,876.2752847778947
258,876.0610629930211
259,875.8424676728356
260,875.6198541074941
261,875.3935930922071
262,875.1640694913823
263,874.9316807186698
264,874.696835142374
265,874.4599504259531
266,874.2214518132
267,873.9817703672053
268,873.7413411717349
269,873.5006015036964
270,873.2599889860368
271,873.0199397313107
272,872.7808864868238
273,872.5432567923996
274,872.3074711615426
275,872.0739412964803
276,871.8430683475982
277,871.615241227978
278,871.3908349939063
279,871.1702093023354
280,870.9537069563355
281,870.741652549437
282,870.5343512192758
283,870.3320875200236
284,870.1351244217069
285,869.9437024430293
286,869.7580389231351
287,869.5783274369588
288,869.4047373580973
289,869.2374135721632
290,869.0764763421802
291,868.9220213258884
292,868.77411974313
293,868.6328186898777
294,868.4981415938272
295,868.3700888047398
296,868.2486383111243
297,868.1337465735764
298,868.0253494641894
299,867.9233633008951
300,867.8276859655289
301,867.738198094776
302,867.6547643333779
303,867.5772346385537
304,867.5054456237397
305,867.4392219292371
306,867.3783776076118
307,867.3227175125214
308,867.27203868056
309,867.2261316962716
310,867.184782030465
311,867.1477713413753
312,867.1148787274634
313,867.0858819203596
314,867.0605584071199
315,867.0386864726094
316,867.0200461552645
317,867.0044201122578
318,866.9915943926775
319,866.9813591193038
320,866.9735090808734
321,866.9678442376745
322,866.964170144261
323,866.962298294086
324,866.9620463917047
325,866.9632385587178
326,866.9657054798296
327,866.9692844953389
328,866.973819646105
329,866.9791616766001
330,866.9851680011867
331,866.991702638329
332,866.9986361170867
333,867.0058453600102
334,867.0132135465351
335,867.0206299612321
336,867.0279898317542
337,867.0351941617521
338,867.0421495640753
339,867.0487680992958
340,867.0549671242394
341,867.0606691547945
342,867.0658017464955
343,867.0702973953089
344,867.0740934601013
345,867.0771321076276
346,867.0793602802523
347,867.0807296859135
348,867.0811968093803
349,867.0807229437822
350,867.0792742414044
351,867.0768217825378
352,867.0733416609455
353,867.0688150845831
354,867.0632284905445
355,867.0565736734917
356,867.0488479269686
357,867.0400541971552
358,867.0302012486841
359,867.0193038417416
360,867.0073829184792
361,866.9944657949553
362,866.9805863529783
363,866.9657852249939
364,866.9501099648554
365,866.9336151978604
366,866.9163627444829
367,866.8984217133324
368,866.8798685597669
369,866.8607871073671
370,866.8412685304314
371,866.8214112968133
372,866.8013210714306
373,866.7811105810533
374,866.7608994402241
375,866.7408139366868
376,866.720986773258
377,866.701556762429
378,866.682668470295
379,866.6644718072785
380,866.647121564022
381,866.6307768915486
382,866.6156007254817
383,866.6017591550915
384,866.5894207392377
385,866.5787557725256
386,866.5699355058186
387,866.5631313256777
388,866.5585138976368
389,866.5562522785233
390,866.556513002997
391,866.5594591489049
392,866.5652493853187
393,866.5740370069146
394,866.585968958827
395,866.6011848567919
396,866.6198160078961
397,866.6419844377953
398,866.6678019312523
399,866.697369094105
400,866.7307744456627
401,866.768093550748
402,866.8093882002942
403,866.8547056487837
404,866.9040779161413
405,866.9575211613604
406,867.015035135141
407,867.0766027185607
408,867.1421895537188
409,867.2117437705998
410,867.2851958128351
411,867.362458364112
412,867.4434263765683
413,867.5279772021646
414,867.6159708273839
415,867.7072502105768
416,867.8016417199261
417,867.8989556685871
418,867.9989869422709
419,868.1015157134165
420,868.2063082351913
421,868.3131177079732
422,868.4216852108206
423,868.5317406908072
424,868.643004003826
425,868.7551860012313
426,868.8679896571803
427,868.9811112315152
428,869.0942414626135
429,869.2070667841281
430,869.3192705591962
431,869.4305343255593
432,869.5405390451531
433,869.648966352168
434,869.7554997943267
435,869.8598260629873
436,869.9616362084186
437,870.0606268371138
438,870.1565012882304
439,870.2489707860187
440,870.3377555643384
441,870.4225859584537
442,870.5032034588728
443,870.5793617223123
444,870.6508275356257
445,870.717381729234
446,870.77882003712
447,870.8349539009453
448,870.8856112164298
449,870.9306370206288
450,870.9698941190184
451,871.0032636514998
452,871.0306455969281
453,871.0519592166141
454,871.0671434379111
455,871.0761571789878
456,871.0789796152824
457,871.0756103874389
458,871.066069750091
459,871.0503986606547
460,871.0286588071672
461,871.0009325740051
462,870.9673229439686
463,870.927953334905
464,870.8829673689979
465,870.8325285731466
466,870.7768200093553
467,870.7160438345784
468,870.6504207899208
469,870.5801896194976
470,870.5056064198598
471,870.4269439218994
472,870.3444907084288
473,870.2585503716015
474,870.1694406143744
475,870.0774922991939
476,869.9830484456213
477,869.8864631775594
478,869.7881006206404
479,869.6883337511598
480,869.5875431993452
481,869.4861160112297
482,869.3844443744122
483,869.2829243132014
484,869.1819543583327
485,869.0819341963169
486,868.9832633038504
487,868.8863395733251
488,868.7915579359603
489,868.6993089893501
490,868.609977636393
491,868.5239417427499
492,868.4415708199988
493,868.3632247410876
494,868.2892524933519
495,868.2199909726339
496,868.1557638205107
497,868.0968803057042
498,868.0436342505797
499,867.9963030042514
500,867.9551464649247
501,867.9204061551535
502,867.8923043540489
503,867.871043289977
504,867.856804396476
505,867.8497476336723
506,867.8500108774725
507,867.8577093788738
508,867.8729352956531
509,867.895757298638
510,867.926220254881
511,867.9643449902421
512,868.0101281339174
513,868.0635420472279
514,868.1245348385434
515,868.1930304654397
516,868.2689289241532
517,868.3521065254184
518,868.4424162553541
519,868.5396882204341
520,868.6437301764457
521,868.7543281419472
522,868.8712470965165
523,868.9942317630832
524,869.1230074722821
525,869.2572811054151
526,869.3967421113908
527,869.5410635921266
528,869.6899034505246
529,869.8429055950676
530,869.9997011949556
531,870.1599099795149
532,870.3231415755637
533,870.4889968764588
534,870.6570694362993
535,870.8269468821716
536,870.9982123368405
537,871.1704458444618
538,871.3432257926796
539,871.5161303253741
540,871.6887387409381
541,871.8606328712503
542,872.0313984367305
543,872.2006263731752
544,872.3679141263536
545,872.5328669103262
546,872.6950989250669
547,872.8542345283746
548,873.0099093566469
549,873.1617713892435
550,873.3094819518317
551,873.4527166547609
552,873.5911662627954
553,873.7245374926139
554,873.8525537346928
555,873.9749556964838
556,874.0915019639441
557,874.2019694785358
558,874.3061539272279
559,874.4038700441821
560,874.4949518245219
561,874.5792526522763
562,874.65664534578
563,874.7270221244495
564,874.7902945011925
565,874.8463931048999
566,874.8952674373235
567,874.9368855680644
568,874.9712337706775
569,874.9983161025045
570,875.0181539308059
571,875.0307854076893
572,875.0362648961444
573,875.0346623495313
574,875.0260626474557
575,875.0105648917398
576,874.9882816667097
577,874.959338268136
578,874.923871905273
579,874.8820308808653
580,874.8339737548016
581,874.7798684979388
582,874.7198916430872
583,874.6542274401955
584,874.5830670227004
585,874.5066075921565
586,874.4250516285842
587,874.3386061340879
588,874.2474819168943
589,874.1518929219777
590,874.0520556128245
591,873.9481884068459
592,873.8405111647769
593,873.7292447325657
594,873.6146105330173
595,873.4968302037174
596,873.3761252773604
597,873.2527169006237
598,873.1268255883758
599,872.9986710110774
600,872.8684718142332
601,872.7364454694155
602,872.602808156722
603,872.4677746786903
604,872.331558405528
605,872.1943712508481
606,872.0564236758912
607,871.9179247186614
608,871.77908204279
609,871.6401019996271
610,871.5011896963689
611,871.3625490629655
612,871.2243829106903
613,871.0868929753224
614,870.9502799380236
615,870.814743417478
616,870.6804819276276
617,870.5476927960708
618,870.4165720387314
619,870.287314186969
620,870.1601120639565
621,870.0351565078688
622,869.9126360402415
623,869.7927364788363
624,869.6756404954923
625,869.5615271207226
626,869.4505711980776
627,869.3429427923453
628,869.2388065565195
629,869.1383210633791
630,869.0416381085736
631,868.9489019930048
632,868.8602487928459
633,868.7758056257553
634,868.695689921781
635,868.6200087071911
636,868.5488579090857
637,868.4823216880409
638,868.4204718050314
639,868.3633670276571
640,868.3110525798497
641,868.2635596390708
642,868.2209048852471
643,868.183090105823
644,868.1501018611841
645,868.1219112146136
646,868.0984735311074
647,868.0797283495265
648,868.0655993322158
649,868.055994295317
650,868.0508053219888
651,868.0499089599349
652,868.0531665039508
653,868.060424363588
654,868.0715145156415
655,868.0862550411199
656,868.104450746269
657,868.1258938664449
658,868.1503648499063
659,868.1776332164316
660,868.2074584839271
661,868.2395911552389
662,868.2737737570759
663,868.3097419231352
664,868.3472255140456
665,868.3859497672753
666,868.4256364703631
667,868.4660051508231
668,868.5067742762436
669,868.5476624585881
670,868.5883896572517
671,868.6286783756626
672,868.6682548461083
673,868.7068501973379
674,868.7442015996209
675,868.7800533820616
676,868.8141581166271
677,868.8462776625228
678,868.8761841637038
679,868.9036609918949
680,868.9285036276922
681,868.9505204730011
682,868.9695335887479
683,868.985379352371
684,868.9979090303473
685,869.006989262261
686,869.0125024545786
687,869.0143470838718
688,869.0124379101818
689,869.0067061013339
690,868.9970992687397
691,868.9835814153619
692,868.9661327974967
693,868.9447497035377
694,868.9194441543625
695,868.8902435312452
696,868.8571901382908
697,868.8203407072402
698,868.779765852826
699,868.7355494865085
700,868.6877881955023
701,868.6365905929015
702,868.5820766437183
703,868.5243769707738
704,868.4636321436024
705,868.3999919530872
706,868.3336146745891
707,868.2646663227572
708,868.1933199017675
709,868.119754655192
710,868.0441553199494
711,867.9667113888494
712,867.8876163861826
713,867.8070671606891
714,867.7252632002064
715,867.6424059724892
716,867.5586982970788
717,867.4743437533314
718,867.38954612954
719,867.3045089175369
720,867.219434856384
721,867.1345255277731
722,867.0499810045344
723,866.9659995521802
724,866.8827773816499
725,866.8005084494629
726,866.7193842995406
727,866.6395939394718
728,866.561323743257
729,866.4847573725464
730,866.4100757088364
731,866.3374567898801
732,866.2670757445192
733,866.1991047211212
734,866.1337128057238
735,866.0710659267467
736,866.011326743728
737,865.9546545182219
738,865.9012049660463
739,865.851130091208
740,865.8045780023285
741,865.7616927119333
742,865.722613917946
743,865.6874767657198
744,865.6564115881638
745,865.6295436211217
746,865.6069926913681
747,865.588872875567
748,865.5752921300432
749,865.5663518928257
750,865.5621466607295
751,865.5627635449932
752,865.568281809166
753,865.5787723928667
754,865.594297424991
755,865.6149097296795
756,865.6406523276044
757,865.671557934178
758,865.7076484557792
759,865.7489344855029
760,865.7954148011601
761,865.8470758698177
762,865.9038913645452
763,865.9658216998895
764,866.0328135929522
765,866.1047996570312
766,866.1816980348221
767,866.2634120782742
768,866.3498300823509
769,866.4408250799522
770,866.5362547046641
771,866.6359611266755
772,866.7397710654518
773,866.8474958809422
774,866.9589317434405
775,867.0738598810113
776,867.1920469028829
777,867.3132451972227
778,867.4371934017379
779,867.5636169452832
780,867.6922286582885
781,867.8227294495819
782,867.9548090471968
783,868.0881468010286
784,868.2224125456323
785,868.3572675217027
786,868.4923653545551
787,868.627353087231
788,868.7618722650286
789,868.8955600676672
790,869.0280504852838
791,869.1589755351163
792,869.287966516745
793,869.4146553045654
794,869.5386756763131
795,869.6596646758791
796,869.7772640076237
797,869.891121458231
798,870.0008923409682
799,870.1062409561737
800,870.2068420609938
801,870.3023823407699
802,870.3925618739646
803,870.4770955820929
804,870.5557146556708
805,870.6281679464862
806,870.694223315524
807,870.7536689250288
808,870.8063144628455
809,870.8519922872841
810,870.8905584809069
811,870.9218938014906
812,870.9459045181644
813,870.9625231210173
814,870.971708893844
815,870.9734483418176
816,870.9677554680349
817,870.9546718949006
818,870.9342668285146
819,870.906636866685
820,870.8719056534192
821,870.8302233841779
822,870.7817661666222
823,870.7267352414223
824,870.6653560676762
825,870.5978772782779
826,870.5245695121926
827,870.4457241323848
828,870.3616518394255
829,870.2726811915164
830,870.1791570421731
831,870.0814389074022
832,869.9798992749495
833,869.874921868845
834,869.7668998827218
835,869.6562341951477
836,869.5433315797939
837,869.4286029228861
838,869.312461460069
839,869.1953210444407
840,869.0775944569561
841,868.9596917695816
842,868.8420187704571
843,868.7249754590099
844,868.6089546175411
845,868.4943404641493
846,868.3815073897063
847,868.2708187791909
848,868.1626259157119
849,868.0572669645666
850,867.9550660347271
851,867.8563323159796
852,867.7613592911164
853,867.6704240235184
854,867.5837865207934
855,867.5016891751358
856,867.4243562810517
857,867.3519936309879
858,867.2847881890559
859,867.2229078427271
860,867.1665012325337
861,867.1156976603608
862,867.0706070771027
863,867.0313201496921
864,866.9979084059884
865,866.9704244545566
866,866.9489022755328
867,866.9333575785737
868,866.9237882239614
869,866.9201747030409
870,866.9224806742436
871,866.9306535508966
872,866.9446251366297
873,866.9643123035218
874,866.9896177076121
875,867.0204305363743
876,867.0566272829357
877,867.0980725418689
878,867.1446198214155
879,867.1961123672708
880,867.2523839935019
881,867.3132599164999
882,867.3785575880919
883,867.4480875243261
884,867.5216541270378
885,867.5990564957311
886,867.6800892269849
887,867.7645431974206
888,867.8522063247109
889,867.9428642999083
890,868.0363012839565
891,868.1323005616704
892,868.2306451474083
893,868.3311183377148
894,868.4335042071386
895,868.5375880443329
896,868.6431567266155
897,868.7499990323162
898,868.857905891291
899,868.9666705751542
900,869.0760888302779
901,869.1859589583406
902,869.2960818507455
903,869.406260984316
904,869.5163023862659
905,869.6260145766657
906,869.7352084966361
907,869.8436974302319
908,869.9512969272175
909,870.0578247327197
910,870.1631007285179
911,870.266946889927
912,870.3691872619448
913,870.4696479582542
914,870.5681571864206
915,870.6645453020622
916,870.7586448942212
917,870.8502909040212
