frame_number,force
0,615.4479300081972
1,615.5367367978749
2,615.6254142794782
3,615.7138338971597
4,615.8018685921201
5,615.889393532787
6,615.9762868231716
7,616.0624301820208
8,616.1477095849917
9,616.2320158620689
10,616.3152452436008
11,616.3972998507193
12,616.4780881284413
13,616.5575252209395
14,616.635533287968
15,616.7120417604243
16,616.7869875330709
17,616.8603150940197
18,616.9319765927489
19,617.0019318498584
20,617.070148312192
21,617.1366009570029
22,617.2012721488987
23,617.2641514532808
24,617.325235410063
25,617.3845272722386
26,617.4420367154733
27,617.4977795265373
28,617.5517772787587
29,617.6040570011513
30,617.6546508450638
31,617.7035957494966
32,617.7509331048445
33,617.7967084149689
34,617.8409709586048
35,617.8837734522335
36,617.9251717170276
37,617.9652243524383
38,618.0039924192179
39,618.0415391356125
40,618.0779295915399
41,618.1132304857363
42,618.1475098897164
43,618.1808370404001
44,618.213282161223
45,618.2449163098305
46,618.275811248897
47,618.3060393352797
48,618.3356734222745
49,618.3647867705301
50,618.3934529644412
51,618.421745831518
52,618.4497393623215
53,618.4775076287143
54,618.5051246987222
55,618.532664546901
56,618.5602009595889
57,618.5878074349049
58,618.6155570779457
59,618.6435224921245
60,618.6717756678161
61,618.7003878695323
62,618.7294295229227
63,618.7589701029856
64,618.7890780247587
65,618.8198205371589
66,618.8512636194811
67,618.8834718787863
68,618.916508445606
69,618.9504348653691
70,618.9853109835537
71,619.0211948235295
72,619.0581424571803
73,619.0962078695437
74,619.1354428197056
75,619.1758967007523
76,619.2176164011421
77,619.2606461682273
78,619.3050274725632
79,619.3507988701533
80,619.3979958592622
81,619.4466507285732
82,619.4967923941809
83,619.5484462244182
84,619.6016338535868
85,619.6563729876112
86,619.7126772060418
87,619.7705557657979
88,619.8300134126705
89,619.8910502068455
90,619.9536613685412
91,620.0178371494455
92,620.0835627351154
93,620.1508181827907
94,620.219578397934
95,620.2898131512032
96,620.3614871357638
97,620.4345600630429
98,620.5089867933226
99,620.5847174964177
100,620.6616978377855
101,620.7398691867518
102,620.8191688451913
103,620.8995302961035
104,620.9808834719887
105,621.0631550429872
106,621.1462687241169
107,621.2301455989378
108,621.314704453803
109,621.3998621138901
110,621.4855337708159
111,621.5716332921476
112,621.6580735051853
113,621.7447664502461
114,621.8316236014214
115,621.9185560546521
116,622.0054746836187
117,622.0922902633312
118,622.1789135599504
119,622.2652553844807
120,622.3512266085762
121,622.4367381426557
122,622.5217008787594
123,622.6060256023194
124,622.6896228783472
125,622.7724029189607
126,622.8542754410316
127,622.9351495248058
128,623.0149334857997
129,623.0935347721719
130,623.170859897813
131,623.2468144183204
132,623.3213029538708
133,623.39422926023
134,623.4654963465501
135,623.5350066362985
136,623.6026621660926
137,623.6683648164209
138,623.7320165676215
139,623.7935197738013
140,623.8527774469261
141,623.9096935436362
142,623.9641732486434
143,624.0161232505375
144,624.0654520077936
145,624.1120700041513
146,624.1558899933835
147,624.1968272342182
148,624.234799717035
149,624.2697283847011
150,624.3015373500881
151,624.3301541122128
152,624.3555097718786
153,624.3775392470175
154,624.3961814882327
155,624.411379695947
156,624.4230815411433
157,624.4312393916359
158,624.4358105457176
159,624.4367574755734
160,624.4340480837307
161,624.4276559759998
162,624.4175607531654
163,624.40374832149
164,624.386211219841
165,624.3649489597316
166,624.3399683739334
167,624.3112839692296
168,624.2789182786994
169,624.242902208205
170,624.2032753706189
171,624.1600864003346
172,624.1133932398205
173,624.0632633889493
174,624.0097741065564
175,623.9530125529275
176,623.8930758623511
177,623.830071136191
178,623.7641153483472
179,623.6953351566059
180,623.6238666160648
181,623.5498547946636
182,623.4734532948623
183,623.3948236888835
184,623.3141348775947
185,623.2315623850428
186,623.1472876016242
187,623.0614969889621
188,622.9743812593222
189,622.8861345421544
190,622.7969535496304
191,622.707036751099
192,622.6165835632049
193,622.5257935589797
194,622.4348656966939
195,622.3439975680652
196,622.2533846650593
197,622.1632196643972
198,622.0736917289485
199,621.9849858256588
200,621.8972820603148
201,621.8107550298213
202,621.7255731925527
203,621.6418982568794
204,621.5598845874993
205,621.4796786290592
206,621.40141834684
207,621.325232684829
208,621.2512410422918
209,621.179552771218
210,621.1102666987706
211,621.0434706805056
212,620.9792411906703
213,620.917642955094
214,620.8587286309884
215,620.8025385374335
216,620.749100440401
217,620.698429395911
218,620.6505276537544
219,620.6053846226284
220,620.5629768964765
221,620.5232683416424
222,620.4862102447074
223,620.4517415210661
224,620.419788984583
225,620.390267679383
226,620.3630812758503
227,620.3381225335517
228,620.3152738335609
229,620.2944077816991
230,620.2753878831255
231,620.2580692879079
232,620.2422996064344
233,620.227919792229
234,620.214765087607
235,620.2026660250849
236,620.1914494754644
237,620.1809397325924
238,620.1709596246562
239,620.1613316416665
240,620.1518790680148
241,620.1424271078985
242,620.1328039906099
243,620.1228420427769
244,620.1123787158747
245,620.1012575594292
246,620.0893291326887
247,620.0764518494694
248,620.0624927521238
249,620.0473282115661
250,620.030844551727
251,620.0129385985033
252,619.993518154047
253,619.9725023963637
254,619.9498222023082
255,619.9254203904961
256,619.8992518800605
257,619.8712837614431
258,619.8414952761083
259,619.809877703103
260,619.7764341518674
261,619.7411792624828
262,619.7041388160802
263,619.6653492591104
264,619.6248571459665
265,619.5827185055141
266,619.538998138376
267,619.4937688530354
268,619.4471106498313
269,619.3991098627088
270,619.349858268953
271,619.2994521769085
272,619.2479915010746
273,619.1955788336693
274,619.1423185223406
275,619.0883157649762
276,619.0336757335995
277,618.9785027392519
278,618.9228994482971
279,618.8669661579306
280,618.8108001353087
281,618.754495021565
282,618.6981403000716
283,618.6418208278675
284,618.5856164296648
285,618.5296015544858
286,618.4738449950733
287,618.4184096692927
288,618.3633524610975
289,618.308724117268
290,618.2545691959017
291,618.2009260634268
292,618.1478269377338
293,618.0952979748827
294,618.0433593956441
295,617.9920256468074
296,617.9413055916528
297,617.8912027242266
298,617.8417154025018
299,617.7928370961296
300,617.7445566457418
301,617.6968585323817
302,617.6497231564027
303,617.6031271243588
304,617.5570435407442
305,617.5114423002218
306,617.4662903758193
307,617.4215520993051
308,617.377189431214
309,617.333162219418
310,617.2894284465311
311,617.2459444677767
312,617.2026652422273
313,617.1595445611686
314,617.1165352771833
315,617.0735895365121
316,617.0306590162703
317,616.987695167837
318,616.9446494676747
319,616.901473676201
320,616.8581201041627
321,616.8145418850604
322,616.7706932521484
323,616.726529819095
324,616.6820088637879
325,616.6370896146885
326,616.5917335388187
327,616.5459046299333
328,616.4995696944941
329,616.4526986317035
330,616.4052647024133
331,616.3572447805635
332,616.308619580249
333,616.259373851892
334,616.2094965424183
335,616.1589809165607
336,616.1078246388633
337,616.0560298179639
338,616.0036030158528
339,615.9505552251383
340,615.8969018173682
341,615.8426624655403
342,615.7878610439192
343,615.7325255078142
344,615.6766877551822
345,615.6203834713414
346,615.563651957794
347,615.5065359456487
348,615.4490813930616
349,615.3913372648649
350,615.3333552918674
351,615.2751897077886
352,615.2168969632796
353,615.1585354182523
354,615.100165015039
355,615.0418469358008
356,614.9836432487926
357,614.9256165499264
358,614.8678296076617
359,614.8103450191625
360,614.7532248836
361,614.6965304955812
362,614.6403220591152
363,614.5846584209148
364,614.5295968214743
365,614.4751926632277
366,614.4214992964845
367,614.3685678247562
368,614.3164469310149
369,614.2651827255804
370,614.2148186152847
371,614.1653951928599
372,614.1169501454139
373,614.0695181812396
374,614.0231309746524
375,613.9778171287911
376,613.9336021564183
377,613.8905084789179
378,613.8485554440215
379,613.8077593629816
380,613.7681335673391
381,613.7296884838512
382,613.6924317241504
383,613.6563681842897
384,613.6215001491448
385,613.587827397408
386,613.5553473037426
387,613.5240549349902
388,613.4939431374224
389,613.4650026126496
390,613.4372219813167
391,613.4105878358612
392,613.3850847858412
393,613.3606955008748
394,613.3374007564158
395,613.3151794865545
396,613.294008846755
397,613.2738642886466
398,613.254719648663
399,613.2365472523213
400,613.2193180361887
401,613.203001689775
402,613.1875668192229
403,613.1729811337277
404,613.1592116543984
405,613.146224943931
406,613.1339873538276
407,613.1224652840095
408,613.1116254481785
409,613.1014351379578
410,613.0918624798267
411,613.0828766804559
412,613.0744482575243
413,613.0665492543179
414,613.0591534375151
415,613.0522364785866
416,613.0457761202708
417,613.0397523307254
418,613.0341474489279
419,613.028946325011
420,613.024136457886
421,613.019708129677
422,613.0156545327335
423,613.0119718813322
424,613.0086594976515
425,613.0057198610177
426,613.003158611227
427,613.0009845003564
428,612.999209291241
429,612.9978476030938
430,612.9969167054618
431,612.9964362621731
432,612.9964280283588
433,612.9969155060785
434,612.9979235666714
435,612.9994780496357
436,613.0016053480435
437,613.0043319894181
438,613.0076842193297
439,613.0116875931657
440,613.0163665799629
441,613.0217441814139
442,613.0278415695109
443,613.0346777473148
444,613.0422692382051
445,613.05062980912
446,613.0597702326323
447,613.069698091527
448,613.0804176284643
449,613.091929642592
450,613.1042314341198
451,613.1173167963626
452,613.131176052868
453,613.1457961356784
454,613.1611607000285
455,613.1772502708311
456,613.1940424167633
457,613.2115119479769
458,613.2296311330371
459,613.248369930071
460,613.2676962271205
461,613.2875760877107
462,613.307973999206
463,613.3288531227844
464,613.3501755442393
465,613.371902524288
466,613.393994746075
467,613.4164125565671
468,613.4391161979976
469,613.4620660258046
470,613.485222710637
471,613.5085474234703
472,613.5320020040649
473,613.5555491137177
474,613.5791523735382
475,613.6027764890425
476,613.6263873604738
477,613.6499521767178
478,613.6734394902279
479,613.6968192714176
480,613.7200629427123
481,613.7431433940067
482,613.7660349821771
483,613.7887135175632
484,613.81115624019
485,613.8333417882475
486,613.8552501610044
487,613.8768626779433
488,613.8981619357114
489,613.9191317645857
490,613.9397571862662
491,613.9600243746764
492,613.979920621201
493,613.9994343055878
494,614.0185548734491
495,614.0372728206803
496,614.0555796843765
497,614.0734680394212
498,614.0909314999503
499,614.1079647251278
500,614.1245634290792
501,614.1407243954867
502,614.1564454980099
503,614.1717257281649
504,614.1865652325548
505,614.200965361273
506,614.2149287285785
507,614.2284592855949
508,614.2415624033048
509,614.2542449629303
510,614.2665154500605
511,614.2783840487314
512,614.2898627323092
513,614.3009653491308
514,614.3117077014192
515,614.3221076155222
516,614.3321850005452
517,614.3419618916909
518,614.3514624742071
519,614.3607130837829
520,614.3697421799114
521,614.3785802905193
522,614.3872599286441
523,614.3958154840013
524,614.4042830929978
525,614.4127004901596
526,614.4211068427331
527,614.4295425691507
528,614.438049141729
529,614.4466688744815
530,614.4554446977496
531,614.4644199219748
532,614.4736379933344
533,614.48314224447
534,614.4929756444151
535,614.5031805528513
536,614.5137984841874
537,614.5248698861691
538,614.5364339363641
539,614.5485283590027
540,614.5611892646057
541,614.5744510150408
542,614.588346116418
543,614.6029051412372
544,614.6181566796238
545,614.6341273179912
546,614.6508416428419
547,614.6683222677219
548,614.6865898818195
549,614.7056633185416
550,614.7255596415472
551,614.7462942447399
552,614.7678809621323
553,614.7903321830659
554,614.8136589674086
555,614.8378711540992
556,614.8629774556539
557,614.8889855317732
558,614.9159020369182
559,614.9437326389716
560,614.9724820081663
561,615.0021537771893
562,615.032750474894
563,615.0642734372477
564,615.0967226995454
565,615.1300968732801
566,615.164393009869
567,615.1996064525281
568,615.235730677529
569,615.272757126809
570,615.3106750350087
571,615.3494712549049
572,615.3891300854865
573,615.4296331065061
574,615.4709590226514
575,615.5130835201146
576,615.5559791385068
577,615.5996151614422
578,615.6439575292085
579,615.6889687765346
580,615.7346079977001
581,615.7808308404025
582,615.8275895291213
583,615.8748329183701
584,615.9225065764361
585,615.9705529009614
586,616.0189112686569
587,616.0675182221646
588,616.1163076972796
589,616.1652112930364
590,616.2141585853092
591,616.2630774820533
592,616.3118946160232
593,616.3605357693754
594,616.4089263239539
595,616.4569917307638
596,616.504657991607
597,616.5518521449562
598,616.5985027470558
599,616.6445403384137
600,616.6898978858374
601,616.7345111912158
602,616.7783192599038
603,616.821264623359
604,616.8632936125659
605,616.9043565807053
606,616.9444080750799
607,616.9834069591464
608,617.0213164856934
609,617.0581043221412
610,617.0937425289908
611,617.1282074928612
612,617.1614798163339
613,617.1935441679236
614,617.2243890966765
615,617.2540068169981
616,617.2823929703256
617,617.3095463710349
618,617.3354687441246
619,617.36016446166
620,617.3836402841599
621,617.4059051127547
622,617.4269697581454
623,617.446846732467
624,617.4655500692309
625,617.4830951744443
626,617.4994987095359
627,617.5147785048242
628,617.5289535011849
629,617.5420437169297
630,617.5540702362748
631,617.5650552148646
632,617.5750218965718
633,617.583994634784
634,617.5919989116572
635,617.5990613507063
636,617.605209720694
637,617.6104729306293
638,617.614881015865
639,617.6184651142065
640,617.621257429902
641,617.6232911835773
642,617.6246005476463
643,617.6252205685977
644,617.6251870787987
645,617.6245366005302
646,617.6233062439937
647,617.6215335996891
648,617.6192566247098
649,617.6165135226495
650,617.6133426178434
651,617.6097822260265
652,617.6058705244568
653,617.601645424522
654,617.5971444486946
655,617.5924046118668
656,617.5874623051666
657,617.5823531789479
658,617.5771120214625
659,617.571772631058
660,617.5663676817809
661,617.560928583811
662,617.5554853407328
663,617.5500664056011
664,617.5446985376582
665,617.539406661912
666,617.5342137345864
667,617.5291406180514
668,617.5242059687146
669,617.5194261409638
670,617.5148151105591
671,617.5103844215377
672,617.5061431600234
673,617.5020979554541
674,617.4982530060498
675,617.4946101229178
676,617.4911687868254
677,617.4879262130463
678,617.4848774220758
679,617.4820153162168
680,617.4793307629027
681,617.4768126851689
682,617.4744481592318
683,617.4722225196754
684,617.4701194738946
685,617.4681212281135
686,617.4662086269427
687,617.4643613074907
688,617.4625578682854
689,617.4607760531288
690,617.4589929503636
691,617.4571852083434
692,617.4553292676477
693,617.4534016097036
694,617.4513790202357
695,617.4492388645897
696,617.4469593706834
697,617.444519914433
698,617.4419013021712
699,617.4390860446846
700,617.4360586178476
701,617.4328057051207
702,617.4293164170585
703,617.4255824824239
704,617.4215984051783
705,617.4173615822446
706,617.4128723783119
707,617.4081341552501
708,617.4031532546397
709,617.397938933074
710,617.3925032516723
711,617.3868609232395
712,617.3810291217227
713,617.3750272584575
714,617.3688767284592
715,617.3626006285914
716,617.3562234486856
717,617.3497707369945
718,617.3432687425269
719,617.3367440381892
720,617.3302231298543
721,617.3237320577069
722,617.3172959976586
723,617.3109388717808
724,617.3046829768828
725,617.2985486395826
726,617.2925539052349
727,617.2867142674713
728,617.2810424447296
729,617.2755482094648
730,617.2702382744933
731,617.2651162390997
732,617.2601825953286
733,617.2554347926356
734,617.250867357137
735,617.2464720601263
736,617.2422381292051
737,617.2381524943905
738,617.234200061165
739,617.2303640028675
740,617.2266260659827
741,617.222966883416
742,617.219366292565
743,617.2158036570002
744,617.2122581926699
745,617.2087093008456
746,617.2051369094022
747,617.2015218212418
748,617.1978460647659
749,617.1940932378434
750,617.1902488347484
751,617.1863005453336
752,617.1822385168591
753,617.1780555707257
754,617.1737473684453
755,617.1693125235482
756,617.1647526585374
757,617.1600724078959
758,617.1552793691761
759,617.1503840046722
760,617.14539949681
761,617.1403415614707
762,617.1352282246281
763,617.1300795684077
764,617.1249174528514
765,617.119765219351
766,617.1146473807929
767,617.1095893019841
768,617.1046168725292
769,617.099756173904
770,617.0950331433556
771,617.0904732385849
772,617.0861011076283
773,617.0819402677389
774,617.0780127964899
775,617.0743390386566
776,617.0709373332777
777,617.0678237658177
778,617.0650119501239
779,617.0625128437625
780,617.0603345983999
781,617.0584824449389
782,617.0569586120947
783,617.055762277183
784,617.0548895485966
785,617.0543334801089
786,617.0540841171645
787,617.0541285745286
788,617.0544511436416
789,617.0550334276111
790,617.0558545022715
791,617.0568911029703
792,617.0581178382294
793,617.0595074324859
794,617.0610310000083
795,617.0626583505608
796,617.0643583250023
797,617.0660991565799
798,617.0678488518688
799,617.0695755843035
800,617.0712480930222
801,617.0728360801722
802,617.0743106004498
803,617.0756444369765
804,617.0768124574801
805,617.0777919443569
806,617.0785628918127
807,617.0791082631561
808,617.0794142016658
809,617.079470189336
810,617.0792691492042
811,617.0788074887813
812,617.0780850841724
813,617.0771052066636
814,617.0758743957239
815,617.074402284304
816,617.0727013837867
817,617.0707868366934
818,617.068676145181
819,617.0663888824904
820,617.0639463931434
821,617.0613714862557
822,617.0586881253261
823,617.0559211175195
824,617.0530958055388
825,617.0502377652772
826,617.0473725124783
827,617.0445252217504
828,617.041720461282
829,617.0389819460354
830,617.0363323112207
831,617.0337929073455
832,617.0313836185558
833,617.029122706786
834,617.0270266845563
835,617.0251102186274
836,617.0233860651567
837,617.0218650347908
838,617.0205559838457
839,617.0194658260232
840,617.0185995582913
841,617.017960294449
842,617.0175493002636
843,617.017366024936
844,617.0174081248205
845,617.0176714761088
846,617.0181501733098
847,617.0188365105565
848,617.0197209438134
849,617.0207920334718
850,617.0220363677886
851,617.0234384681603
852,617.0249806781616
853,617.0266430398219
854,617.0284031621699
855,617.0302360881618
856,617.0321141670127
857,617.0340069398345
858,617.0358810470115
859,617.0377001656649
860,617.039424985294
861,617.0410132296786
862,617.0424197332301
863,617.0435965793589
864,617.0444933067417
865,617.0450571872019
866,617.0452335770948
867,617.044966342656
868,617.0441983580034
869,617.0428720716595
870,617.0409301337621
871,617.0383160726445
872,617.0349750071014
873,617.0308543792369
874,617.0259046917189
875,617.0200802325187
876,617.0133397701501
877,617.005647202817
878,616.9969721451549
879,616.9872904365685
880,616.9765845564658
881,616.964843934471
882,616.9520651473416
883,616.9382519979163
884,616.923415474913
885,616.9075735962423
886,616.8907511425567
887,616.8729792909736
888,616.8542951604799
889,616.8347412807688
890,616.8143649959952
891,616.7932178145805
892,616.7713547157289
893,616.7488334228519
894,616.7257136539041
895,616.7020563588609
896,616.6779229552608
897,616.6533745736524
898,616.6284713254288
899,616.6032716054718
900,616.5778314414341
901,616.5522039007867
902,616.5264385659895
903,616.5005810868769
904,616.4746728172688
905,616.4487505400384
906,616.4228462818733
907,616.3969872163888
908,616.3711956524254
909,616.3454891029425
910,616.3198804284234
911,616.2943780472248
912,616.2689862042457
913,616.2437052886277
914,616.2185321904609
915,616.1934606855157
916,616.1684818361755
917,616.1435843965913
