acceleration,velocity,displacement
-0.040226838850531896,0.0,0.0
-0.0388170978342451,-1.9760984171194248e-05,-4.940246042798562e-09
-0.03740940948642036,-3.8817611001360615e-05,-1.9584894835937278e-08
-0.03600581453447565,-5.717141700658462e-05,-4.358215183792359e-08
-0.034608329941323776,-7.482495312553447e-05,-7.658124437095336e-08
-0.03321893731431781,-9.178176993944486e-05,-1.1823292513719819e-07
-0.031839571660636314,-0.0001080463971831834,-1.6818996691785526e-07
-0.030472110606238154,-0.00012362431774990201,-2.261076456511266e-07
-0.029118364201837183,-0.00013852193645192085,-2.916442092015823e-07
-0.027780065439350184,-0.00015274654386221768,-3.6446132928011694e-07
-0.026458861583975913,-0.0001663062756180492,-4.442245341501837e-07
-0.025156306389153428,-0.00017921006761133153,-5.306036199575289e-07
-0.02387385322140336,-0.00019146760751397073,-6.232730387388544e-07
-0.022612849103185874,-0.00020308928309511803,-7.219122613911266e-07
-0.021374529689880385,-0.0002140861277933846,-8.262061141132523e-07
-0.020160015212929372,-0.00022446976401908705,-9.358450870663702e-07
-0.018970307420533527,-0.00023425234467745276,-1.0505256142405052e-06
-0.017806287522180313,-0.00024344649341313123,-1.1699503237631512e-06
-0.016668715108924998,-0.0002520652440709076,-1.293828258134161e-06
-0.015558227998537138,-0.0002601219798477731,-1.4218750641138311e-06
-0.014475342947892354,-0.0002676303725843805,-1.5538131522218696e-06
-0.013420457174287085,-0.00027460432261492535,-1.689371826021696e-06
-0.01239385062631275,-0.0002810578995650753,-1.8282873815666962e-06
-0.01139568894538054,-0.0002870052844579986,-1.9703031775724647e-06
-0.010426027057753647,-0.00029246071345878215,-2.11516967705166e-06
-0.009484813324610413,-0.0002974384235543732,-2.2626444613049488e-06
-0.00857189415203535,-0.00030195260042353465,-2.4124922172994255e-06
-0.007687018936915841,-0.00030601732869577243,-2.5644846995792522e-06
-0.006829845218893311,-0.00030964654473472473,-2.7184006679368765e-06
-0.005999943932691408,-0.00031285399202262093,-2.874025802126213e-06
-0.005196804699826208,-0.0003156531791807503,-3.031152594927056e-06
-0.00441984114143673,-0.00031805734064106603,-3.1895802248825103e-06
-0.003668396216124906,-0.00032007939998045644,-3.349114410037891e-06
-0.0029417475843064728,-0.0003217319359305643,-3.509567244015646e-06
-0.0022391129831103073,-0.0003230271510724185,-3.6707570157663917e-06
-0.0015596555780315081,-0.00032397684321270394,-3.832508014337672e-06
-0.0009024892499259299,-0.0003245923794196933,-3.994650319995771e-06
-0.0002666837765637244,-0.00032488467267631575,-4.157019583019773e-06
0.0003487301355885991,-0.0003248641610865595,-4.3194567914604915e-06
0.0009447560286598045,-0.0003245407895454974,-4.481808029118506e-06
0.0015224271561535669,-0.00032392399374929406,-4.643924224942204e-06
0.0020828023103591268,-0.0003230226863826659,-4.805660894975194e-06
0.002626962075395196,-0.00032184524528622733,-4.966877877892418e-06
0.0031560055353072234,-0.0003203995033835517,-5.127439065059862e-06
0.0036710474343377253,-0.00031869274014114046,-5.287212125941036e-06
0.0041732157591825875,-0.0003167316743427604,-5.446068229562011e-06
0.004663649688341786,-0.0003145224579808793,-5.60388176264292e-06
0.005143497832523791,-0.0003120706711006629,-5.760530044913306e-06
0.005613916683022797,-0.00030938131747177626,-5.915893042056416e-06
0.006076069197559429,-0.0003064588210016307,-6.069853076674768e-06
0.00653112347306975,-0.0003033070228339734,-6.222294537633669e-06
0.0069802514657754285,-0.00029992917909926205,-6.373103588116978e-06
0.007424627720197962,-0.0002963279593027687,-6.5221678727174855e-06
0.007865428071468856,-0.000292505445354852,-6.669376223881891e-06
0.008303828293805812,-0.00028846313126353333,-6.814618368036487e-06
0.008741002677665637,-0.00028420192352066547,-6.957784631732537e-06
0.009178122525691376,-0.00027972214221982624,-7.0987656481676605e-06
0.009616354565260986,-0.00027502352294708814,-7.237452064459389e-06
0.010056859284820183,-0.00027010521948456787,-7.3737342500673024e-06
0.010500789208965832,-0.00026496580736112135,-7.507502006778724e-06
0.010949287130772553,-0.00025960328827618674,-7.638644280688052e-06
0.011403484320784616,-0.00025401509541329745,-7.767048876610423e-06
0.011864498733239479,-0.00024819809964979144,-7.892602175376195e-06
0.01233343323149863,-0.0002421486166586069,-8.015188854453294e-06
0.012811373852849658,-0.00023586241488751983,-8.134691612339825e-06
0.013299388123283837,-0.00022933472439348645,-8.250990897160076e-06
0.013798523414503576,-0.0002225602465090396,-8.363964639885709e-06
0.014309805315026281,-0.00021553316432665714,-8.473487992594633e-06
0.014834235974575196,-0.00020824715400425678,-8.579433072177361e-06
0.015372792380557795,-0.00020069539691547353,-8.681668709907294e-06
0.015926424534948604,-0.00019287059268659692,-8.780060207307812e-06
0.01649605351511221,-0.0001847649731740817,-8.874469098772981e-06
0.017082569420048103,-0.00017637031744029163,-8.964752921426575e-06
0.017686829221638285,-0.00016767796777987002,-9.050764992731616e-06
0.018309654556457302,-0.00015867884683534614,-9.13235419638542e-06
0.018951829502612365,-0.00014936347582057872,-9.209364777049401e-06
0.019614098379125887,-0.00013972199385014415,-9.281636144467083e-06
0.020297163579448354,-0.0001297441783605006,-9.349002687519744e-06
0.021001683417466922,-0.00011941946661127179,-9.411293598762686e-06
0.021728269940746184,-0.00010873697827171851,-9.468332709983434e-06
0.022477486657547927,-9.768553912214498e-05,-9.519938339331901e-06
0.023249846126443353,-8.625370592614716e-05,-9.565923150593975e-06
0.024045807368693634,-7.44297925523629e-05,-9.606094025213602e-06
0.024865773087508418,-6.22018974383124e-05,-9.64025194771127e-06
0.025710086711164544,-4.9557932488644155e-05,-9.66819190519301e-06
0.026579029307899446,-3.6485653483878156e-05,-9.68970280168614e-06
0.027472816442864933,-2.297269204618706e-05,-9.704567388068656e-06
0.028391595062696364,-9.006589169796734e-06,-9.712562208372653e-06
0.029335440503257534,5.425169721691741e-06,-9.713457563234679e-06
0.030304353719954765,2.0335118277494814e-05,-9.707017491234883e-06
0.03129825883734629,3.573577141682008e-05,-9.692999768811304e-06
0.03231700110830692,5.163958640323338e-05,-9.67115592935629e-06
0.033360345364691804,6.805892302148306e-05,-9.64123130200011e-06
0.034427975030178345,8.50060031202006e-05,-9.60296507046469e-06
0.035519491747853356,0.00010249286981470852,-9.556090352230963e-06
0.036634415649637486,0.00012053134666408123,-9.500334298111265e-06
0.03777218626607792,0.00013913299714301007,-9.435418212159492e-06
0.03893216404637278,0.00015830908472112275,-9.361057691693459e-06
0.04011363243143829,0.0001780705338405755,-9.276962787053035e-06
0.04131580040455008,0.0001984278920495726,-9.182838180580498e-06
0.042537805445692536,0.00021939129351213326,-9.078383384190072e-06
0.04377871683699671,0.00024097042408280557,-8.963292954791336e-06
0.04503753929286238,0.00026317448811527034,-8.837256726741818e-06
0.04631321690591951,0.0002860121771649658,-8.699960060421759e-06
0.0476046374072877,0.0003094916407432676,-8.5510841059447e-06
0.04891063674057987,0.00033362045928023447,-8.390306080938824e-06
0.05023000393905999,0.00035840561945014445,-8.217299561256229e-06
0.051561486263577205,0.00038385349200080373,-8.031734783393491e-06
0.05290379450854571,0.0004099698121938345,-7.833278957344831e-06
0.05425560833619883,0.0004367596629050206,-7.6215965885701175e-06
0.05561558147721453,0.0004642274603583739,-7.396349807754269e-06
0.05698234664398146,0.000492376942388673,-7.157198707067507e-06
0.058354520035430554,0.000521211159058526,-6.9038016817057075e-06
0.05973070535772868,0.0005507324654068158,-6.635815775589372e-06
0.061109497328635354,0.0005809425160784068,-6.352897030218066e-06
0.06248948466305515,0.0006118422615763294,-6.054700835804382e-06
0.06386925254767618,0.0006434319458790122,-5.740882283940547e-06
0.06524738460286637,0.0006757111051666479,-5.4110965211791315e-06
0.06662246430851994,0.0007086785673944945,-5.064999103038846e-06
0.0679930758563887,0.0007423324524357217,-4.702246348081292e-06
0.0693578044009921,0.0007766701725000669,-4.322495691847345e-06
0.07071523571221204,0.0008116884325283679,-3.925406040590236e-06
0.07206395526818193,0.0008473832302734664,-3.5106381248897773e-06
0.07340254685471495,0.0008837498558041906,-3.0778548533703633e-06
0.07472959075860952,0.0009207828902075217,-2.6267216668674352e-06
0.07604366166474337,0.00095847620331336,-2.156906893487215e-06
0.07734332639633795,0.0009968229503286303,-1.6680821050767174e-06
0.07862714167065113,0.0010358155673453775,-1.1599224756582155e-06
0.0798936520654436,0.0010754457657794012,-6.321071423770208e-07
0.08114138838981572,0.001115704525893216,-8.431956945886647e-08
0.08236886662206978,0.0011565820896461874,4.837520844259844e-07
0.0835745875283225,0.0011980679531837855,1.0724145951334776e-06
0.08475703702559295,0.0012401508593222644,1.68196929825999e-06
0.08591468730902109,0.0012828187904059178,2.3127117106920355e-06
0.08704599872182398,0.001326058961913629,2.9649311487719224e-06
0.08814942230990555,0.0013698578171715615,3.63891034354322e-06
0.08922340297822515,0.0014142010234935941,4.334925053709509e-06
0.09026638315330657,0.0014590734700264771,5.053243677089526e-06
0.09127680684671567,0.0015044592675264826,5.7941268614777665e-06
0.092253124003315,0.0015503417502389903,6.5578271159191344e-06
0.09319379501098052,0.0015967034799925642,7.3445884234770235e-06
0.09409729525358965,0.0016435262525587068,8.154645856614841e-06
0.09496211960972947,0.0016907911062745366,8.988225196323152e-06
0.0957867868309182,0.0017384783328846984,9.84554255611296e-06
0.09656984376427656,0.001786567490533497,1.072680401196751e-05
0.09730986940647125,0.001835037418826184,1.163220523930743e-05
0.09800547878924612,0.0018838662558751135,1.2561931157982755e-05
0.0986553267086183,0.0019330314572495795,1.3516155586263929e-05
0.09925811132352651,0.001982509816757616,1.4495040904765727e-05
0.09981257766142555,0.0020322774890038538,1.5498737731206093e-05
0.10031752107120748,0.002082310013687012,1.652738460687881e-05
0.10077179065427502,0.0021325823416183825,1.7581107695705157e-05
0.10117429268768517,0.0021830688624538725,1.866002049672322e-05
0.1015239940425393,0.0022337434341364285,1.9764223570870793e-05
0.10181992560556566,0.0022845794140484545,2.0893804282917015e-05
0.10206118572617709,0.00233554969188139,2.2048836559399474e-05
0.10224694372057667,0.0023866267242430785,2.322938066343059e-05
0.10237644346362401,0.0024377825710391286,2.443548298725114e-05
0.10244900709782415,0.0024889889336794906,2.5667175863430796e-05
0.1024640388973306,0.0025402171951782794,2.6924477395645237e-05
0.1024210293388981,0.0025914384622373367,2.820739130999914e-05
0.10231955943460949,0.0026426236094307136,2.9515906827916152e-05
0.1021593053622598,0.0026937433256299308,3.0849998561681316e-05
0.10194004339436097,0.0027447681628190858,3.220962643379357e-05
0.10166165509104522,0.0027956685874404373,3.359473562135845e-05
0.10132413269794886,0.002846415034387686,3.500525652681548e-05
0.10092758468018632,0.0028969779637322197,3.6441104776345456e-05
0.10047224132203304,0.0029473279202327746,3.79021812473367e-05
0.0999584603191784,0.0029974355956430775,3.9388372126305664e-05
0.09938673227895019,0.0030472718937926096,4.0899548998664586e-05
0.0987576860259155,0.003096807998368826,4.2435568971704945e-05
0.09807209359450456,0.003146015443273931,4.399627483211563e-05
0.09733087477783892,0.0031948661853670166,4.558149523927587e-05
0.09653510108564708,0.003243332679332888,4.719104495545084e-05
0.09568599894385546,0.0032913879543402637,4.882472511386913e-05
0.09478495195646604,0.003339005692065344,5.048232352547053e-05
0.09383350205727914,0.0033861603055687804,5.216361502487906e-05
0.09283334939991894,0.00343282701843308,5.386836185587953e-05
0.09178635085710127,0.003478981943497335,5.5596314096362134e-05
0.090694517025953,0.0035246021604680984,5.7347210122353495e-05
0.08956000767885729,0.003569665791644301,5.9120777110381595e-05
0.08838512566028653,0.003614152074979087,6.0916731577037445e-05
0.08717230929380711,0.0036580414337176103,6.273477995421162e-05
0.08592412341697248,0.0037013155418953053,6.457461919811486e-05
0.08464324920406507,0.003743957385050565,6.643593742985132e-05
0.08333247296736229,0.0037859513155934217,6.831841460501232e-05
0.0819946741430257,0.0038272831023710187,7.022172320950342e-05
0.08063281266913377,0.0038679399740740588,7.214552897861469e-05
0.07924991595951544,0.003907910656231221,7.408949163619102e-05
0.0778490656732312,0.003947185401639407,7.605326565065867e-05
0.07643338446810617,0.003985756014174741,7.803650100461221e-05
0.07500602289583394,0.0040236158660157265,8.003884397465982e-05
0.07357014654571496,0.004060759908376114,8.205993791825778e-05
0.07212892348957643,0.004097184675884937,8.409942406432304e-05
0.0706855120403768,0.004132888284767425,8.615694230448613e-05
0.06924304881807185,0.004167870424982037,8.82321319819235e-05
0.06780463711063647,0.004202132346464214,9.032463267478506e-05
0.06637333551614956,0.004235676839620911,9.243408497130635e-05
0.06495214685294586,0.004268508210213184,9.456013123376487e-05
0.06354400733221746,0.004300632248759475,9.670241634850803e-05
0.06215177599791359,0.004332056194592008,9.886058845934591e-05
0.060778224444628146,0.004362788694702644,0.00010103429968166957
0.05942602682239733,0.0043928397575194005,0.00010322320679472509
0.05809775013001906,0.004422220701757505,0.00010542697190954432
0.05679584479101427,0.004450944100487763,0.00010764526311010563
0.055522635504046,0.004479023720561528,0.00010987775506536796
0.054280312364217466,0.004506474457528594,0.00011212412960989049
0.05307092226037816,0.004533312266184743,0.00011438407629081882
0.05189636056610212,0.004559554086891363,0.00011665729287908785
0.05075836316200615,0.004585217767823391,0.00011894348584276653
0.049658498854997596,0.004610321983327642,0.00012124237078055429
0.04859816228597492,0.004634886148612885,0.00012355367281353943
0.04757856742611637,0.004658930331040909,0.00012587712693345289
0.04660074174929678,0.004682475158334762,0.0001282124783057968
0.04566552114916057,0.004705541724059376,0.00013055948252639534
0.04477354566079179,0.004728151490761864,0.00013291790583010065
0.04392525604811171,0.00475032619118909,0.0001352875252505884
0.04312089131412246,0.004772087728029648,0.0001376681287303931
0.04236048717255938,0.0047934580726513186,0.00014005951518056333
0.04164387549445844,0.004814459163318073,0.00014246149448955567
0.04097068472626572,0.004835112803373254,0.00014487388748122851
0.040340341273358435,0.00485544055987316,0.00014729652582204012
0.03975207184683891,0.0048754636631532094,0.0001497292518777967
0.03920490677452199,0.00489520290780855,0.00015217191852053713
0.03869768428153342,0.004914678555572564,0.0001546243888863824
0.03822905575723079,0.004933910240582255,0.0001570865360854211
0.037797492041388076,0.00495291687753191,0.00015955824286494966
0.03740129077275779,0.004971716573235446,0.0001620394012276415
0.03703858483931898,0.004990326542138466,0.00016452991200648496
0.03670735195426194,0.005008763026336861,0.0001670296843986038
0.03640542536461644,0.005027041220666581,0.00016953863546035467
0.03613050568661298,0.005045175203429388,0.00017205668956637866
0.035880173849737386,0.005063177873313476,0.00017458377783556437
0.03565190511076623,0.005081060893053602,0.00017711983752715613
0.035443084065324745,0.005098834640347625,0.00017966481141050645
0.03525102054452939,0.0051165081665000885,0.00018221864711221838
0.035072966252525414,0.005134089163199352,0.00018478129644464324
0.03490613198623659,0.005151583937759043,0.00018735271471988284
0.03474770527634642,0.005168997397074688,0.00018993286005359128
0.03459486828523342,0.005186333040465083,0.0001925216926629762
0.03444481578547873,0.005203592961482761,0.00019511917416346317
0.034294773025138205,0.0052207778586854155,0.0001977252668685052
0.03414201327337278,0.005237887055260043,0.00020033993309699158
0.03398387484146707,0.005254918527288753,0.00020296313449262877
0.03381777739380059,0.0052718689403475705,0.00020559483135953785
0.03364123739672792,0.005288733694045203,0.00020823498201813604
0.03345188259067229,0.0053055069740420525,0.00021088354218515786
0.03324746540141885,0.005322181811040075,0.0002135404643814284
0.03302587522627739,0.005338750146196999,0.00021620569737073768
0.03278514954646191,0.005355202902390183,0.00021887918563288447
0.03252348383984196,0.00537153006073676,0.0002215608688736662
0.03223924029509983,0.005387720741770495,0.00022425068157429302
0.031930955340718783,0.00540376329067945,0.00022694855258240552
0.03159734598830231,0.005419645366011705,0.0002296544047465783
0.03123731495989307,0.005435354031248754,0.00023236815459589343
0.03084995454400641,0.0054508758486247295,0.0002350897120658618
0.030434549115772373,0.005466196974539674,0.0002378189802716529
0.02999057626069639,0.0054813032558837915,0.00024055585532925877
0.02951770645263348,0.0054961803265621235,0.00024330022622487025
0.02901580125301136,0.005510813703488535,0.0002460519747323829
0.028484910021854912,0.0055251888813072515,0.00024881097537858186
0.0279252651594458,0.005539291425102576,0.0002515770954551843
0.0273372759218577,0.005553107060372903,0.00025435019507655314
0.026721520869091773,0.00556662175957064,0.00025713012728153904
0.02607873901713939,0.005579821824542198,0.00025991673817756726
0.025409819782113208,0.005592693964242011,0.0002627098671247633
0.024715791825181205,0.005605225367143835,0.00026550934695760976
0.023997810926272695,0.005617403767831698,0.00026831500424135367
0.02325714703062125,0.005629217507320922,0.0002711266595601418
0.02249517062469277,0.005640655586734751,0.00027394412783365575
0.021713338603886682,0.005651707714041896,0.0002767672186588499
0.020913179790763722,0.005662364343640558,0.0002795957366732705
0.020096280252877043,0.005672616708651468,0.00028242948193634354
0.019264268564554918,0.005682456845855826,0.00028526825032497037
0.018418801166254196,0.005691877613288528,0.00028811183393975646
0.017561547995348634,0.005700872700578929,0.00029096002151822334
0.01669417857863528,0.0057094366322224255,0.0002938125988514237
0.015818348775470645,0.005717564764060952,0.00029666934920049453
0.014935688337187584,0.0057252532733391166,0.00029953005370984457
0.014047789406354818,0.005732499142775002,0.0003023944918138731
0.013156196025948112,0.005739300139133078,0.0003052624416343501
0.01226239467856087,0.005745654786809205,0.0003081336803658357
0.011367805845443151,0.005751562336940206,0.00031100798464677305
0.01047377656829134,0.005757022732543639,0.000313885130914144
0.009581574004393214,0.00576203657018681,0.00031676489573982664
0.008692379976001884,0.0057666050586819085,0.0003196470561470438
0.0078072865161872606,0.005770729975304955,0.00032253138990554056
0.006927292398759577,0.005774413620033692,0.00032541767580437523
0.006053300613709522,0.005777658768286809,0.0003283056939014554
0.005186116728019951,0.0057804686226222415,0.00033119522574918264
0.004326448067990142,0.0057828467638212444,0.00033408605459579353
0.003474903671819287,0.005784797101756197,0.0003369779655621879
0.002631994974298018,0.005786323826417726,0.00033987074579423137
0.0017981371832099186,0.005787431359457103,0.00034276418459070005
0.00097365128808846,0.005788124306574927,0.00034565807350720807
0.00015876662085268859,0.0057884074110521625,0.00034855220643661484
-0.0006463761205883423,0.005788285508677229,0.00035144637966654717
-0.0014417214708789448,0.005787763484279362,0.0003543403919147863
-0.0022272954959591403,0.005786846230037652,0.00035723404434336557
-0.003003201860208937,0.00578553860569861,0.00036012714055229963
-0.0037696177102069157,0.005783845400806006,0.0003630194865539258
-0.0045267893977231485,0.0057817712990290236,0.0003659108907288846
-0.005275028052411863,0.00577932084466649,0.00036880116376480844
-0.006014705027639598,0.0057764984113964765,0.0003716901185788242
-0.0067462472693395874,0.005773308173322232,0.0003745775702250039
