frame_number,force
0,699.1748600069744
1,699.2152636142517
2,699.255480789353
3,699.2953267087956
4,699.3346197385555
5,699.3731829624847
6,699.4108456391477
7,699.4474445725871
8,699.4828253857365
9,699.5168436870301
10,699.5493661221377
11,699.5802713044477
12,699.6094506199883
13,699.636808904597
14,699.6622649930754
15,699.685752141629
16,699.7072183258775
17,699.7266264170893
18,699.7439542394346
19,699.7591945115089
20,699.7723546764076
21,699.7834566258326
22,699.7925363246261
23,699.7996433428716
24,699.804840303401
25,699.8082022529056
26,699.8098159646557
27,699.8097791803383
28,699.8081997979994
29,699.8051950124917
30,699.8008904143263
31,699.7954190526399
32,699.7889204681509
33,699.7815397023135
34,699.773426289417
35,699.7647332393243
36,699.755616019808
37,699.7462315484823
38,699.7367372046067
39,699.727289870487
40,699.7180450111096
41,699.70915579926
42,699.7007722918582
43,699.6930406619014
44,699.6861024895065
45,699.680094114908
46,699.6751460554095
47,699.6713824870002
48,699.6689207898283
49,699.6678711554783
50,699.668336253421
51,699.6704109540832
52,699.6741821062147
53,699.6797283661846
54,699.6871200766087
55,699.6964191915431
56,699.7076792451672
57,699.7209453600774
58,699.7362542903685
59,699.7536344945115
60,699.7731062340257
61,699.794681695725
62,699.8183651372009
63,699.8441530564787
64,699.8720343868547
65,699.901990716736
66,699.9339965325283
67,699.9680194811117
68,700.0040206477835
69,700.0419548455965
70,700.0817709119931
71,700.1234120079419
72,700.1668159140147
73,700.2119153182978
74,700.2586380932383
75,700.3069075616338
76,700.3566427546068
77,700.407758665798
78,700.460166505965
79,700.513773960831
80,700.5684854528441
81,700.6242024054474
82,700.680823507602
83,700.7382449771216
84,700.7963608232109
85,700.8550631100807
86,700.9142422239587
87,700.9737871457587
88,701.033585731689
89,701.0935250038914
90,701.1534914522495
91,701.2133713470422
92,701.2730510610951
93,701.3324174000862
94,701.3913579402542
95,701.4497613731602
96,701.5075178571125
97,701.5645193743267
98,701.6206600916125
99,701.6758367204787
100,701.7299488707789
101,701.782899391088
102,701.834594689131
103,701.8849450267667
104,701.9338647857088
105,701.9812727014399
106,702.0270920632588
107,702.0712508787057
108,702.1136820013932
109,702.1543232225606
110,702.1931173281454
111,702.2300121246648
112,702.2649604385756
113,702.2979200946114
114,702.3288538783613
115,702.3577294869937
116,702.3845194701561
117,702.4092011617718
118,702.431756603453
119,702.4521724615117
120,702.4704399412107
121,702.4865547029626
122,702.5005167850803
123,702.5123305364323
124,702.5220045606088
125,702.5295516717327
126,702.5349888612159
127,702.538337274255
128,702.5396221939334
129,702.5388730289579
130,702.5361232987038
131,702.5314106076353
132,702.5247766015135
133,702.5162669000971
134,702.5059310041031
135,702.4938221766973
136,702.4799973011544
137,702.4645167167189
138,702.4474440344372
139,702.4288459342021
140,702.4087919439828
141,702.3873542025893
142,702.364607207921
143,702.3406275526685
144,702.3154936484724
145,702.2892854380125
146,702.2620840932078
147,702.2339716974515
148,702.2050309107234
149,702.1753446176463
150,702.1449955589703
151,702.1140659464146
152,702.0826370600155
153,702.0507888269824
154,702.0185993818899
155,701.9861446097517
156,701.9534976758107
157,701.9207285482368
158,701.8879035217842
159,701.8550847514747
160,701.822329805649
161,701.7896912474732
162,701.7572162533324
163,701.7249462757786
164,701.6929167581444
165,701.6611569074897
166,701.6296895316586
167,701.5985309445205
168,701.5676909412942
169,701.537172844035
170,701.5069736164764
171,701.4770840473036
172,701.4474890008199
173,701.4181677332988
174,701.3890942722121
175,701.3602378547166
176,701.3315634215933
177,701.3030321626908
178,701.2746021090617
179,701.246228765393
180,701.2178657747053
181,701.1894656062184
182,701.1609802568139
183,701.132361956582
184,701.103563869711
185,701.0745407835155
186,701.0452497801124
187,701.0156508862849
188,700.9857076973665
189,700.9553879709548
190,700.9246641860439
191,700.8935140626558
192,700.8619210365263
193,700.829874683313
194,700.7973710873472
195,700.764413150947
196,700.7310108414609
197,700.6971813743816
198,700.662949332134
199,700.6283467193538
200,700.593412956283
201,700.5581948120599
202,700.5227462792841
203,700.4871283906965
204,700.4514089783981
205,700.4156623756794
206,700.3799690610726
207,700.3444152437447
208,700.3090923889259
209,700.2740966816676
210,700.2395284270611
211,700.2054913857115
212,700.1720920451339
213,700.1394388305492
214,700.107641261475
215,700.0768090626765
216,700.0470512391192
217,700.0184751246697
218,699.9911854136661
219,699.9652831835365
220,699.9408649159503
221,699.9180215239859
222,699.8968373936623
223,699.8773894498373
224,699.8597462584761
225,699.8439671788218
226,699.830101579366
227,699.8181881307299
228,699.8082541871033
229,699.800315266057
230,699.7943746342881
231,699.7904230042438
232,699.7884383442738
233,699.788385803645
234,699.7902177532725
235,699.7938739426152
236,699.7992817725878
237,699.8063566837303
238,699.8150026581436
239,699.8251128324553
240,699.8365702171776
241,699.8492485155231
242,699.863013032475
243,699.8777216629517
244,699.8932259461526
245,699.9093721715457
246,699.9260025207908
247,699.9429562296878
248,699.9600707551082
249,699.9771829334815
250,699.9941301192434
251,700.0107512935041
252,700.0268881352009
253,700.0423860492596
254,700.057095148484
255,700.070871187421
256,700.0835764470589
257,700.0950805692554
258,700.1052613396255
259,700.114005417414
260,700.1212090108144
261,700.1267784964236
262,700.1306309819024
263,700.1326948113674
264,700.1329100138294
265,700.1312286961262
266,700.1276153826052
267,700.122047303236
268,700.1145146293563
269,700.1050206524493
270,700.0935818974534
271,700.0802281593584
272,700.0650024511632
273,700.0479608529126
274,700.0291722545503
275,700.0087179883051
276,699.9866913486526
277,699.9631970001892
278,699.9383502768579
279,699.9122763795075
280,699.885109481302
281,699.8569917510292
282,699.8280723034145
283,699.798506084335
284,699.7684526979498
285,699.7380751822463
286,699.7075387394442
287,699.6770094283421
288,699.6466528272941
289,699.6166326789731
290,699.5871095306917
291,699.5582393856596
292,699.5301723808253
293,699.5030515067992
294,699.4770113858028
295,699.4521771245289
296,699.4286632591852
297,699.4065728088897
298,699.38599645107
299,699.367011829551
300,699.349683003268
301,699.3340600407948
302,699.3201787627269
303,699.3080606306465
304,699.2977127786476
305,699.289128181973
306,699.2822859575926
307,699.2771517928974
308,699.2736784997775
309,699.2718066912054
310,699.2714655758257
311,699.2725738632316
312,699.2750407691124
313,699.2787671060173
314,699.283646442636
315,699.2895663127186
316,699.2964094544839
317,699.3040550624376
318,699.3123800350755
319,699.3212602031347
320,699.3305715240127
321,699.3401912292749
322,699.3499989137758
323,699.359877556279
324,699.3697144625372
325,699.3794021231779
326,699.3888389805969
327,699.397930100967
328,699.406587749103
329,699.4147318656081
330,699.4222904480649
331,699.4291998411022
332,699.4354049430808
333,699.440859338786
334,699.4455253676398
335,699.4493741360977
336,699.4523854816714
337,699.4545478949091
338,699.4558584051696
339,699.4563224361361
340,699.455953637083
341,699.4547736951374
342,699.4528121319147
343,699.4501060854903
344,699.4467000767484
345,699.4426457583558
346,699.438001644583
347,699.4328328201807
348,699.4272106263616
349,699.4212123217764
350,699.4149207161165
351,699.4084237735598
352,699.4018141831327
353,699.3951888936572
354,699.3886486121878
355,699.3822972663722
356,699.3762414328771
357,699.3705897358844
358,699.3654522211168
359,699.3609397113498
360,699.3571631492257
361,699.3542329332269
362,699.3522582531168
363,699.3513464315554
364,699.3516022785764
365,699.3531274650489
366,699.3560199200666
367,699.3603732555632
368,699.3662762198385
369,699.3738121808851
370,699.3830586410511
371,699.394086786293
372,699.4069610748088
373,699.421738870184
374,699.4384701233862
375,699.4571971064898
376,699.477954199214
377,699.5007677275587
378,699.5256558526256
379,699.5526285075339
380,699.5816873809783
381,699.6128259467763
382,699.6460295391862
383,699.6812754736621
384,699.7185332120653
385,699.7577645701745
386,699.7989239635159
387,699.8419586853211
388,699.8868092086336
389,699.9334095039104
390,699.9816873638199
391,700.0315647278488
392,700.0829580004603
393,700.1357783578463
394,700.1899320399945
395,700.2453206270999
396,700.3018413021118
397,700.3593871036525
398,700.417847175139
399,700.4771070168872
400,700.5370487486222
401,700.5975513899288
402,700.6584911653492
403,700.7197418391056
404,700.7811750820842
405,700.8426608709576
406,700.9040679165256
407,700.9652641162874
408,701.0261170254345
409,701.0864943404811
410,701.1462643897806
411,701.2052966248416
412,701.2634621059053
413,701.320633975012
414,701.3766879099728
415,701.4315025535741
416,701.4849599141398
417,701.5369457358829
418,701.5873498394621
419,701.6360664342712
420,701.6829944042702
421,701.7280375690318
422,701.7711049214367
423,701.8121108433697
424,701.8509753008591
425,701.8876240199844
426,701.9219886442585
427,701.9540068732636
428,701.9836225814933
429,702.0107859156433
430,702.0354533678761
431,702.0575878220427
432,702.077158569882
433,702.0941412950095
434,702.1085180238559
435,702.1202770441888
436,702.1294127928865
437,702.1359257150056
438,702.1398220963897
439,702.1411138727564
440,702.1398184191776
441,702.135958324301
442,702.1295611532997
443,702.1206592028776
444,702.1092892509207
445,702.0954923024601
446,702.0793133326174
447,702.0608010263705
448,702.0400075142767
449,702.0169881026576
450,701.9918009964935
451,701.9645070138857
452,701.9351692925931
453,701.9038529912431
454,701.8706249894318
455,701.8355535914538
456,701.7987082377778
457,701.760159226796
458,701.7199774473946
459,701.6782341213466
460,701.6350005539507
461,701.5903478916898
462,701.5443468867758
463,701.4970676701495
464,701.4485795363357
465,701.3989507446175
466,701.348248340793
467,701.2965380027654
468,701.2438839124524
469,701.1903486564996
470,701.1359931585285
471,701.0808766451648
472,701.0250566468509
473,700.9685890334829
474,700.9115280848912
475,700.8539265965543
476,700.7958360210473
477,700.737306645656
478,700.678387806515
479,700.619128139159
480,700.5595758638356
481,700.4997791011765
482,700.4397862104489
483,700.3796461396544
484,700.3194087749752
485,700.2591252766897
486,700.1988483895292
487,700.1386327173935
488,700.0785349552013
489,700.0186140738284
490,699.9589314567361
491,699.8995509885092
492,699.8405390962403
493,699.7819647449892
494,699.7238993888458
495,699.6664168794446
496,699.6095933338365
497,699.553506963516
498,699.4982378666745
499,699.4438677865365
500,699.3904798393237
501,699.3381582152884
502,699.2869878552715
503,699.2370541037617
504,699.188442338128
505,699.1412375731288
506,699.0955240404235
507,699.0513847446139
508,699.0089009995706
509,698.9681519502641
510,698.9292140856815
511,698.8921607484998
512,698.8570616479573
513,698.8239823837622
514,698.7929839899825
515,698.7641225079581
516,698.7374485964988
517,698.7130071865431
518,698.690837186444
519,698.6709712429665
520,698.6534355614127
521,698.6382497858522
522,698.6254269377297
523,698.6149734089367
524,698.6068890043521
525,698.6011670290083
526,698.5977944160138
527,698.5967518926366
528,698.5980141833642
529,698.6015502503434
530,698.6073235730989
531,698.6152924701418
532,698.6254104643958
533,698.6376266922753
534,698.6518863531747
535,698.6681311925893
536,698.6863000086622
537,698.7063291694717
538,698.7281531272386
539,698.7517049156053
540,698.7769166167556
541,698.8037197863919
542,698.8320458266614
543,698.8618262999333
544,698.8929931795328
545,698.9254790367
546,698.959217165696
547,698.9941416507269
548,699.0301873792182
549,699.0672900063369
550,699.1053858760425
551,699.1444119047077
552,699.1843054343939
553,699.2250040636156
554,699.2664454634113
555,699.3085671860829
556,699.3513064736727
557,699.394600073377
558,699.4383840675084
559,699.4825937259716
560,699.5271633890901
561,699.5720263878503
562,699.6171150072445
563,699.6623604964876
564,699.7076931275468
565,699.7530423008373
566,699.7983366943569
567,699.8435044504176
568,699.888473393178
569,699.9331712705791
570,699.9775260152777
571,700.0214660197441
572,700.0649204206841
573,700.1078193878787
574,700.1500944128047
575,700.191678592855
576,700.2325069074225
577,700.2725164824656
578,700.3116468402213
579,700.3498401302287
580,700.387041337161
581,700.4231984610349
582,700.4582626664443
583,700.4921883988794
584,700.5249334672293
585,700.556459092453
586,700.5867299236604
587,700.6157140242804
588,700.6433828318887
589,700.6697110952359
590,700.6946767913223
591,700.7182610248065
592,700.740447912327
593,700.7612244553895
594,700.7805804063552
595,700.7985081318802
596,700.815002476956
597,700.8300606312007
598,700.8436819978507
599,700.8558680652957
600,700.8666222813316
601,700.8759499316915
602,700.8838580262285
603,700.8903551971533
604,700.8954516132529
605,700.8991589123938
606,700.9014901527432
607,700.9024597815854
608,700.902083619462
609,700.9003788566329
610,700.8973640584549
611,700.8930591757735
612,700.8874855554268
613,700.8806659448932
614,700.8726244849983
615,700.8633866859441
616,700.852979384204
617,700.8414306800989
618,700.8287698574561
619,700.8150272874241
620,700.8002343185409
621,700.7844231551287
622,700.7676267263221
623,700.7498785481307
624,700.7312125803655
625,700.7116630791778
626,700.6912644451722
627,700.6700510672423
628,700.6480571634397
629,700.6253166215564
630,700.6018628426674
631,700.5777285903895
632,700.5529458478555
633,700.5275456842929
634,700.5015581336521
635,700.4750120883117
636,700.4479352111368
637,700.4203538691316
638,700.3922930918142
639,700.3637765574032
640,700.3348266096623
641,700.305464307228
642,700.2757095053287
643,700.2455809677555
644,700.2150965056958
645,700.1842731396418
646,700.1531272802575
647,700.1216749231422
648,700.0899318510501
649,700.0579138361709
650,700.0256368351909
651,699.993117170894
652,699.9603716955775
653,699.9274179333493
654,699.8942742003982
655,699.8609597041853
656,699.8274946234853
657,699.7939001711092
658,699.7601986408507
659,699.7264134409944
660,699.6925691190296
661,699.658691385019
662,699.6248071425488
663,699.5909445351559
664,699.5571330130487
665,699.5234034214081
666,699.4897881087912
667,699.4563210523647
668,699.4230379955377
669,699.3899765926061
670,699.3571765541346
671,699.3246797862445
672,699.2925305171315
673,699.2607754048877
674,699.2294636215031
675,699.1986469084762
676,699.1683795999527
677,699.1387186101007
678,699.1097233825985
679,699.0814558013728
680,699.0539800628833
681,699.0273625113763
682,699.0016714396381
683,698.9769768586063
684,698.9533502397009
685,698.9308642342389
686,698.909592375087
687,698.8896087665928
688,698.8709877694224
689,698.853803686956
690,698.8381304593124
691,698.8240413699789
692,698.8116087686882
693,698.8009038126471
694,698.7919962261914
695,698.7849540764172
696,698.7798435599586
697,698.77672879483
698,698.7756716117314
699,698.7767313410238
700,698.779964593429
701,698.7854250331616
702,698.7931631412583
703,698.8032259650618
704,698.8156568486207
705,698.8304951394945
706,698.8477758701887
707,698.8675294161237
708,698.8897811353427
709,698.9145509972631
710,698.9418532083725
711,698.9716958421486
712,699.0040804792351
713,699.0390018623633
714,699.0764475688632
715,699.1163977023681
716,699.1588246050572
717,699.2036925926394
718,699.2509577160048
719,699.3005675554151
720,699.3524610543695
721,699.4065684003856
722,699.4628109592534
723,699.5211012686118
724,699.5813430961522
725,699.6434315669206
726,699.7072533625104
727,699.7726869923529
728,699.839603134424
729,699.907865040292
730,699.9773289979115
731,700.0478448448562
732,700.1192565247925
733,700.1914026810939
734,700.2641172832177
735,700.3372302827612
736,700.4105682961012
737,700.4839553094765
738,700.5572134014315
739,700.6301634774521
740,700.7026260122138
741,700.7744217956676
742,700.845372679975
743,700.9153023248152
744,700.9840369384409
745,701.0514060109002
746,701.1172430345043
747,701.1813862055486
748,701.2436791009542
749,701.3039713239772
750,701.362119114149
751,701.4179859177201
752,701.471442915926
753,701.5223695094961
754,701.5706537590365
755,701.6161927819074
756,701.6588931065096
757,701.6986709842909
758,701.7354526586431
759,701.7691745888786
760,701.7997836273294
761,701.8272371485585
762,701.8515031313586
763,701.87256019591
764,701.8903975996374
765,701.9050151957521
766,701.9164233581666
767,701.9246428755636
768,701.9297048162696
769,701.9316503643113
770,701.9305306251093
771,701.9264063966356
772,701.919347899689
773,701.9094344607388
774,701.8967541429184
775,701.8814033243091
776,701.8634862262256
777,701.8431143966587
778,701.8204061546874
779,701.7954860006527
780,701.7684839949258
781,701.7395351062407
782,701.7087785296343
783,701.6763569744188
784,701.6424159240571
785,701.6071028715335
786,701.5705665350331
787,701.532956059115
788,701.4944202063473
789,701.4551065442768
790,701.4151606333382
791,701.3747252229215
792,701.3339394644707
793,701.2929381511462
794,701.2518509927972
795,701.2108019332013
796,701.169908514693
797,701.129281294424
798,701.089023316861
799,701.0492296480462
800,701.0099869775088
801,700.9713732930287
802,700.9334576320309
803,700.89629991156
804,700.8599508364306
805,700.8244518823072
806,700.7898353480095
807,700.7561244703428
808,700.7233335955316
809,700.6914684030486
810,700.660526179087
811,700.6304961375151
812,700.6013597862077
813,700.5730913368079
814,700.5456581564347
815,700.5190212601844
816,700.4931358429394
817,700.4679518477845
818,700.4434145667633
819,700.4194652687183
820,700.3960418490852
821,700.3730794974005
822,700.3505113791983
823,700.3282693292
824,700.3062845520512
825,700.284488325819
826,700.2628127026746
827,700.241191200715
828,700.2195594801832
829,700.1978559962424
830,700.1760226194547
831,700.1540052149537
832,700.131754172198
833,700.1092248788603
834,700.0863781343678
835,700.0631805004585
836,700.0396045874768
837,700.0156292757048
838,699.9912398708741
839,699.9664281926454
840,699.9411925949595
841,699.9155379179356
842,699.8894753721365
843,699.8630223572203
844,699.8362022181283
845,699.8090439430324
846,699.7815818083383
847,699.7538549771618
848,699.7259070586924
849,699.6977856364476
850,699.6695417735416
851,699.6412295028654
852,699.612905309515
853,699.5846276116027
854,699.5564562437314
855,699.5284519457006
856,699.5006758583563
857,699.4731890290157
858,699.4460519298058
859,699.4193239926775
860,699.3930631644648
861,699.3673254844524
862,699.3421646859414
863,699.3176318224855
864,699.293774918643
865,699.2706386441872
866,699.2482640100513
867,699.2266880843165
868,699.2059437273477
869,699.1860593464672
870,699.1670586720654
871,699.1489605583587
872,699.1317788126597
873,699.1155220568519
874,699.1001936238937
875,699.0857914908933
876,699.0723082490944
877,699.0597311106818
878,699.0480419529075
879,699.0372174010602
880,699.0272289523145
881,699.0180431420983
882,699.0096217536204
883,699.0019220701029
884,698.9948971681907
885,698.9884962499293
886,698.9826650097551
887,698.977346032335
888,698.9724792167744
889,698.9680022224858
890,698.9638509317899
891,698.9599599244299
892,698.956262960045
893,698.9526934660612
894,698.9491850293831
895,698.9456718898141
896,698.9420894315697
897,698.938374667874
898,698.9344667134211
899,698.9303072404088
900,698.9258409152201
901,698.9210158138973
902,698.9157838148221
903,698.9101009665189
904,698.9039278278248
905,698.8972297774653
906,698.8899772902654
907,698.8821461771529
908,698.8737177853493
909,698.8646791538822
910,698.8550231184956
911,698.8447483598285
912,698.8338593895221
913,698.8223664706113
914,698.8102854712067
915,698.7976376539923
916,698.7844494076053
917,698.7707519284496
