frame_number,force
0,575.6015600000417
1,575.4722923898723
2,575.3360180765973
3,575.1866095000789
4,575.0195734008049
5,574.8325885744127
6,574.6257781777592
7,574.401713366291
8,574.165181222878
9,573.9227694592399
10,573.682316296452
11,573.4522543771287
12,573.2408676995639
13,573.0555009228457
14,572.9018047525607
15,572.7831390982518
16,572.7002565179913
17,572.6513428308344
18,572.6324155585365
19,572.6380031925289
20,572.6619759646674
21,572.6983847722648
22,572.7421841642185
23,572.7897513979844
24,572.8391518343651
25,572.8901367558105
26,572.943896374475
27,573.0026283215532
28,573.0690075758989
29,573.1456422957875
30,573.2345761147875
31,573.3368763386148
32,573.4523436787165
33,573.579377817385
34,573.7150161806503
35,573.8551375343799
36,573.9948011745266
37,574.1286737982
38,574.251476982386
39,574.358383661482
40,574.4453152499943
41,574.5091310130462
42,574.5477324067049
43,574.5601129208363
44,574.5463750721301
45,574.5077254142715
46,574.4464526503164
47,574.3658909488782
48,574.2703665359079
49,574.1651178080174
50,574.0561664910251
51,573.9501053986997
52,573.8537700919276
53,573.7737865950211
54,573.716031789666
55,573.6850893009631
56,573.6838031655518
57,573.7130058252633
58,573.7714423153667
59,573.8558667070288
60,573.961269897527
61,574.0812022408625
62,574.208166800208
63,574.3340738575988
64,574.4507619056495
65,574.5505933192712
66,574.6271096937662
67,574.675687235692
68,574.6940955803713
69,574.6828585029943
70,574.6453411790138
71,574.5875326783353
72,574.5175446009958
73,574.4448961661747
74,574.3796862492043
75,574.3317547081417
76,574.3099174553546
77,574.3213377087412
78,574.3710728922883
79,574.4618045024532
80,574.5937199293783
81,574.7644942599001
82,574.9693382209844
83,575.2011263975505
84,575.4506568394131
85,575.7070849137643
86,575.9585285732421
87,576.192793719594
88,576.3981410731031
89,576.564014982888
90,576.681674102979
91,576.744690884408
92,576.7493095868775
93,576.6946648664884
94,576.5828604329054
95,576.4188917612544
96,576.210383902967
97,575.9671239134218
98,575.7004015640563
99,575.4222156288599
100,575.1444339085766
101,574.8780062762416
102,574.6323259845425
103,574.4148109668224
104,574.2307282593532
105,574.0832275003634
106,573.9735132596377
107,573.9010841910356
108,573.8639894029862
109,573.8590808476849
110,573.8822663374405
111,573.92879021646
112,573.9935772482513
113,574.0716523761862
114,574.1586000753075
115,574.250986645738
116,574.3466641675875
117,574.4448999091052
118,574.5463066573393
119,574.6525734106032
120,574.7660145750501
121,574.888981713301
122,575.0232227642757
123,575.1693156534951
124,575.3263109267564
125,575.4916669046556
126,575.661472737339
127,575.8308831716421
128,575.9946630835734
129,576.1477455437813
130,576.2857258125536
131,576.4052448719681
132,576.5042538512803
133,576.5821766499763
134,576.6399940133431
135,576.6802608238075
136,576.7070428209473
137,576.7257325382806
138,576.7426989344996
139,576.7647528446796
140,576.7984653434912
141,576.8494376637952
142,576.9216575968
143,577.0170627983182
144,577.1353701065682
145,577.2741563183158
146,577.4291264439664
147,577.5944922937283
148,577.7633999153862
149,577.9283762144697
150,578.0817923624155
151,578.2163441484316
152,578.3255312174931
153,578.4040988602372
154,578.448398406757
155,578.4566288046879
156,578.4289475914658
157,578.3674736329601
158,578.2762181700159
159,578.160962043347
160,578.0290668703514
161,577.8891952388555
162,577.7509242269945
163,577.6242523131101
164,577.5190108413631
165,577.4442003288508
166,577.4072865546364
167,577.4135135353752
168,577.4653139686633
169,577.5619120080873
170,577.6992088728712
171,577.8700129866255
172,578.064625051332
173,578.2717293832441
174,578.4794937042259
175,578.6767451054703
176,578.8540687626971
177,579.0046768374854
178,579.124926666334
179,579.214421870181
180,579.2756913489197
181,579.3135013928036
182,579.3339119560322
183,579.3432281530503
184,579.3470064274335
185,579.3492476482639
186,579.3518610220282
187,579.3544373402616
188,579.3543457760227
189,579.3471588456051
190,579.3273853764429
191,579.2894320063311
192,579.2286415171391
193,579.142219200344
194,579.0298845923352
195,578.8941572981009
196,578.7402604968921
197,578.5756784112642
198,578.4094380195293
199,578.2512167122575
200,578.1104093694788
201,577.9953000996734
202,577.9124523803501
203,577.8663599159134
204,577.859323454835
205,577.8914755298795
206,577.9608808237019
207,578.0636786361098
208,578.1942713098749
209,578.3455704277297
210,578.5092982238219
211,578.6763382832637
212,578.8371450427384
213,578.9822248065063
214,579.1026749665177
215,579.1907387700955
216,579.2403256087769
217,579.247447416959
218,579.210511683762
219,579.1304140084642
220,579.0104190521747
221,578.8558825730635
222,578.6738900397181
223,578.4728579586156
224,578.262111062414
225,578.0514482240583
226,577.8507193906702
227,577.6694170071289
228,577.5162517799139
229,577.398683681425
230,577.3224255927524
231,577.2909817849674
232,577.3052855499191
233,577.3634750821724
234,577.4608344240274
235,577.5899365338418
236,577.7410324676865
237,577.9027051628916
238,578.0627453459988
239,578.2091429374412
240,578.3310592704464
241,578.4196587799331
242,578.4687116599011
243,578.474920205593
244,578.437972345376
245,578.3603725256303
246,578.2471152176984
247,578.1052438383392
248,577.9433098369425
249,577.7707479650071
250,577.5972094026596
251,577.4319112795599
252,577.2830533337595
253,577.1573350450836
254,577.0595966807242
255,576.9926039938787
256,576.956992649998
257,576.9513850462641
258,576.9726849852967
259,577.0165374088828
260,577.0779155608554
261,577.1517757515968
262,577.2337004893848
263,577.3204380746648
264,577.4102567679811
265,577.503066262351
266,577.6002946842359
267,577.7045307382344
268,577.8189638593068
269,577.9466952623181
270,578.0900294973661
271,578.2498570117493
272,578.4252056681094
273,578.6130075532961
274,578.8081139641911
275,579.0035786360627
276,579.1911986145137
277,579.362259517707
278,579.508394744065
279,579.6224465337428
280,579.6992127573294
281,579.73597862465
282,579.732767044687
283,579.6922858195203
284,579.6195916113336
285,579.5215261661693
286,579.4060102989416
287,579.2812983297216
288,579.1552893249759
289,579.0349624145391
290,578.9259686447398
291,578.8323909209062
292,578.7566771825105
293,578.6997412285069
294,578.6612026934495
295,578.6397221502307
296,578.6333942829432
297,578.6401714823755
298,578.6582741849959
299,578.6865116320499
300,578.7244271177095
301,578.7722199644811
302,578.8304647230982
303,578.8997066739647
304,578.9800385921108
305,579.0707585267804
306,579.1701801171591
307,579.2756260361041
308,579.3835997710913
309,579.4901144732104
310,579.5911503625466
311,579.683192683866
312,579.7637683266552
313,579.8318754395506
314,579.8882112884756
315,579.9351480564615
316,579.9764612206213
317,580.0168600513226
318,580.0613981348843
319,580.1148528351245
320,580.1811557240388
321,580.2629341251168
322,580.3611964366779
323,580.4751735998902
324,580.6023212789606
325,580.7384853053305
326,580.8782268410647
327,581.0152877241987
328,581.1431503298523
329,581.2556204768907
330,581.3473562787183
331,581.4142892000885
332,581.4539180538096
333,581.4654756210518
334,581.4499645076477
335,581.4100517392353
336,581.3498247152065
337,581.2744476963353
338,581.1897895499778
339,581.1020900929179
340,581.0176963140584
341,580.9428578558682
342,580.8835472811827
343,580.8452720319148
344,580.832864103311
345,580.8502573429795
346,580.900280483802
347,580.9845005585153
348,581.1031426599177
349,581.255089853568
350,581.4379461291495
351,581.648144664181
352,581.8811023122838
353,582.1314344816941
354,582.3932327434394
355,582.6603807765447
356,582.9268714878469
357,583.1871000647142
358,583.4361232539719
359,583.6698730049869
360,583.8853005637772
361,584.0804265310139
362,584.2542884737243
363,584.4067989631543
364,584.53854348992
365,584.6505587500844
366,584.7441388065587
367,584.8207133708444
368,584.8818194932873
369,584.9291524603868
370,584.9646553932502
371,584.9905972972875
372,585.0095843016214
373,585.0244467415114
374,585.0379673935877
375,585.0524793465671
376,585.0694378400456
377,585.0891034703092
378,585.1104404700083
379,585.131258198972
380,585.148544259135
381,585.1588828205831
382,585.1588412500398
383,585.1452414500385
384,585.1152885324125
385,585.0665842119987
386,584.9970856405225
387,584.9050702947608
388,584.7891413314006
389,584.6482782045791
390,584.4819198932283
391,584.2900632830468
392,584.0733623388934
393,583.8332198871153
394,583.5718685721766
395,583.2924385339797
396,582.9990054058793
397,582.6966033656718
398,582.3911809118821
399,582.0894829677447
400,581.7988618760234
401,581.5270352861758
402,581.2818061287927
403,581.0707438276639
404,580.9008164948746
405,580.7779758156189
406,580.7067241984026
407,580.6897180290968
408,580.7274667612832
409,580.8181735181402
410,580.957740090547
411,581.1399468947079
412,581.3568228222806
413,581.5992184262557
414,581.8575617875889
415,582.1227152647938
416,582.3867973603848
417,582.6438182944353
418,582.8900100080594
419,583.1237978430571
420,583.3454356386515
421,583.5563888657059
422,583.758596422169
423,583.9537647561386
424,584.1428351887143
425,584.3257132712312
426,584.5012740369995
427,584.6675875065233
428,584.8222718711522
429,584.9628859116882
430,585.0872966600489
431,585.1939757436257
432,585.2821893579088
433,585.3520714493404
434,585.4046044105042
435,585.4415510164094
436,585.4653729467602
437,585.479146588616
438,585.4864622654528
439,585.4912778597228
440,585.4976979137934
441,585.5096684036378
442,585.5306116535968
443,585.5630621517632
444,585.6083859255258
445,585.6666600054415
446,585.7367465125534
447,585.8165296003459
448,585.903233864594
449,585.9937476894864
450,586.0849210572642
451,586.1738410756063
452,586.2580778930387
453,586.3358625280346
454,586.40615580708
455,586.4686105923499
456,586.5234789539229
457,586.5715222375633
458,586.6139463642165
459,586.6523533854074
460,586.6886966412526
461,586.7252279845317
462,586.7644137729758
463,586.8087868734201
464,586.8607103250171
465,586.9220532451401
466,586.9938177982206
467,587.0757976486814
468,587.1663658194333
469,587.2624628715988
470,587.3597978443438
471,587.4532170572343
472,587.5371643461831
473,587.6061576022437
474,587.6552287939359
475,587.6802945010121
476,587.6784295525767
477,587.6480166260575
478,587.5887501579975
479,587.5014868766451
480,587.3879601313156
481,587.250404780317
482,587.0911562495713
483,586.9122850579188
484,586.7153202512065
485,586.5011126293182
486,586.2698819692199
487,586.0214643532574
488,585.7557241478904
489,585.4730401426294
490,585.174745517621
491,584.8634134889769
492,584.5429256687348
493,584.2183117504826
494,583.8953907485936
495,583.5802777110325
496,583.278844312149
497,582.9962276452407
498,582.7364684966643
499,582.5023335443304
500,582.295334437644
501,582.1159052493504
502,581.9636566705695
503,581.8376089029417
504,581.7363216898684
505,581.6578814029293
506,581.5997554380746
507,581.5585713944328
508,581.5299146726645
509,581.5082484430977
510,581.4870318216398
511,581.4590568026251
512,581.4169720963846
513,581.3539317503049
514,581.2642908960203
515,581.1442529201915
516,580.9923552662112
517,580.809694205509
518,580.5998510252896
519,580.3685674652661
520,580.1232746555929
521,579.8725746708733
522,579.6257179513465
523,579.3920616239943
524,579.1804863377318
525,578.9987996846462
526,578.8532104149257
527,578.7479620558242
528,578.6851605443837
529,578.6647595442433
530,578.6846290390821
531,578.7406482302414
532,578.8268120603728
533,578.9353848650474
534,579.0571546012987
535,579.1818351205607
536,579.2986336023408
537,579.3969520249794
538,579.4671447269191
539,579.5012325349999
540,579.4934888979385
541,579.4408528284075
542,579.3431580747317
543,579.2031788893572
544,579.0264888498781
545,578.8211289054457
546,578.5970910885685
547,578.3656452851179
548,578.1385659698917
549,577.9273404019667
550,577.7424422457728
551,577.5927365364411
552,577.4850596431925
553,577.4239977248817
554,577.4118616066805
555,577.448820510062
556,577.533123096042
557,577.6613259628449
558,577.8284812925558
559,578.0282912855527
560,578.2532823660019
561,578.4950591521929
562,578.7446643587069
563,578.993020817976
564,579.2313973298092
565,579.4518337877503
566,579.6474781757167
567,579.8128206152093
568,579.9438438975636
569,580.0381261839199
570,580.0949221629052
571,580.1152254449529
572,580.1017940174495
573,580.0591117188637
574,579.9932619760441
575,579.9116981946689
576,579.8228995002074
577,579.7358997661905
578,579.6596842280837
579,579.6024781350308
580,579.5710037175245
581,579.5698243829697
582,579.6008925195912
583,579.6633670106752
584,579.7537069693188
585,579.8660156945664
586,579.9925980071805
587,580.1246785124779
588,580.2532046754952
589,580.3696474430548
590,580.4667237273618
591,580.5389842578801
592,580.5832196740957
593,580.5986428325922
594,580.5868237113684
595,580.5513873446146
596,580.4975212104708
597,580.4313625567809
598,580.359340867088
599,580.2875382617364
600,580.2211113536907
601,580.1637996822935
602,580.117534026572
603,580.0821622072818
604,580.055328741214
605,580.0325556678958
606,580.007558692984
607,579.9728013720927
608,579.9202490854185
609,579.8422407463389
610,579.7323667547025
611,579.586240218738
612,579.4020696036575
613,579.1809751113735
614,578.9270324280435
615,578.6470643856015
616,578.3502204534568
617,578.047384865266
618,577.7504480504638
619,577.4714755144735
620,577.2218177000365
621,577.0112203482074
622,576.8470119173036
623,576.7334546933131
624,576.6713392115597
625,576.6578731194643
626,576.6868735955031
627,576.7492350106222
628,576.8336269779217
629,576.9273805641187
630,577.0175208521159
631,577.091883337625
632,577.1402146239191
633,577.1551260902478
634,577.1327599270991
635,577.0730488284897
636,576.9795082751654
637,576.858585485516
638,576.7186743127746
639,576.5689613736338
640,576.4182860857976
641,576.2741831926712
642,576.142236430505
643,576.0258082292214
644,575.9261338637785
645,575.8427006278839
646,575.7737889193083
647,575.7170365862718
648,575.6699066290342
649,575.6299958479611
650,575.5951949358949
651,575.5637571443858
652,575.5343366205416
653,575.506034990579
654,575.478464955382
655,575.4518114246218
656,575.4268505750431
657,575.4048868316515
658,575.3875958709588
659,575.3768027083187
660,575.3742418622281
661,575.3813272265598
662,575.3989290524204
663,575.4271489900385
664,575.4651111752174
665,575.5108268082056
666,575.5612012629744
667,575.6122119194994
668,575.6592168863546
669,575.6973147221547
670,575.721692970455
671,575.7279586346875
672,575.712486717326
673,575.6728143348034
674,575.6080526302708
675,575.5192323071249
676,575.4094857693005
677,575.2840060258401
678,575.1497793993967
679,575.0151304210106
680,574.889130482679
681,574.7809178711633
682,574.6989731381009
683,574.6504007043046
684,574.64028519121
685,574.6712092035758
686,574.7430235572169
687,574.8529416835303
688,574.9959840172072
689,575.1657270023305
690,575.355230212693
691,575.557960115894
692,575.7685344909873
693,575.9831726134264
694,576.1998128576728
695,576.4179210003296
696,576.6380583343202
697,576.8613157723803
698,577.0887451480847
699,577.3209166419279
700,577.5576865748912
701,577.7981819622526
702,578.0409345169015
703,578.2840631676819
704,578.5254187187488
705,578.762647094134
706,578.9931717876351
707,579.2141313542344
708,579.4223350635576
709,579.6143068675549
710,579.7864576629042
711,579.9353719180949
712,580.0581556661894
713,580.1527866369545
714,580.2184166715226
715,580.2555824888104
716,580.266285028017
717,580.2539080338513
718,580.2229645668772
719,580.1786858335387
720,580.1265005437101
721,580.0714858160163
722,580.0178822521425
723,579.9687451599327
724,579.9257677961082
725,579.8892852540129
726,579.8584484984867
727,579.8315327701534
728,579.8063187271737
729,579.7804798826869
730,579.751930905648
731,579.7191163452763
732,579.6812278406682
733,579.6383354809154
734,579.5914247627329
735,579.5423492321485
736,579.4937255210507
737,579.4487971077244
738,579.4112753869146
739,579.3851418518921
740,579.3743812283391
741,579.382632803261
742,579.4127924190335
743,579.4666330859828
744,579.5445092744591
745,579.6451847977074
746,579.7658082985314
747,579.9020544364123
748,580.048431841539
749,580.1987297975378
750,580.346555841474
751,580.4859155189516
752,580.6117919012346
753,580.7206844151259
754,580.811061145602
755,580.8836675091021
756,580.9416260107353
757,580.9902718825199
758,581.0367023949632
759,581.0890623940516
760,581.1556337092404
761,581.243834870487
762,581.3592611078047
763,581.5048976538819
764,581.680624663061
765,581.8830970951653
766,582.1060222248095
767,582.3407840714162
768,582.5773060635695
769,582.8050171593137
770,583.0137885132532
771,583.1947274431622
772,583.3407497720535
773,583.4469000206299
774,583.5104412778082
775,583.5307754279671
776,583.5092656341611
777,583.449012249976
778,583.354594997817
779,583.2317705836323
780,583.0871270913212
781,582.9277274209132
782,582.7607855289838
783,582.5933959212888
784,582.4323017739487
785,582.2836729658612
786,582.1528807184861
787,582.0442821604729
788,581.9610425707351
789,581.9050181183255
790,581.8767114506561
791,581.8753122493766
792,581.8988378193735
793,581.9443728953527
794,582.0083706542924
795,582.0869425418196
796,582.1760559942758
797,582.2715834640661
798,582.3691981734461
799,582.4641707648881
800,582.5511560892256
801,582.6240604171558
802,582.676063410209
803,582.6998495614228
804,582.6880729489424
805,582.6340282958
806,582.5324407094323
807,582.3802415425868
808,582.1771894113183
809,581.9262232791011
810,581.6334823584234
811,581.3079793884665
812,580.9609592193282
813,580.6050088041821
814,580.2530099809018
815,579.9170458183406
816,579.6073831479066
817,579.3316558289223
818,579.0943600747515
819,578.8967312268608
820,578.736996055989
821,578.6109155481885
822,578.5124935703074
823,578.434733026416
824,578.3703439034792
825,578.3123297299618
826,578.2544040074241
827,578.191217247245
828,578.1184062398764
829,578.0325100714355
830,577.9308239288234
831,577.8112649895471
832,577.6722987352109
833,577.512936632365
834,577.3327928045943
835,577.1321830014189
836,576.9122458862769
837,576.6750524315912
838,576.4236558138828
839,576.1620395173446
840,575.894948139466
841,575.6276221561844
842,575.3654855354373
843,575.1138356942463
844,574.8775605844943
845,574.6608810583828
846,574.4671088352463
847,574.2984245997669
848,574.1557087150136
849,574.0384817346663
850,573.9450097386554
851,573.8725895154154
852,573.8179703001733
853,573.7778274110932
854,573.7491976238933
855,573.7298089888783
856,573.7182696211061
857,573.7141073339162
858,573.717673142008
859,573.7299362212824
860,573.7522024479596
861,573.7857902007182
862,573.8317085830976
863,573.8903968577328
864,573.9615757708212
865,574.0442265669066
866,574.1366743377095
867,574.2367338767274
868,574.3418862599375
869,574.4494821324952
870,574.5569901963178
871,574.662304686347
872,574.7640901600143
873,574.8620985326013
874,574.9573750400498
875,575.0522882310137
876,575.1503554876042
877,575.2558700439707
878,575.3733688071951
879,575.5070183098039
880,575.6600272065197
881,575.8341922498053
882,576.0296388117173
883,576.2447523609598
884,576.4762567061573
885,576.7193899153984
886,576.9681375041374
887,577.2154934664775
888,577.4537420240857
889,577.6747826093141
890,577.870534647839
891,578.0334456385629
892,578.1570984039556
893,578.2368836984367
894,578.2706666421335
895,578.2593284864273
896,578.2070395484461
897,578.1211527760431
898,578.0116971135606
899,577.8905471617245
900,577.77040192302
901,577.6637090341937
902,577.5816435041068
903,577.5332211221579
904,577.5246116479444
905,577.5587079410756
906,577.6349850512041
907,577.7496422807001
908,577.8959802773903
909,578.0649479842624
910,578.2458029845772
911,578.426845837689
912,578.5961990798994
913,578.7426022175243
914,578.8561893484174
915,578.9292075425487
916,578.9566203902621
917,578.9365289973186
