frame_number,force
0,601.300050000023
1,601.1924900415111
2,601.0890323333483
3,600.9932188547084
4,600.9075623081901
5,600.8332443541923
6,600.770028305203
7,600.7163957530669
8,600.6698758521982
9,600.6274996137975
10,600.5862866099168
11,600.5436636075827
12,600.4977327797046
13,600.4473558652428
14,600.3920812246845
15,600.3319792163614
16,600.2674516353791
17,600.1990563254748
18,600.1273622270846
19,600.052836631399
20,599.975762996819
21,599.8961850438506
22,599.8138674257451
23,599.7282623302659
24,599.6384840724293
25,599.5433149574466
26,599.4412759063835
27,599.3307817611834
28,599.2103720403157
29,599.0789847084767
30,598.9362389954952
31,598.7827081881127
32,598.6201731850185
33,598.4518365234682
34,598.2824475242472
35,598.1182622387797
36,597.9667643849531
37,597.8361205925781
38,597.7344192156748
39,597.6688044896902
40,597.6446331758062
41,597.6647593958388
42,597.7290344479397
43,597.834104787011
44,597.9735745013762
45,598.1385436254943
46,598.3184551454226
47,598.5021225320917
48,598.6787938335304
49,598.83912706925
50,598.9759734191541
51,599.0848806395745
52,599.1642611463462
53,599.2152260248986
54,599.2411395854301
55,599.246974396741
56,599.238558268994
57,599.2218236532369
58,599.202183110115
59,599.1841306476289
60,599.1711029567799
61,599.1655581346163
62,599.1691789178091
63,599.1830955224326
64,599.2080420788604
65,599.244398833159
66,599.2921179184517
67,599.3505710387561
68,599.4183851039567
69,599.493342300851
70,599.5724089256665
71,599.6519230339197
72,599.7279277591537
73,599.7966021551767
74,599.8547204317101
75,599.9000590784284
76,599.9316727209549
77,599.949985701278
78,599.956694331077
79,599.9545181340644
80,599.9468553983405
81,599.9373952474199
82,599.9297329598005
83,599.9270300617413
84,599.9317492814594
85,599.9454805761751
86,599.9688651347109
87,600.0016127766324
88,600.0425859293208
89,600.0899054596313
90,600.1410480349236
91,600.1929484843023
92,600.2421518896213
93,600.2850480618897
94,600.3181811892775
95,600.3385938777477
96,600.344152320288
97,600.3338042160331
98,600.3077362154493
99,600.2674165034472
100,600.2155262631757
101,600.1557986480735
102,600.0927884939813
103,600.0315840048598
104,599.9774545039701
105,599.9354311647455
106,599.9098498457729
107,599.9039249280637
108,599.919436110896
109,599.9565832595273
110,600.0140179033215
111,600.0890233078607
112,600.1777987592095
113,600.2758032004876
114,600.3781241459387
115,600.479853184567
116,600.5764571331665
117,600.6641282411786
118,600.740085151799
119,600.8027899736303
120,600.8520533999728
121,600.8890171035217
122,600.9160150841554
123,600.9363125653327
124,600.9537152385152
125,600.9720533459941
126,600.9945787438847
127,601.0233566858986
128,601.0587655193182
129,601.0992174877845
130,601.1411830120361
131,601.1795530107464
132,601.208316408829
133,601.2214664522876
134,601.2139917888722
135,601.1827755097091
136,601.1272347457893
137,601.049587400918
138,600.9547093882791
139,600.8496161288127
140,600.7426555614647
141,600.6425394629011
142,600.5573602888626
143,600.4937323109383
144,600.4561599415466
145,600.4466828025887
146,600.4647902127263
147,600.5075592803653
148,600.5699685548823
149,600.6453635951281
150,600.726068099462
151,600.8041183889111
152,600.8720547097327
153,600.9236593068833
154,600.9545191798853
155,600.9623190590421
156,600.9468194923709
157,600.9095291719289
158,600.8531416970666
159,600.7808699081617
160,600.6958448752755
161,600.6007245705365
162,600.4975853736631
163,600.3880780995186
164,600.2737550074261
165,600.1564432466342
166,600.0385543122267
167,599.923249440224
168,599.8144047979608
169,599.7163512455116
170,599.6334217227055
171,599.5694062437334
172,599.527045721961
173,599.5076727955172
174,599.5110509161049
175,599.5354043920603
176,599.5775953084807
177,599.6333971616764
178,599.6978300947585
179,599.7655368882503
180,599.831175762482
181,599.8897891606813
182,599.9370996884055
183,599.9697044932889
184,599.9851782783719
185,599.9821214599936
186,599.960184197656
187,599.9200716691605
188,599.8635184620687
189,599.7932198086062
190,599.712710477397
191,599.6261780368437
192,599.5381938211642
193,599.4533515334832
194,599.3758221028633
195,599.308868235754
196,599.2544084739193
197,599.2127477458563
198,599.1825663963656
199,599.1611874801033
200,599.1450608046682
201,599.1303489335087
202,599.1134963008993
203,599.0917069905448
204,599.0633163078797
205,599.0280688279578
206,598.9872966632103
207,598.9439575503816
208,598.902481984795
209,598.8684038408827
210,598.8477955064326
211,598.8465747416228
212,598.8697799238146
213,598.9209146705491
214,599.0014425896165
215,599.1104826747157
216,599.2447376924557
217,599.3986865159659
218,599.5650622606885
219,599.7355938427601
220,599.901916097929
221,600.056493813155
222,600.1933940547365
223,600.3087820109705
224,600.4010878033462
225,600.4708709611081
226,600.5204700697288
227,600.5535458584866
228,600.5746058312437
229,600.5885599085975
230,600.6003254739474
231,600.6144884740355
232,600.6350285919472
233,600.6651157944593
234,600.7069764950403
235,600.7618207632661
236,600.8298274026686
237,600.9101917481992
238,601.0012354207244
239,601.1005610487241
240,601.2052283791575
241,601.3119416126025
242,601.417255510623
243,601.5178050553315
244,601.610539946277
245,601.6929294946527
246,601.7631170359929
247,601.8200334842064
248,601.8634949781837
249,601.8942905236951
250,601.9142251712096
251,601.9260583098169
252,601.9332904514417
253,601.9397987052537
254,601.9493744475365
255,601.9652510983002
256,601.9897105666657
257,602.0238285300073
258,602.0673845112232
259,602.1189398387199
260,602.1760717968301
261,602.2357377045546
262,602.294727645291
263,602.3501516639872
264,602.39989948524
265,602.4430080938113
266,602.4798699380135
267,602.5122158884456
268,602.5428326516745
269,602.5750370750443
270,602.6120078057754
271,602.6561217841988
272,602.7084307718666
273,602.7683594654878
274,602.8336544503443
275,602.9005833852718
276,602.9643637275411
277,603.0197716789684
278,603.0618449988401
279,603.086567211591
280,603.0914268349609
281,603.0757825201824
282,603.0410073755824
283,602.9904105698048
284,602.9289441725423
285,602.8627177561743
286,602.7983759696584
287,602.7424319966627
288,602.7006603920687
289,602.6776234096269
290,602.6763590197634
291,602.698228076171
292,602.7429121856254
293,602.8085551948826
294,602.8920258967563
295,602.9892506799648
296,603.0955498675888
297,603.2059234486214
298,603.3152615578848
299,603.418489783761
300,603.5106835145157
301,603.5871875672076
302,603.6437684784084
303,603.676823090452
304,603.6836594214867
305,603.6628352973074
306,603.6144920230059
307,603.5405843674438
308,603.4449105611772
309,603.3328878919459
310,603.2110796705625
311,603.0865329988918
312,602.9660215010125
313,602.8553050570945
314,602.7585226428328
315,602.6778170347897
316,602.613243877569
317,602.5629535950314
318,602.5235793490979
319,602.4907392151792
320,602.4595704185491
321,602.4252440855967
322,602.3834337346653
323,602.3307118816095
324,602.2648410533893
325,602.1849363468566
326,602.0915052170901
327,601.9863862264326
328,601.8725966810339
329,601.7540783499177
330,601.6353269757728
331,601.5209097498855
332,601.4149035781452
333,601.3203179645315
334,601.2385960886716
335,601.1693037071568
336,601.1101022419792
337,601.0570581186668
338,601.0052737143535
339,600.949744151577
340,600.8862689261131
341,600.8122182912666
342,600.7269953472334
343,600.632119734082
344,600.5309399365291
345,600.4280402854002
346,600.3284581510353
347,600.2368690755295
348,600.1569088463604
349,600.0907587911285
350,600.0390301062
351,600.0008823069703
352,599.9742530884918
353,599.956097621056
354,599.9426146926
355,599.9295074448958
356,599.9123343637133
357,599.8869594194641
358,599.850055604355
359,599.7995858931106
360,599.7351800223245
361,599.6583346615768
362,599.5723879817774
363,599.4822617180538
364,599.3940165608598
365,599.3143025577725
366,599.2497814266067
367,599.2065637034419
368,599.1896785300885
369,599.2025992506534
370,599.24686940832
371,599.3218853650725
372,599.4248832913494
373,599.5511532053669
374,599.694466247389
375,599.847659137283
376,600.0032846060791
377,600.154226646815
378,600.2942009919692
379,600.4180993802547
380,600.5221713006631
381,600.6040629693341
382,600.6627547505973
383,600.6984546746675
384,600.7125047510224
385,600.7073279720679
386,600.6863983344316
387,600.6541803111685
388,600.6159741275872
389,600.5776172859872
390,600.5450272440089
391,600.5236239739455
392,600.5177284916664
393,600.5300604005579
394,600.5614353982363
395,600.6107130145504
396,600.674997838013
397,600.750061992541
398,600.8309243275988
399,600.9124954113627
400,600.9901877511307
401,601.0603967644752
402,601.120773208291
403,601.170238534995
404,601.2087503258994
405,601.2368934955884
406,601.2554249088613
407,601.2649097169394
408,601.2655487619796
409,601.2572209039806
410,601.2396874309201
411,601.2128660240679
412,601.1770896837039
413,601.1332977288711
414,601.0831305691407
415,601.0289101812878
416,600.9734984039939
417,600.9200443507183
418,600.8716533411065
419,600.8310239613412
420,600.8001087617957
421,600.7798613308154
422,600.7701295693618
423,600.7697281827135
424,600.7766754029716
425,600.7885322363712
426,600.8027617618166
427,600.8170399574437
428,600.8294823072495
429,600.8387759871127
430,600.8442191823071
431,600.8456799558641
432,600.8435022556857
433,600.8383995165259
434,600.8313815140074
435,600.8237497605891
436,600.817160769092
437,600.8137032227304
438,600.8158967765631
439,600.8265284828564
440,600.8483014522529
441,600.8833525585402
442,600.9327636746593
443,600.996213360516
444,601.0718810588253
445,601.1566389206828
446,601.2464825905679
447,601.3370936604131
448,601.4244088424883
449,601.505093834491
450,601.5768674287327
451,601.6386694654144
452,601.6906951179888
453,601.7343190103489
454,601.7719132426213
455,601.8065482635706
456,601.8415768507036
457,601.8801365166966
458,601.9246425415811
459,601.9763617609627
460,602.035147133293
461,602.0993802803074
462,602.1661289334553
463,602.2314898202754
464,602.2910566364395
465,602.3404313170612
466,602.3756964566728
467,602.3937915080015
468,602.3927700887451
469,602.3719375589532
470,602.3318686677882
471,602.2742999046303
472,602.2019040317161
473,602.1179875907525
474,602.026180521853
475,601.9301873297945
476,601.8336425028108
477,601.7400704273641
478,601.652901713544
479,601.5754639648508
480,601.5108738257691
481,601.4618118091757
482,601.4302280617082
483,601.4170693152541
484,601.4221234388893
485,601.4440515593278
486,601.4806232976025
487,601.529100092395
488,601.5866503314613
489,601.6506590097307
490,601.718830643317
491,601.7890651312498
492,601.8591752311833
493,601.9265703467472
494,601.9880349855578
495,602.0396920183208
496,602.0771839479595
497,602.0960495249692
498,602.0922327627084
499,602.0626412671594
500,602.0056631886617
501,601.9215514401067
502,601.8125955189219
503,601.6830319442935
504,601.5386933851405
505,601.3864556905561
506,601.2335899673741
507,601.087133141262
508,600.9533487116512
509,600.8372986498279
510,600.7425311329358
511,600.6709034605548
512,600.6225674127054
513,600.5961233111851
514,600.5889119970315
515,600.5973895780594
516,600.6175320514621
517,600.6452320766716
518,600.6766556371709
519,600.7085179181369
520,600.7382337951847
521,600.7639198602894
522,600.7842713436014
523,600.7983796997623
524,600.8055648004291
525,600.8052722915448
526,600.7970575995456
527,600.7806565463031
528,600.7561253704124
529,600.7240202932597
530,600.6855816512893
531,600.6428816165021
532,600.5988762158768
533,600.5572848176643
534,600.522239439571
535,600.4977186842864
536,600.4868759394963
537,600.491434073213
538,600.5113148587076
539,600.5446050880275
540,600.5878640987896
541,600.6366879213886
542,600.6863924863602
543,600.7326704921385
544,600.7721035008727
545,600.8024574258944
546,600.822744448774
547,600.8330885665715
548,600.8344737924369
549,600.8284697006394
550,600.8170096737464
551,600.8022474069016
552,600.7864600945447
553,600.7719364064042
554,600.7608032901978
555,600.7547931413334
556,600.7549979883045
557,600.7616799137729
558,600.7742083603237
559,600.791176211003
560,600.8107024339844
561,600.8308704842153
562,600.8502074802559
563,600.8680981388877
564,600.885045401567
565,600.9027233672906
566,600.9238059265258
567,600.9515896302768
568,600.9894627885483
569,601.0403029647842
570,601.1058962993825
571,601.1864563370328
572,601.2802996955338
573,601.383733436703
574,601.491210033673
575,601.595781336454
576,601.6898260200201
577,601.7659542486042
578,601.8179412473353
579,601.8415337196503
580,601.8350055021452
581,601.7993875096876
582,601.7383467126441
583,601.6577384762784
584,601.5649045319342
585,601.4678252675412
586,601.3742482657955
587,601.2909036058322
588,601.2228920787237
589,601.1733081933169
590,601.1431345954791
591,601.1314078200951
592,601.1356097903282
593,601.1522022297811
594,601.1772023632823
595,601.2066989061432
596,601.2372303837703
597,601.2659915140624
598,601.2908827971844
599,601.3104557180556
600,601.3238192256421
601,601.3305590727527
602,601.3306930244818
603,601.3246638028555
604,601.313362607768
605,601.298165441609
606,601.2809496068966
607,601.2640540080107
608,601.2501607958297
609,601.2420933882341
610,601.2425370166711
611,601.2537034809022
612,601.2769903211038
613,601.3127103783505
614,601.3599660990395
615,601.416706954525
616,601.4799541255576
617,601.5461308160872
618,601.6114201304724
619,601.6720896102875
620,601.7247581426519
621,601.766613569634
622,601.7956008211944
623,601.8105885375053
624,601.8114958384782
625,601.7993372315966
626,601.7761452465047
627,601.744765075967
628,601.7085589425959
629,601.6710771091331
630,601.6357416324184
631,601.6055671250131
632,601.5829285692805
633,601.569386333272
634,601.5655885815429
635,601.5712795964857
636,601.5854377265695
637,601.6065437918179
638,601.6329417182451
639,601.6632096530573
640,601.6964365452548
641,601.7323180914436
642,601.7710412850257
643,601.8129893724516
644,601.8583455987574
645,601.9066991368339
646,601.9567593787069
647,602.0062614236356
648,602.0520960382972
649,602.0906348338367
650,602.1181702234237
651,602.1313697506656
652,602.1276578659239
653,602.1054727785496
654,602.0643866103679
655,602.0051119265552
656,601.9294353143331
657,601.8401081755746
658,601.7406906375325
659,601.6353169291139
660,601.5283621130466
661,601.4240376892582
662,601.3259922193575
663,601.2370090746145
664,601.158865691117
665,601.0923652659447
666,601.037506318176
667,600.9937344089832
668,600.9602129302598
669,600.9360465109229
670,600.9203998668677
671,600.9124843943828
672,600.9114225841731
673,600.9160310322043
674,600.9245871760918
675,600.934665668943
676,600.9431327122406
677,600.9463521634699
678,600.940590677812
679,600.9225408427337
680,600.8898444106334
681,600.8415059664192
682,600.7781287452846
683,600.7019534328005
684,600.6167160592829
685,600.5273523061571
686,600.4395676161836
687,600.3592888446458
688,600.2920353729123
689,600.2422841272388
690,600.2129206788097
691,600.2048542620253
692,600.2168426755413
693,600.2455429450652
694,600.2857856546215
695,600.3310634265572
696,600.3742145254569
697,600.4082573062246
698,600.4272882940884
699,600.4273109568034
700,600.4068409842894
701,600.3671606365131
702,600.3121670646278
703,600.2478467606705
704,600.181477788528
705,600.1206985331576
706,600.0725827395067
707,600.0428295419641
708,600.0351351780529
709,600.0507866706915
710,600.0885114075335
711,600.1446130487795
712,600.2134062846291
713,600.2879238199221
714,600.3608151000819
715,600.425307133314
716,600.4760744648206
717,600.5098792090008
718,600.5258881399026
719,600.5256298231493
720,600.5126010667375
721,600.4915752542533
722,600.467718618634
723,600.4456696580469
724,600.4287526185763
725,600.4184690849238
726,600.4143531859643
727,600.4141999394776
728,600.4145994934504
729,600.4116545022783
730,600.4017401287384
731,600.382183023413
732,600.3517665540473
733,600.310997901326
734,600.2621006763909
735,600.2087339995275
736,600.1554840450367
737,600.1072151587233
738,600.0683938267563
739,600.042504412618
740,600.0316588062958
741,600.0364624381781
742,600.0561402414464
743,600.0888635510925
744,600.1321762522341
745,600.1834105799921
746,600.2400076173366
747,600.2997033503583
748,600.36059284197
749,600.4211212744669
750,600.4800520785208
751,600.5364321658506
752,600.5895428397756
753,600.6388240750432
754,600.6837894472693
755,600.7239769749427
756,600.7589772019597
757,600.7885421151552
758,600.8127318413224
759,600.8320331732847
760,600.8473997990183
761,600.8602004509161
762,600.8720838022695
763,600.8847666248221
764,600.899751159303
765,600.9180076200483
766,600.9397042347375
767,600.9640841177079
768,600.9895495308148
769,601.0139369549671
770,601.0348932286771
771,601.0502332739704
772,601.0581864994597
773,601.0575017851011
774,601.0474444933179
775,601.0277520916984
776,600.9986029769709
777,600.9606103670326
778,600.9148189931147
779,600.862683186888
780,600.8060253201718
781,600.7469800912625
782,600.6879155299188
783,600.631308371047
784,600.579559608009
785,600.5347624367465
786,600.4984607993458
787,600.4714450345813
788,600.4536208175674
789,600.4439764979484
790,600.4406764282537
791,600.4413109810552
792,600.4433093855566
793,600.4444633517363
794,600.4434502288045
795,600.4402256875261
796,600.4361871993758
797,600.4340662082795
798,600.4375628892831
799,600.450786588526
800,600.4776074433795
801,600.5210450859536
802,600.5827987487371
803,600.6629689337259
804,600.7599730990843
805,600.8706400156839
806,600.9904643574996
807,601.1139925766485
808,601.2352951341283
809,601.3484720514813
810,601.4481400754012
811,601.5298544056681
812,601.5904263198889
813,601.6281147377329
814,601.6426918273014
815,601.6353986809613
816,601.6088113723438
817,601.5666390285322
818,601.5134805593019
819,601.4545646551456
820,601.3954775564786
821,601.3418588859594
822,601.2990436653329
823,601.2716503632739
824,601.2631389826719
825,601.2753803325558
826,601.3082952308956
827,601.3596392789672
828,601.4250119854335
829,601.4981506338919
830,601.5715302515135
831,601.6372318622939
832,601.687964681943
833,601.7180570501614
834,601.7242099125293
835,601.7058633090711
836,601.6651364992214
837,601.6064077906095
838,601.5356573092639
839,601.4596989244997
840,601.3853981495339
841,601.3189415736648
842,601.265208121286
843,601.2272895506028
844,601.2062051202789
845,601.2008444668355
846,601.208149055347
847,601.2235094433747
848,601.2413227947553
849,601.2556337092603
850,601.2607851664715
851,601.252039325838
852,601.2261619544865
853,601.1819575499013
854,601.1206923860177
855,601.0462947415717
856,600.9652195118463
857,600.8859179339273
858,600.817943946215
859,600.7708235331763
860,600.7528758967522
861,600.7701854463305
862,600.8258853486534
863,600.9198409312393
864,601.0487344987675
865,601.2064819657572
866,601.384877249339
867,601.574357584603
868,601.7647982682637
869,601.94627290717
870,602.1097452520087
871,602.2476729821346
872,602.3544960447206
873,602.4269697188806
874,602.4643059456329
875,602.4681055254675
876,602.4420855477842
877,602.3916249143231
878,602.3231708357064
879,602.2435757668288
880,602.1594594456001
881,602.0766963800194
882,602.0001047782173
883,601.9333592876725
884,601.8790777209734
885,601.8389737200886
886,601.8139644797826
887,601.8041809513566
888,601.8089056660137
889,601.8265117572573
890,601.8544786826601
891,601.8895310077136
892,601.9279107614989
893,601.9657607347308
894,601.9995598589385
895,602.0265155666546
896,602.0448054154157
897,602.053591051246
898,602.0527917790757
899,602.0426738999365
900,602.0233658052051
901,601.9944394859067
902,601.9546952968692
903,601.9022369473552
904,601.8348367244541
905,601.7505015855616
906,601.6480952251359
907,601.5278615933316
908,601.3917213898562
909,601.2432604999487
910,601.0873903076441
911,600.9297321274706
912,600.775852874743
913,600.6305265149493
914,600.4971809550868
915,600.3776163157617
916,600.2719956197013
917,600.1790568866143
