acceleration,velocity,displacement
0.005453680680139078,0.0,0.0
0.006211814357324437,2.9163737593658788e-06,7.290934398414697e-10
0.00696745593120473,6.21119133149817e-06,3.0109847125574815e-09
0.007718129009332781,9.882587566632546e-06,7.034429437090161e-09
0.008461388333178893,1.3927466902260465e-05,1.2986943054313414e-08
0.009194834661530796,1.834152265093789e-05,2.1054190442613002e-08
0.009916128910752454,2.3119263544008702e-05,3.141938699134965e-08
0.010623005391994627,2.8254047119695472e-05,4.4262714657275695e-08
0.011313284020435821,3.3738119472803085e-05,5.976075630540034e-08
0.011984881406492863,3.9562660829535256e-05,7.808595138098492e-08
0.01263582078075718,4.5717836376347767e-05,9.940607568245568e-08
0.013264240749407921,5.2192851758889044e-05,1.2388374771626489e-07
0.013868402909673385,5.897601267365937e-05,1.5167596382440199e-07
0.014446698363577135,6.6054787991972e-05,1.829336639908098e-07
0.014997653159667102,7.341587587278305e-05,2.1780132995699858e-07
0.015519932684976982,8.104527233394407e-05,2.5641661700868037e-07
0.016012345030726696,8.892834176286998e-05,2.9891002053288387e-07
0.016473843358131637,9.704988886008456e-05,3.4540457818862253e-07
0.016903527288691825,0.00010539423152179043,3.960156082840913e-07
0.017300643340748174,0.00011394527417915043,4.508504847093265e-07
0.017664584441948017,0.00012268658112482447,5.100084485353202e-07
0.01799488857041555,0.00013160144937791537,5.735804561610051e-07
0.018291236608469135,0.00014067298067263655,6.416490636736431e-07
0.018553449516951964,0.00014988415220399182,7.142883468928002e-07
0.01878148494425447,0.00015921788581929342,7.915638563986215e-07
0.01897543336892456,0.0001686571153975882,8.735326067028419e-07
0.0191355138443946,0.00017818485220091797,9.602430986024685e-07
0.019262069379029675,0.00018778424800677406,1.0517353736543915e-06
0.019355561953334523,0.0001974386558398651,1.1480410996160513e-06
0.019416567156358696,0.0002071316881172884,1.2491836856053396e-06
0.019445768419886125,0.0002168472720113496,1.3551784256374992e-06
0.019443950837726952,0.00022656970182575287,1.4660326690967748e-06
0.019411994565630673,0.0002362836881765923,1.5817460165973612e-06
0.019350867797469987,0.00024597440376736745,1.7023105395833512e-06
0.0192616193112701,0.00025562752554455245,1.8277110219113312e-06
0.019145370584068795,0.00026522927301838716,1.9579252215520663e-06
0.019003307490278783,0.00027476644253697404,2.0929241504409065e-06
0.01883667162372218,0.0002842264373154743,2.232672370404019e-06
0.018646751318338418,0.00029359729305098944,2.3771283029956348e-06
0.018434872478504016,0.0003028676990002001,2.526244551008432e-06
0.018202389351602774,0.0003120270144577268,2.679968229372914e-06
0.017950675372243402,0.00032106528063868833,2.8382413031470176e-06
0.017681114184219537,0.00032997322802780406,3.0010009303136406e-06
0.01739509091941366,0.0003387422793037124,3.1681798071465195e-06
0.017093983798617093,0.00034736454798322007,3.3397065139682525e-06
0.016779156122463407,0.0003558328329634902,3.51550585920493e-06
0.016451948734519876,0.000364140609177736,3.6954992197402368e-06
0.01611367304928123,0.0003722820146236863,3.879604875690592e-06
0.015765604733588068,0.0003802518340694036,4.067738337863865e-06
0.015408978109236164,0.0003880454797801097,4.2598126663262435e-06
0.01504498131514341,0.00039565896963620457,4.455738778680322e-06
0.014674752236992815,0.0004030889030242386,4.655425746845432e-06
0.014299375182359526,0.0004103324348790767,4.858781081321261e-06
0.013919878248928557,0.0004173872482368987,5.065711002100255e-06
0.01353723130665238,0.000424251525625794,5.2761206955659285e-06
0.013152344502223905,0.00043092391957801307,5.48991455686688e-06
0.012766067200373888,0.0004374035225036625,5.706996417387299e-06
0.012379187290392479,0.0004436898361263541,5.927269757044803e-06
0.011992430794288942,0.00044978274064752446,6.150637901238273e-06
0.011606461717604254,0.0004556824637754978,6.377004202344028e-06
0.011221882100878532,0.00046138954973011845,6.6062722057204325e-06
0.010839232267194417,0.0004669048283221367,6.838345800233496e-06
0.01045899130496779,0.00047222938421517726,7.073129353367824e-06
0.010081577848359493,0.00047736452650350906,7.310527831047496e-06
0.009707351207040084,0.00048231175876735897,7.550446902365213e-06
0.009336612867058563,0.0004870727497858836,7.792793029503525e-06
0.008969608363172073,0.0004916493050934413,8.037473543223356e-06
0.008606529522134615,0.000496043339564768,8.284396704387909e-06
0.00824751708430689,0.0005002568512163783,8.533471752083194e-06
0.00789266371258913,0.0005042918964156024,8.78460893899119e-06
0.007542017390769775,0.0005081505666914421,9.037719554767951e-06
0.007195585199995961,0.0005118349673391336,9.292715938275595e-06
0.006853337438800463,0.0005153471979988327,9.549511479610086e-06
0.006515212017331689,0.0005186893353628658,9.808020612950511e-06
0.006181119020503516,0.0005218634181223245,1.006815880132181e-05
0.005850945316181841,0.0005248714342064958,1.0329842514404014e-05
0.0055245590933544865,0.0005277153103088799,1.0592989200532858e-05
0.005201814244019807,0.0005303969036432235,1.0857517254020884e-05
0.0048825545348477745,0.0005329179958379405,1.1123345978891175e-05
0.004566617540254283,0.000535280288856716,1.1390395550064839e-05
0.004253838328597058,0.0005374854028239288,1.1658586972985e-05
0.0039440529105766045,0.0005395348756337223,1.1927842042599414e-05
0.003637101470930023,0.0005414301642290989,1.219808330256512e-05
0.0033328314081855926,0.0005431726474488778,1.2469234005484613e-05
0.0030311002067604574,0.0005447636303526143,1.2741218074934986e-05
0.0027317781681788244,0.0005462043499463491,1.3013960070009726e-05
0.0024347510374998433,0.0005474959822477689,1.3287385153058255e-05
0.0021399225755401596,0.0005486396506510289,1.3561419061282955e-05
0.00184721714079055,0.0005496364355801115,1.383598808284074e-05
0.001556582346453547,0.0005504873854519226,1.4111019038098749e-05
0.0012679918384161108,0.00055119352899814,1.4386439266711265e-05
0.0009814482026428363,0.0005517558890084047,1.46621766212129e-05
0.0006969859722768831,0.0005521754975521346,1.4938159467853036e-05
0.00041467467842407334,0.0005524534127148099,1.5214316695419772e-05
0.00013462186951910063,0.0005525907368517957,1.5490577732811422e-05
-0.00014302399712882188,0.0005525886363198933,1.5766872576104346e-05
-0.00041807091018853683,0.000552448362593064,1.6043131825832587e-05
-0.0006902810347409094,0.0005521712746068316,1.631928673513256e-05
-0.0009593689373737654,0.0005517588621138029,1.6595269269312718e-05
-0.0012250003978956899,0.0005512127697799856,1.6871012177286165e-05
-0.0014867918684261271,0.0005505348217134051,1.7146449075159513e-05
-0.0017443106162934113,0.0005497270460922252,1.742151454211092e-05
-0.0019970755716255915,0.0005487916995452454,1.7696144228520286e-05
-0.0022445588890599574,0.000547731290930074,1.7970274976139114e-05
-0.0024861882209946374,0.0005465486041525603,1.824384494990977e-05
-0.0027213496878012756,0.0005452467196753614,1.851679378086675e-05
-0.0029493915210933655,0.0005438290343731377,1.8789062719378877e-05
-0.003169628350531299,0.0005422992794052316,1.906059479782347e-05
-0.0033813461017750297,0.000540661535792155,1.9331335001622815e-05
-0.0035838074715336472,0.0005389202473988278,1.960123044742056e-05
-0.003776257941846962,0.0005370802310454827,1.9870230567031638e-05
-0.003957932285318945,0.0005351466834886912,2.0138287295665183e-05
-0.004128061495107829,0.0005331251850435846,2.0405355262798253e-05
-0.004285880052835639,0.0005310216996565987,2.0671391983973298e-05
-0.004430633430732139,0.0005288425712857067,2.0936358051708875e-05
-0.0045615857138078236,0.0005265945164995718,2.1200217323655193e-05
-0.004678027222398379,0.0005242846132655203,2.1462937106096466e-05
-0.004779282015062408,0.0005219202859561551,2.1724488330901883e-05
-0.004864715158429776,0.000519509286662782,2.1984845724056618e-05
-0.004933739662747235,0.0005170596729574877,2.2243987963961685e-05
-0.004985822993789011,0.0005145797822933537,2.2501897827774397e-05
-0.005020493082452604,0.0005120782032742934,2.2758562324166308e-05
-0.005037343769305526,0.0005095637440613539,2.301397281100022e-05
-0.005036039645223287,0.0005070453982077217,2.326812509656749e-05
-0.005016320274570452,0.0005045323082277733,2.3521019523176364e-05
-0.004978003808060356,0.0005020337272071156,2.3772661032035084e-05
-0.004920990007551819,0.0004995589787532126,2.4023059208525168e-05
-0.004845262714534127,0.0004971174155726911,2.4272228307106643e-05
-0.004750891796166192,0.000494718376945016,2.452018725523607e-05
-0.004638034596337629,0.00049237114534689,2.4766959635809046e-05
-0.004506936904203684,0.0004900849024717547,2.5012573647763708e-05
-0.00435793343073911,0.000487868684888019,2.5257062044603652e-05
-0.004191447758222026,0.0004857313395907787,2.5500462050723352e-05
-0.0040079917033507845,0.0004836814797253855,2.5742815255552393e-05
-0.0038081640181045723,0.0004817274407950217,2.5984167485682496e-05
-0.0035926483479140335,0.000479877237703517,2.622456865530713e-05
-0.0033622103746827336,0.0004781385230228678,2.6464072595488726e-05
-0.003117694089999317,0.00047651854690669733,2.670273686297112e-05
-0.0028600171660950837,0.0004750241190926737,2.6940622529470962e-05
-0.0025901654151681925,0.0004736615734473579,2.717779395260597e-05
-0.002309186354451349,0.000472436735504953,2.7414318529844047e-05
-0.0020181819279359485,0.0004713548934343562,2.7650266437078876e-05
-0.0017183004717964802,0.00047042077283442307,2.788571035364607e-05
-0.0014107280391284487,0.00046963851570669185,2.812072517578135e-05
-0.0010966792139929472,0.0004690116638934115,2.8355387720681375e-05
-0.0007773875458518087,0.0004685431472034503,2.8589776423455592e-05
-0.00045409572964089106,0.0004682352763845771,2.88239710293526e-05
-0.00012804565153410813,0.00046808974103928336,2.9058052283708564e-05
0.0001995315798463496,0.0004681076125213614,2.9292101622098726e-05
0.0005274254966775023,0.0004682893517904924,2.952620086317669e-05
0.0008544559193311736,0.00046863482214449457,2.9760431906660437e-05
0.0011794823033273007,0.0004691433067001592,2.99948764388716e-05
0.0015014127356096799,0.00046981353045989343,3.0229615648161612e-05
0.0018192125573059752,0.0004706436867831223,3.0464729952472367e-05
0.0021319125997699183,0.0004716314680723913,3.070029874118624e-05
0.0024386170121293454,0.0004727741004753661,3.093640013332318e-05
0.0027385106394346636,0.00047406838238825714,3.1173110754039086e-05
0.003030865888260314,0.0004755107265201809,3.1410505531266194e-05
0.0033150489952467493,0.00047709720524105766,3.1648657514206506e-05
0.003590525597865947,0.0004788235988893358,3.1887637715239104e-05
0.003856865503323173,0.0004806854466646331,3.21275149766276e-05
0.004113746564947173,0.00048267809968170067,3.236835586321418e-05
0.004360957601377546,0.00048479677572328185,3.261022458206543e-05
0.004598400323503835,0.0004870366152045022,3.285318292979737e-05
0.0048260902602486385,0.0004893927378504403,3.309729026806111e-05
0.005044156692513765,0.0004918602995886309,3.334260352742088e-05
0.005252841614538055,0.0004944345491653939,3.358917723960938e-05
0.0054524977487231275,0.0004971108840062092,3.383706359790228e-05
0.005643585648791323,0.0004998849048555878,3.408631254511773e-05
0.005826669934237837,0.0005027524687513451,3.433697188851946e-05
0.006002414698731015,0.0005057097399095873,3.4589087440684695e-05
0.006171578123124913,0.0005087532381150512,3.484270318519085e-05
0.006335006305021438,0.0005118798842220878,3.509786146577514e-05
0.006493626300114747,0.0005150870423733719,3.5354603197424003e-05
0.006648438364255792,0.0005183725585394645,3.561296809765221e-05
0.0068005073919879,0.0005217347949785254,3.5872994936031706e-05
0.0069509535623365,0.0005251726602171065,3.6134721799830616e-05
0.007100942221107344,0.0005286856341629675,3.639818637342564e-05
0.007251673050640664,0.0005322737879809045,3.666342622896161e-05
0.007404368602582506,0.0005359377983942102,3.6930479125555386e-05
0.007560262296287426,0.0005396789561189277,3.719938331418367e-05
0.007720586018102185,0.000543499168197525,3.747017784526279e-05
0.00788655749650232,0.0005474009540761762,3.774290287583121e-05
0.00805936766330185,0.0005513874353661272,3.801759997319179e-05
0.008240168224360266,0.0005554623193380427,3.829431241186783e-05
0.008430059650904003,0.0005596298763068587,3.8573085460779056e-05
0.008630079778137841,0.0005638949111641192,3.88539666576468e-05
0.00884119317263692,0.0005682627294018129,3.913700606778828e-05
0.009064281402158248,0.0005727390980455117,3.942225652465011e-05
0.009300134308599547,0.0005773302019732011,3.970977384965479e-05
0.00954944235286636,0.0005820425961385676,3.999961704918273e-05
0.00981279007585247,0.0005868831542457473,4.0291848486778814e-05
0.010090650702419763,0.0005918590144403154,4.058653402895033e-05
0.010383381902329724,0.0005969775225915028,4.088374316320828e-05
0.0106912227113755,0.0006022461737449291,4.118354908729239e-05
0.011014291605192973,0.0006076725523240712,4.1486028768809636e-05
0.011352585706148862,0.0006132642716519067,4.179126297480363e-05
0.01170598109359125,0.0006190289133518417,4.2099336271054565e-05
0.012074234182980564,0.0006249739671709847,4.241033699118527e-05
0.0124569841375292,0.0006311067717511121,4.2724357175915797e-05
0.012853756269460235,0.0006374344568528595,4.304149248306679e-05
0.013263966375353558,0.0006439638875140629,4.336184206915852e-05
0.013686925938557977,0.0006507016105925408,4.368550844368517e-05
0.014121848125719039,0.00065765380410861,4.401259729736046e-05
0.014567854496657278,0.0006648262297642041,4.4343217305828665e-05
0.015023982327624611,0.0006722241889702746,4.467747991051228e-05
0.015489192419766823,0.0006798524826571224,4.501549907841913e-05
0.01596237724081061,0.0006877153750722667,4.535739104285148e-05
0.016442369239803637,0.0006958165616924203,4.5703274027042654e-05
0.016927949181916764,0.0007041591412978504,4.605326795279022e-05
0.01741785436616174,0.00071274559218487,4.64074941361609e-05
0.017910786610193553,0.0007215777524289588,4.676607497231436e-05
0.01840541991406109,0.0007306568040600224,4.712913361143661e-05
0.01890040774809553,0.0007399832609755616,4.7496793627695504e-05
0.019394389946847532,0.0007495569603992974,4.7869178683039216e-05
0.01988599923036391,0.0007593770576936002,4.824641218756244e-05
0.020373867413028567,0.0007694420243544483,4.8628616958074455e-05
0.020856631386888255,0.0007797496490544275,4.9015914876426675e-05
0.021332938968775535,0.0007902970416433435,4.940842654910112e-05
0.021801454678179774,0.0008010806400550823,4.9806270969525725e-05
0.0222608654755554,0.0008120962200935161,5.0209565184562874e-05
0.022709886447736704,0.0008233389080743391,5.061842396660484e-05
0.023147266386917047,0.0008348031962830025,5.1032959492694175e-05
0.02357179318139977,0.0008464829611750817,5.14532810320587e-05
0.023982298926628624,0.0008583714842020887,5.187949464340299e-05
0.024377664668243468,0.0008704614751008068,5.231170288322871e-05
0.024756824695076854,0.0008827450974416369,5.2750004526364324e-05
0.025118770308209887,0.0008952139961924586,5.319449429977285e-05
0.02546255301238937,0.0009078593270226083,5.364526263057662e-05
0.025787287110554002,0.0009206717870533441,5.410239540909561e-05
0.026092151717516488,0.0009336416467603618,5.4565973767549034e-05
0.0263763922303095,0.0009467587827473183,5.503607387492595e-05
0.026639321297708123,0.0009600127111293226,5.551276674839511e-05
0.02688031932524993,0.0009733926212850621,5.5996118081498705e-05
0.027098834543428752,0.0009868874097522318,5.648618808925803e-05
0.0272943826653631,0.0010004857140544297,5.698303137020969e-05
0.027466546169963125,0.0010141759462632613,5.748669678528911e-05
0.027614973259889146,0.0010279463261207245,5.799722735338511e-05
0.02773937654836402,0.0010417849135727878,5.851466016330849e-05
0.027839531517210525,0.0010556796405891814,5.903902630184898e-05
0.027915274760392246,0.0010696183421585821,5.957035079753592e-05
0.02796650199287248,0.0010835887863468983,6.0108652579662286e-05
0.027993165786112672,0.0010975787032916446,6.065394445207192e-05
0.027995273010769702,0.0011115758129908652,6.120623308114254e-05
0.02797288201868031,0.0011255678517482278,6.176551899732732e-05
0.02792609964547054,0.0011395425971642654,6.233179660955544e-05
0.027855078133630258,0.0011534878916090406,6.290505423174877e-05
0.027760012068159135,0.001167391664159488,6.34852741206909e-05
0.0276411354068287,0.001181241951028235,6.407243252448783e-05
0.027498718687971168,0.0011950269145519351,6.466649974088288e-05
0.027333066503226543,0.0012087348608497345,6.526744018473329e-05
0.0271445153174122,0.0012223542563048941,6.587521246402195e-05
0.026933431699215044,0.0012358737430590509,6.648976946386294e-05
0.02670021100165827,0.0012492821537342692,6.711105843806128e-05
0.02644527650592721,0.0012625685256111656,6.773902110789764e-05
0.026169079012826262,0.001275722114490854,6.837359376792314e-05
0.02587209683043385,0.001288732408451669,6.901470739865877e-05
0.025554836074379854,0.0013015891416778725,6.966228778619116e-05
0.025217831185723426,0.0013142823084928983,7.031625564873385e-05
0.02486164558588525,0.0013268021776858005,7.097652677027853e-05
0.024486872414880064,0.0013391393071859917,7.164301214149647e-05
0.024094135320148632,0.0013512845591197489,7.23156181080729e-05
0.023684089268066658,0.0013632291152668027,7.299424652666955e-05
0.02325742134147429,0.001374964492919188,7.367879492871604e-05
0.02281485147834167,0.0013864825611241418,7.436915669222687e-05
0.022357133110782974,0.001397775557271423,7.506522122182576e-05
0.021885053675110122,0.0014088361039678963,7.576687413713559e-05
0.02139943496717076,0.0014196572261284664,7.647399746965968e-05
0.020901133306692854,0.0014302323681969322,7.718646986824104e-05
0.02039103945835675,0.0014405554113881946,7.790416681313732e-05
0.019870078249514894,0.0014506206908151626,7.862696083868816e-05
0.019339207833468687,0.0014604230123359085,7.935472176447593e-05
0.018799418570196926,0.001469957668936825,8.008731693479412e-05
0.018251731521312264,0.0014792204564597023,8.082461146614325e-05
0.017697196573698046,0.001488207688483455,8.156646850237903e-05
0.017136890216671398,0.0014969162101810473,8.231274947704516e-05
0.016571913002582834,0.001505343410985861,8.306331438233688e-05
0.016003386717671514,0.0015134872359159246,8.381802204406232e-05
0.015432451275463154,0.0015213461954142083,8.457673040189486e-05
0.014860261324846628,0.0015289193735642857,8.533929679413948e-05
0.014287982550199436,0.0015362064345330472,8.610557824616382e-05
0.013716787635922125,0.0015432076270795775,8.687543176156698e-05
0.013147851871157377,0.0015499237869563475,8.764871461507596e-05
0.012582348384209584,0.0015563563370201892,8.84252846460701e-05
0.01202144302320108,0.0015625072848720418,8.920500055154316e-05
0.011466288933307195,0.001568379217861169,8.998772217722646e-05
0.010918020906734823,0.0015739752953211794,9.077331080552205e-05
0.010377749588233778,0.0015792992379449215,9.156162943883857e-05
0.009846555609045897,0.0015843553142442415,9.235254307688587e-05
0.009325483710620086,0.001589148324074158,9.314591898646547e-05
0.008815536917765375,0.0015936835792312544,9.394162696229183e-05
0.008317670826217706,0.0015979668811672502,9.473953957739145e-05
0.007832788071683595,0.0016020044958917254,9.55395324216562e-05
0.007361733040958608,0.001605803126169886,9.63414843271716e-05
0.006905286872208589,0.001609369881148178,9.71452775790011e-05
0.006464162777101668,0.0016127122435605054,9.795079811017827e-05
0.0060390017106570675,0.0016158380346824452,9.8757935679739e-05
0.005630368417267824,0.0016187553772144263,9.956658403271322e-05
0.005238747884710312,0.0016214726562899207,0.00010037664104108931
0.004864542233079255,0.001623998478819368,0.00010118800882486664
0.004508068053261833,0.0016263416313909533,0.00010200059385241922
0.004169554197282895,0.0016285110369535895,0.00010281430701950535
0.0038491400151197674,0.00163051571050669,0.00010362906370637043
0.003546874027132922,0.0016323647140172532,0.00010444478381250141
0.003262713014674011,0.0016340671107777048,0.00010526139176870016
