frame_number,force
0,710.3273930049854
1,710.3052455980946
2,710.2834448885238
3,710.2623322042025
4,710.2422381844651
5,710.2234775706848
6,710.2063441850236
7,710.1911062009212
8,710.1780018344332
9,710.1672356008252
10,710.1589752778708
11,710.1533496959958
12,710.1504474420449
13,710.1503165237272
14,710.1529649985071
15,710.1583625270292
16,710.1664427717502
17,710.1771065294215
18,710.190225461888
19,710.2056462728381
20,710.2231951678627
21,710.2426824310911
22,710.2639069555838
23,710.286660579996
24,710.3107321114076
25,710.3359109483068
26,710.3619902506731
27,710.388769632224
28,710.4160573735098
29,710.4436721730307
30,710.471444465253
31,710.4992173394102
32,710.5268470929827
33,710.5542034514493
34,710.5811694857473
35,710.6076412646103
36,710.6335272889896
37,710.6587477637634
38,710.683233763868
39,710.7069263510148
40,710.7297756984042
41,710.7517402830609
42,710.7727862021637
43,710.7928866582143
44,710.8120216407165
45,710.8301778112726
46,710.8473485754364
47,710.8635343031464
48,710.8787426467492
49,710.8929889009961
50,710.9062963460015
51,710.9186965093479
52,710.9302292830619
53,710.9409428407652
54,710.9508933182353
55,710.9601442411523
56,710.9687657041692
57,710.9768333267186
58,710.9844270339405
59,710.9916297321198
60,710.9985259594863
61,711.0052005902418
62,711.0117376554949
63,711.018219327281
64,711.0247250962291
65,711.031331161232
66,711.0381100413803
67,711.0451304153021
68,711.0524571871841
69,711.0601517694593
70,711.0682725592587
71,711.076875569871
72,711.086015161975
73,711.0957448070745
74,711.1061178110222
75,711.1171879291654
76,711.1290098143331
77,711.1416392504034
78,711.1551331331632
79,711.1695491656986
80,711.1849452415969
81,711.20137850152
82,711.2189040694302
83,711.2375735002829
84,711.2574329954856
85,711.2785214631357
86,711.3008685180115
87,711.3244925323287
88,711.3493988609238
89,711.3755783702309
90,711.403006393278
91,711.431642207717
92,711.4614290929446
93,711.4922949758947
94,711.5241536323527
95,711.5569063743345
96,711.5904441233407
97,711.6246497453164
98,711.6594005104738
99,711.6945705439476
100,711.7300331502145
101,711.7656629183227
102,711.8013375400453
103,711.8369392988039
104,711.8723562152884
105,711.9074828635187
106,711.9422208933797
107,711.9764793093615
108,712.0101745605856
109,712.043230496832
110,712.0755782431627
111,712.1071560442258
112,712.1379091265228
113,712.1677896190221
114,712.1967565583092
115,712.22477598594
116,712.2518211251916
117,712.2778726041568
118,712.3029186763499
119,712.3269553839059
120,712.3499866128428
121,712.372023999802
122,712.393086660566
123,712.4132007220896
124,712.4323986525225
125,712.4507183952611
126,712.4682023189945
127,712.4848959957343
128,712.5008468180748
129,712.5161024698209
130,712.5307092705314
131,712.5447104228298
132,712.55814420068
133,712.5710421258111
134,712.583427186432
135,712.5953121566131
136,712.6066980746767
137,712.617572931463
138,712.6279106040405
139,712.6376700530652
140,712.6467947909841
141,712.65521262792
142,712.6628357092185
143,712.6695608659143
144,712.6752703010217
145,712.6798326290918
146,712.6831042759194
147,712.684931233079
148,712.6851511504505
149,712.6835957387904
150,712.6800934420792
151,712.6744723244049
152,712.6665630992684
153,712.656202214974
154,712.6432349042093
155,712.6275181107017
156,712.6089232171784
157,712.5873385125523
158,712.5626713505052
159,712.5348499653879
160,712.5038249239275
161,712.4695702037096
162,712.4320839028544
163,712.3913885979443
164,712.3475313761812
165,712.3005835721362
166,712.2506402398055
167,712.1978193868581
168,712.142260990082
169,712.0841258007719
170,712.0235939391364
171,711.9608632712211
172,711.8961475626837
173,711.8296744111649
174,711.7616829715033
175,711.6924215024274
176,711.6221447738017
177,711.5511113758479
178,711.4795809686725
179,711.4078115079535
180,711.3360564827215
181,711.2645622023558
182,711.193565172395
183,711.1232896036717
184,711.0539451050638
185,710.9857246140141
186,710.9188026213315
187,710.8533337504294
188,710.7894517553049
189,710.7272689997748
190,710.6668764666156
191,710.6083443191785
192,710.5517230054907
193,710.4970448637335
194,710.4443261642737
195,710.3935695075563
196,710.3447664858622
197,710.2979005087703
198,710.2529496891206
199,710.2098896899438
200,710.1686964416782
201,710.1293486496794
202,710.091830022467
203,710.0561311606575
204,710.0222510537682
205,709.990198136841
206,709.9599908649086
207,709.9316577742842
208,709.9052370141568
209,709.8807753478732
210,709.8583266421117
211,709.8379498851469
212,709.8197067998465
213,709.8036591396566
214,709.789865775026
215,709.7783796908936
216,709.7692450196369
217,709.7624942277231
218,709.7581455607865
219,709.7562008341228
220,709.7566436362317
221,709.7594379930919
222,709.7645275201963
223,709.771835069091
224,709.7812628570723
225,709.7926930526872
226,709.8059887754943
227,709.8209954588979
228,709.8375425215353
229,709.8554452918562
230,709.874507127511
231,709.8945216676066
232,709.9152751577263
233,709.9365487968992
234,709.9581210681645
235,709.9797700245175
236,710.0012755080588
237,710.0224212849624
238,710.0429970864894
239,710.0628005565646
240,710.0816391141506
241,710.0993317400613
242,710.1157106952227
243,710.1306231742324
244,710.1439328929198
245,710.1555215971174
246,710.1652904617268
247,710.1731613301773
248,710.1790777326506
249,710.1830056220849
250,710.1849337782938
251,710.184873846169
252,710.1828599893695
253,710.1789481559804
254,710.1732149681596
255,710.1657562630205
256,710.1566853253024
257,710.1461308624632
258,710.1342347791104
259,710.1211498110578
260,710.1070370824207
261,710.0920636540707
262,710.0764001371059
263,710.0602184473819
264,710.0436897735192
265,710.0269828190499
266,710.010262359278
267,709.9936881277615
268,709.9774140208242
269,709.9615875861173
270,709.9463497461859
271,709.9318347000777
272,709.9181699424583
273,709.9054763382885
274,709.8938681920081
275,709.8834532548941
276,709.8743326246304
277,709.866600508294
278,709.8603438424993
279,709.8556417871265
280,709.852565124666
281,709.8511756007256
282,709.8515252336928
283,709.8536556098999
284,709.8575971734401
285,709.8633685211717
286,709.8709757208173
287,709.88041167758
288,709.8916555785846
289,709.9046724444214
290,709.9194128140985
291,709.9358125841164
292,709.9537930137592
293,709.9732608977653
294,709.9941088972499
295,710.0162160137417
296,710.039448191589
297,710.0636590406107
298,710.0886906809229
299,710.1143747211095
300,710.1405333866875
301,710.1669808178335
302,710.1935245523747
303,710.2199672000613
304,710.2461082984238
305,710.2717463240896
306,710.2966808204717
307,710.3207145944413
308,710.3436559308778
309,710.3653207743415
310,710.3855348301839
311,710.4041355421153
312,710.4209739100864
313,710.4359161222235
314,710.4488449869467
315,710.4596611643378
316,710.4682842060287
317,710.4746534168086
318,710.4787285479679
319,710.4804903252383
320,710.4799408078908
321,710.4771035741102
322,710.4720237312542
323,710.4647677527417
324,710.455423140594
325,710.4440979048856
326,710.4309198445031
327,710.4160356130417
328,710.399609560672
329,710.381822353231
330,710.3628693760951
331,710.3429589288335
332,710.322310211324
333,710.3011510998346
334,710.2797157159138
335,710.2582418017482
336,710.2369679305934
337,710.216130595436
338,710.1959612296181
339,710.1766832203971
340,710.1585089824046
341,710.1416371612983
342,710.1262500345331
343,710.1125111652977
344,710.1005633517439
345,710.0905269018441
346,710.0824982566219
347,710.0765489810127
348,710.072725140257
349,710.0710470758161
350,710.0715095846679
351,710.0740824914263
352,710.078711590233
353,710.0853199280136
354,710.0938094026394
355,710.104062652657
356,710.115945211899
357,710.1293078909646
358,710.1439893335278
359,710.1598186838886
360,710.1766182948452
361,710.1942064020046
362,710.2123996927635
363,710.2310157070405
364,710.2498750242445
365,710.2688032158476
366,710.2876325694488
367,710.3062036109592
368,710.324366463143
369,710.341982082579
370,710.3589234153023
371,710.3750765048296
372,710.3903415757738
373,710.4046341024416
374,710.4178858548709
375,710.4300458966312
376,710.4410814939723
377,710.4509788878809
378,710.4597438776757
379,710.4674021636087
380,710.4739993965517
381,710.4796008873236
382,710.4842909377961
383,710.4881717710095
384,710.4913620559532
385,710.4939950386996
386,710.4962163018128
387,710.4981811819498
388,710.5000518872296
389,710.5019943726707
390,710.5041750505749
391,710.5067574294962
392,710.5098987878447
393,710.5137469931494
394,710.5184375722704
395,710.5240911210359
396,710.5308111179455
397,710.5386821823931
398,710.5477687985508
399,710.558114512005
400,710.5697415945525
401,710.58265116108
402,710.5968237100516
403,710.612220044917
404,710.6287825188386
405,710.6464365333082
406,710.6650922158199
407,710.6846462032648
408,710.7049834651946
409,710.725979114751
410,710.7475001740747
411,710.7694072807774
412,710.7915563372524
413,710.8138001136289
414,710.8359898186991
415,710.8579766512005
416,710.8796133373146
417,710.9007556528228
418,710.9212639241749
419,710.9410045019843
420,710.9598511986023
421,710.9776866744428
422,710.9944037486248
423,711.0099066068082
424,711.0241118871918
425,711.036949638422
426,711.0483641502688
427,711.0583146562617
428,711.0667759018203
429,711.0737385657959
430,711.0792095181556
431,711.0832118926834
432,711.0857849533471
433,711.0869837366373
434,711.0868784568329
435,711.0855536637617
436,711.0831071439654
437,711.0796485609702
438,711.0752978422236
439,711.0701833369066
440,711.064439784266
441,711.0582061427363
442,711.0516233366345
443,711.0448319812181
444,711.0379701480465
445,711.0311712300535
446,711.0245619602268
447,711.018260630945
448,711.0123755538942
449,711.0070037933473
450,711.0022301969859
451,710.9981267358493
452,710.9947521489236
453,710.9921518732623
454,710.9903582306405
455,710.9893908342802
456,710.9892571716301
457,710.989953314384
458,710.9914647087901
459,710.9937670064783
460,710.9968269042181
461,711.000602968214
462,711.0050464251048
463,711.0101019084466
464,711.0157081570876
465,711.0217986709199
466,711.0283023381909
467,711.0351440541552
468,711.0422453518626
469,711.0495250612348
470,711.0569000023171
471,711.0642857070651
472,711.0715971582357
473,711.0787495365357
474,711.0856589750545
475,711.0922433290024
476,711.0984229757164
477,711.1041216608769
478,711.1092673985747
479,711.1137934167876
480,711.1176391234144
481,711.1207510595448
482,711.1230838079865
483,711.1246008309522
484,711.1252752155863
485,711.1250903081904
486,711.1240402178086
487,711.1221301672681
488,711.119376666514
489,711.1158074829345
490,711.111461388818
491,711.1063876758515
492,711.1006454382548
493,711.0943026395364
494,711.0874349930755
495,711.0801247004296
496,711.0724590989761
497,711.0645292718228
498,711.0564286703831
499,711.0482517937535
500,711.0400929575097
501,711.0320451700302
502,711.0241991227196
503,711.016642294492
504,711.0094581692783
505,711.0027255661672
506,710.9965180833344
507,710.9909036562311
508,710.985944224909
509,710.981695495074
510,710.9782067667865
511,710.9755207994639
512,710.9736736843931
513,710.972694703812
514,710.9726061647152
515,710.9734232032872
516,710.9751535621708
517,710.9777973496384
518,710.9813467977368
519,710.9857860427544
520,710.9910909528454
521,710.9972290245225
522,711.0041593644255
523,711.0118327677678
524,711.0201919022577
525,711.0291716078012
526,711.0386993273347
527,711.0486956887439
528,711.0590752579469
529,711.0697474780416
530,711.0806177996848
531,711.0915889940889
532,711.1025626247375
533,711.1134406416874
534,711.1241270549942
535,711.13452963954
536,711.1445616215015
537,711.1541432982032
538,711.163203546567
539,711.1716811755409
540,711.1795260727173
541,711.1867000903849
542,711.1931776198915
543,711.1989458182663
544,711.2040044722551
545,711.2083655054399
546,711.2120521521772
547,711.2150978377294
548,711.2175448142353
549,711.2194426050393
550,711.2208463096017
551,711.2218148235607
552,711.2224090332328
553,711.222690044788
554,711.2227175009551
555,711.2225480257238
556,711.2222338293989
557,711.2218215077122
558,711.2213510735888
559,711.2208552576269
560,711.2203590993696
561,711.2198798318412
562,711.2194270445157
563,711.2190030978828
564,711.2186037544074
565,711.2182189839464
566,711.2178338973489
567,711.2174297622212
568,711.2169850596794
569,711.2164765469736
570,711.2158802949316
571,711.215172671597
572,711.2143312467289
573,711.2133355971686
574,711.2121679998652
575,711.2108140069644
576,711.2092629057399
577,711.2075080744135
578,711.2055472497913
579,711.2033827202578
580,711.2010214483136
581,711.1984751170039
582,711.1957600918915
583,711.1928972957749
584,711.1899120001941
585,711.1868335383099
586,711.1836949370628
587,711.1805324576553
588,711.1773850281528
589,711.1742935534261
590,711.1713000951436
591,711.1684469249944
592,711.1657754653957
593,711.1633251436084
594,711.161132197575
595,711.1592284831429
596,711.157640340879
597,711.1563875855338
598,711.1554826801247
599,711.1549301452285
600,711.1547262305176
601,711.1548588447396
602,711.1553077122279
603,711.1560447065143
604,711.1570343064116
605,711.1582341242396
606,711.159595464987
607,711.16106388466
608,711.1625797239664
609,711.1640786007712
610,711.1654918535934
611,711.1667469407189
612,711.1677678148131
613,711.1684753058556
614,711.1687875486342
615,711.1686204832356
616,711.1678884436475
617,711.1665048376079
618,711.1643829124966
619,711.1614365968653
620,711.1575814054014
621,711.1527353960583
622,711.1468201685207
623,711.1397618911625
624,711.1314923406513
625,711.1219499353911
626,711.111080740402
627,711.0988394176517
628,711.0851900949586
629,711.0701071306308
630,711.0535757596966
631,711.035592617878
632,711.0161661465972
633,710.9953168824915
634,710.9730776277888
635,710.9494934868552
636,710.9246217439152
637,710.8985315510176
638,710.8713033961698
639,710.8430283301711
640,710.813806945083
641,710.7837481130742
642,710.7529675087354
643,710.7215859517028
644,710.6897276209653
645,710.6575182057131
646,710.6250830661884
647,710.5925454790994
648,710.5600250353092
649,710.5276362435764
650,710.4954873750088
651,710.4636795617565
652,710.4323061441748
653,710.4014522461921
654,710.371194549796
655,710.3416012359908
656,710.3127320607097
657,710.2846385390052
658,710.2573642176577
659,710.2309450232661
660,710.2054096774604
661,710.1807801708708
662,710.1570722846213
663,710.134296148153
664,710.1124568287269
665,710.0915549582097
666,710.0715874109732
667,710.0525480496368
668,710.0344285531202
669,710.0172193358135
670,710.0009105591973
671,709.9854932280693
672,709.9709603523771
673,709.957308144945
674,709.9445372200927
675,709.9326537597672
676,709.9216706173078
677,709.9116083283421
678,709.9024959933038
679,709.894371991928
680,709.8872844930038
681,709.8812917346378
682,709.8764620665004
683,709.8728737579078
684,709.8706145801791
685,709.8697811703129
686,709.8704781782282
687,709.8728171925222
688,709.8769154326473
689,709.8828941939802
690,709.8908770393144
691,709.9009877433368
692,709.9133480114996
693,709.9280750087686
694,709.9452787455464
695,709.9650593775124
696,709.9875044843479
697,710.0126863984837
698,710.0406596565789
699,710.0714586437537
700,710.1050954960217
701,710.1415583202797
702,710.1808097818407
703,710.2227860948566
704,710.2673964313576
705,710.314522745606
706,710.3640199990782
707,710.415716768294
708,710.4694162177556
709,710.5248974195207
710,710.5819169983695
711,710.6402110762814
712,710.6994974820312
713,710.759478183568
714,710.819841895686
715,710.8802668153094
716,710.9404234415634
717,710.9999774459845
718,711.0585925677184
719,711.115933518136
720,711.1716688876385
721,711.2254740519409
722,711.2770340723242
723,711.3260465731596
724,711.3722245661907
725,711.4152991842403
726,711.4550222910752
727,711.4911689434794
728,711.5235396870203
729,711.5519626640415
730,711.5762955041007
731,711.5964269594988
732,711.612278245176
733,711.6238040438035
734,711.6309931432944
735,711.6338686838028
736,711.632488002983
737,711.6269420814538
738,711.6173546025327
739,711.6038806456804
740,711.5867050305491
741,711.5660403250941
742,711.5421245334019
743,711.5152184857424
744,711.4856029617157
745,711.4535755878674
746,711.4194475636989
747,711.3835402783657
748,711.3461818783546
749,711.3077038366407
750,711.2684375643151
751,711.2287111010828
752,711.188845920857
753,711.1491538911653
754,711.1099344292745
755,711.071471902692
756,711.0340333230931
757,710.997866375173
758,710.9631978044662
759,710.9302321675235
760,710.899150932948
761,710.8701119176238
762,710.84324904791
763,710.818672444047
764,710.7964688288159
765,710.7767022534526
766,710.759415117915
767,710.7446294488672
768,710.7323483963631
769,710.7225579184784
770,710.7152286315692
771,710.7103178031688
772,710.7077714560805
773,710.7075265440174
774,710.7095131554424
775,710.7136567012192
776,710.7198800405716
777,710.7281054986306
778,710.7382567295804
779,710.7502603847364
780,710.7640475549287
781,710.7795549673103
782,710.7967259233645
783,710.8155109664042
784,710.835868265551
785,710.8577637021924
786,710.881170647405
787,710.9060694270137
788,710.9324464849855
789,710.9602932729476
790,710.9896049081074
791,711.0203786487317
792,711.0526122354453
793,711.0863021409914
794,711.1214417644297
795,711.1580196026254
796,711.1960174360783
797,711.2354085759316
798,711.2761562275795
799,711.3182120276216
800,711.3615148052062
801,711.4059896117001
802,711.4515470585844
803,711.4980830007584
804,711.5454785950249
805,711.5936007480094
806,711.6423029482622
807,711.6914264619564
808,711.7408018635758
809,711.7902508681644
810,711.8395884248938
811,711.8886250210838
812,711.9371691321724
813,711.985029739344
814,712.0320188279441
815,712.0779537815505
816,712.1226595993713
817,712.1659708842008
818,712.2077335689623
819,712.2478063684571
820,712.2860619585855
821,712.3223878991797
822,712.3566873290224
823,712.3888794694424
824,712.4188999712961
825,712.4467011288592
826,712.4722519694263
827,712.4955382171424
828,712.5165621263378
829,712.535342179422
830,712.5519126425364
831,712.5663229693973
832,712.57863704392
833,712.5889322553737
834,712.5972984024572
835,712.6038364251028
836,712.6086569696672
837,712.6118788048938
838,712.6136271163527
839,712.6140317115488
840,712.6132251681537
841,712.6113409559799
842,712.6085115590702
843,712.6048666184984
844,712.6005311121952
845,712.5956235879075
846,712.5902544689471
847,712.5845244560878
848,712.5785230495346
849,712.5723272134364
850,712.5660002056321
851,712.5595905983567
852,712.5531315187548
853,712.5466401381464
854,712.5401174359874
855,712.5335482603468
856,712.5269017017524
857,712.5201317887544
858,712.5131784990546
859,712.5059690611115
860,712.4984195035094
861,712.490436398501
862,712.4819187426248
863,712.4727599182306
864,712.462849682862
865,712.452076137963
866,712.4403276341656
867,712.4274945786797
868,712.4134711222287
869,712.3981567160918
870,712.381457538986
871,712.3632877960845
872,712.3435708899752
873,712.3222404593163
874,712.2992412785079
875,712.2745300122361
876,712.2480758213007
877,712.2198608183778
878,712.1898803721004
879,712.158143255112
880,712.1246716300356
881,712.089500870937
882,712.0526792265255
883,712.0142673388671
884,711.9743376324969
885,711.9329735852394
886,711.8902688895811
887,711.846326514683
888,711.8012576814323
889,711.7551807633891
890,711.7082201259993
891,711.6605049167363
892,711.6121678179546
893,711.5633437699963
894,711.5141686684173
895,711.464778042787
896,711.4153057355898
897,711.3658826106451
898,711.3166353240157
899,711.2676851873643
900,711.2191471501086
901,711.171128925594
902,711.1237302852948
903,711.0770425393576
904,711.0311482105349
905,710.9861208955092
906,710.9420252978321
907,710.8989174120867
908,710.8568448376822
909,710.8158471992166
910,710.7759566464593
911,710.7371984026767
912,710.6995913289657
913,710.6631484760334
914,710.6278776036248
915,710.5937816615213
916,710.5608592427586
917,710.5291050347977
