frame_number,force
0,782.2665400041313
1,782.215447022729
2,782.1644435116688
3,782.1136184728828
4,782.0630599800874
5,782.0128547351603
6,781.9630876468322
7,781.9138414360507
8,781.8651962703374
9,781.8172294274004
10,781.770014986515
11,781.7236235448967
12,781.67812195566
13,781.6335730842303
14,781.5900355813448
15,781.547563672492
16,781.5062069647828
17,781.4660102722129
18,781.4270134595799
19,781.3892513048708
20,781.3527533801021
21,781.3175439511233
22,781.2836418974844
23,781.2510606540097
24,781.2198081761888
25,781.1898869319307
26,781.161293922489
27,781.1340207351532
28,781.1080536297951
29,781.0833736612155
30,781.0599568396447
31,781.0377743322412
32,781.0167927086966
33,780.9969742341452
34,780.9782772123002
35,780.9606563804543
36,780.9440633555205
37,780.9284471273446
38,780.9137545931823
39,780.8999311261886
40,780.8869211708541
41,780.8746688586948
42,780.8631186373553
43,780.8522159054297
44,780.8419076442884
45,780.8321430377132
46,780.8228740703003
47,780.8140560959198
48,780.805648367639
49,780.7976145206703
50,780.7899230007346
51,780.7825474322008
52,780.7754669231505
53,780.7686663071023
54,780.7621363224561
55,780.7558737305022
56,780.7498813717378
57,780.7441681592752
58,780.7387490079022
59,780.7336446978883
60,780.7288816738358
61,780.7244917805622
62,780.7205119396768
63,780.7169837716875
64,780.713953169207
65,780.7114698275111
66,780.7095867394555
67,780.7083596622671
68,780.7078465635108
69,780.7081070523762
70,780.7092018006309
71,780.7111919561581
72,780.7141385519175
73,780.718101914456
74,780.7231410779435
75,780.7293132111907
76,780.7366730655789
77,780.7452724509892
78,780.7551597452888
79,780.7663794417595
80,780.7789717382334
81,780.7929721707401
82,780.8084112926076
83,780.8253143977511
84,780.8437012852705
85,780.8635860620021
86,780.8849769801485
87,780.9078763080894
88,780.9322802332944
89,780.9581787963814
90,780.9855558548165
91,781.0143890741582
92,781.0446499445665
93,781.0763038202912
94,781.109309979786
95,781.1436217045015
96,781.1791863760781
97,781.2159455941751
98,781.2538353188473
99,781.2927860409213
100,781.3327229817938
101,781.3735663221132
102,781.4152314579358
103,781.4576292831794
104,781.5006664980807
105,781.5442459442507
106,781.5882669670357
107,781.6326258050717
108,781.6772160059942
109,781.7219288669412
110,781.7666538984587
111,781.8112793100954
112,781.8556925156008
113,781.8997806556656
114,781.9434311363589
115,781.9865321811545
116,782.0289733933774
117,782.0706463244264
118,782.1114450420275
119,782.1512666926191
120,782.1900120525738
121,782.2275860635151
122,782.2638983470046
123,782.2988636937506
124,782.3324025228235
125,782.364441307194
126,782.3949129628962
127,782.4237571999475
128,782.4509208335684
129,782.4763580539382
130,782.500030651993
131,782.5219081985686
132,782.5419681751183
133,782.5601960558387
134,782.5765853425695
135,782.5911375551301
136,782.6038621808136
137,782.6147765872868
138,782.6239059027
139,782.6312828654048
140,782.6369476438941
141,782.6409476262746
142,782.6433371783451
143,782.6441773703907
144,782.6435356746603
145,782.6414856371277
146,782.6381065275077
147,782.6334829703947
148,782.627704558707
149,782.620865449285
150,782.6130639398737
151,782.6044020265789
152,782.5949849410345
153,782.5849206668507
154,782.5743194352928
155,782.5632932005777
156,782.5519550958915
157,782.5404188721843
158,782.5287983227797
159,782.5172066976025
160,782.5057561113026
161,782.4945569497271
162,782.48371727923
163,782.473342263282
164,782.4635335906704
165,782.4543889191153
166,782.4460013374623
167,782.4384588489519
168,782.4318438776265
169,782.4262327997081
170,782.4216955016016
171,782.4182949659872
172,782.416086887301
173,782.4151193176963
174,782.4154323442165
175,782.4170577974443
176,782.4200189917927
177,782.4243304984351
178,782.4299979538505
179,782.437017909747
180,782.4453777328747
181,782.4550555648798
182,782.4660203523396
183,782.4782319557336
184,782.4916413438826
185,782.5061908775201
186,782.5218146821529
187,782.5384391065663
188,782.5559832598387
189,782.5743596173148
190,782.5934746852108
191,782.6132297142752
192,782.6335214540155
193,782.6542429392385
194,782.675284300065
195,782.6965335860173
196,782.717877594666
197,782.7392026954611
198,782.760395639768
199,782.7813443490923
200,782.8019386750938
201,782.8220711267479
202,782.8416375613773
203,782.8605378370793
204,782.8786764243797
205,782.8959629747529
206,782.9123128431527
207,782.9276475614239
208,782.9418952598012
209,782.9549910343638
210,782.9668772586335
211,782.9775038372143
212,782.986828398898
213,782.9948164265011
214,783.0014413209391
215,783.0066843975084
216,783.0105348130056
217,783.0129894231966
218,783.0140525713315
219,783.0137358100174
220,783.01205756071
221,783.009042717002
222,783.004722199437
223,782.9991324706581
224,782.9923150204291
225,782.9843158306728
226,782.9751848310284
227,782.964975354951
228,782.9537436046606
229,782.9415481307483
230,782.928449329896
231,782.9145089626097
232,782.8997896920271
233,782.8843546441997
234,782.8682669893876
235,782.8515895432412
236,782.8343843870219
237,782.8167125073409
238,782.7986334574285
239,782.7802050425714
240,782.7614830317184
241,782.7425208961891
242,782.7233695757975
243,782.7040772721977
244,782.6846892679657
245,782.665247767918
246,782.64579175754
247,782.6263568729673
248,782.6069752777065
249,782.5876755427912
250,782.5684825287773
251,782.5494172695012
252,782.5304968589897
253,782.5117343443226
254,782.4931386281578
255,782.4747143849198
256,782.456461994959
257,782.4383775015175
258,782.4204525951976
259,782.4026746291767
260,782.385026666154
261,782.367487556148
262,782.3500320435224
263,782.3326309017345
264,782.3152510943123
265,782.2978559599328
266,782.2804054186113
267,782.2628561956703
268,782.2451620606623
269,782.2272740797061
270,782.20914088131
271,782.1907089368584
272,782.171922856991
273,782.1527257045384
274,782.1330593243677
275,782.1128646906291
276,782.0920822721469
277,782.070652416929
278,782.0485157572549
279,782.0256136376995
280,782.0018885693011
281,781.9772847130253
282,781.9517483941206
283,781.9252286460666
284,781.8976777794661
285,781.8690519686611
286,781.8393118478697
287,781.8084231089432
288,781.7763570932552
289,781.7430913699859
290,781.708610292482
291,781.6729055240942
292,781.6359765251023
293,781.5978309928324
294,781.5584852475953
295,781.5179645575596
296,781.4763033963757
297,781.4335456286747
298,781.3897446202625
299,781.3449632711827
300,781.2992739704126
301,781.2527584710922
302,781.2055076853803
303,781.1576213985289
304,781.1092079025515
305,781.0603835509654
306,781.0112722375603
307,780.9620048037873
308,780.9127183808075
309,780.8635556731695
310,780.8146641915389
311,780.7661954420904
312,780.7183040802341
313,780.6711470363042
314,780.6248826208464
315,780.5796696174801
316,780.5356663719638
317,780.4930298865736
318,780.4519149288102
319,780.4124731627638
320,780.3748523104418
321,780.3391953491806
322,780.3056397501771
323,780.2743167624932
324,780.2453507467701
325,780.218858563009
326,780.1949490165058
327,780.1737223649619
328,780.1552698881916
329,780.1396735202596
330,780.1270055425864
331,780.117328335556
332,780.1106941856252
333,780.1071451448787
334,780.1067129399911
335,780.1094189271728
336,780.1152740890747
337,780.124279069675
338,780.1364242443286
339,780.151689823894
340,780.1700459933882
341,780.1914530866848
342,780.2158617995112
343,780.2432134433838
344,780.2734402428732
345,780.3064656776467
346,780.3422048693392
347,780.3805650118522
348,780.4214458423526
349,780.464740149138
350,780.5103343116758
351,780.5581088674046
352,780.6079390991596
353,780.6596956364026
354,780.7132450631981
355,780.7684505263225
356,780.8251723380765
357,780.8832685702324
358,780.9425956378465
359,781.0030088737077
360,781.0643630951486
361,781.126513164469
362,781.1893145426579
363,781.2526238341127
364,781.3162993183353
365,781.3802014637524
366,781.4441934191138
367,781.5081414789062
368,781.5719155199594
369,781.6353894063019
370,781.6984413583526
371,781.7609542810575
372,781.8228160440426
373,781.883919706016
374,781.9441636764969
375,782.0034518109875
376,782.0616934402399
377,782.118803338964
378,782.1747016428791
379,782.2293137247153
380,782.2825700394764
381,782.3344059475788
382,782.3847615224422
383,782.4335813475057
384,782.4808143066198
385,782.5264133710895
386,782.5703353862156
387,782.6125408601011
388,782.6529937578658
389,782.6916613051038
390,782.7285138049365
391,782.7635244728784
392,782.796669292902
393,782.8279268968516
394,782.8572784679734
395,782.8847076678541
396,782.9102005844821
397,782.9337456976825
398,782.9553338572421
399,782.9749582687506
400,782.9926144820736
401,783.0083003771373
402,783.0220161419346
403,783.0337642391514
404,783.0435493605613
405,783.0513783713324
406,783.0572602484417
407,783.0612060179311
408,783.0632286951851
409,783.063343231703
410,783.0615664714298
411,783.0579171191366
412,783.052415722056
413,783.0450846643023
414,783.0359481724515
415,783.025032330397
416,783.0123651015623
417,782.9979763560746
418,782.9818978997532
419,782.9641635015075
420,782.9448089163287
421,782.9238719022064
422,782.9013922303297
423,782.8774116882158
424,782.8519740747756
425,782.8251251854131
426,782.7969127849735
427,782.767386566988
428,782.7365980986241
429,782.704600751319
430,782.671449617121
431,782.637201410747
432,782.6019143576165
433,782.5656480685608
434,782.5284634023352
435,782.4904223173129
436,782.4515877137464
437,782.4120232677125
438,782.3717932575581
439,782.3309623837837
440,782.2895955841467
441,782.2477578472183
442,782.2055140290219
443,782.1629286778605
444,782.1200658716975
445,782.0769890710685
446,782.0337609894933
447,781.9904434832398
448,781.9470974624819
449,781.903782825419
450,781.8605584153687
451,781.8174819986598
452,781.7746102591781
453,781.7319988042956
454,781.6897021766575
455,781.6477738663574
456,781.6062663179996
457,781.5652309272683
458,781.5247180222729
459,781.484776825987
460,781.4454553971561
461,781.4068005479788
462,781.3688577379596
463,781.3316709448479
464,781.295282515335
465,781.2597329994949
466,781.2250609731873
467,781.1913028517788
468,781.1584926972032
469,781.1266620191199
470,781.09583957004
471,781.0660511340712
472,781.0373193095775
473,781.0096632871148
474,780.9830986247756
475,780.9576370235993
476,780.9332861067959
477,780.9100492083961
478,780.8879251787527
479,780.8669082150665
480,780.8469877245385
481,780.8281482264152
482,780.8103692980425
483,780.7936255695216
484,780.777886771191
485,780.7631178370078
486,780.7492790647468
487,780.7363263315899
488,780.7242113620639
489,780.7128820444298
490,780.7022827910429
491,780.6923549377937
492,780.6830371777836
493,780.6742660246055
494,780.6659763002336
495,780.658101641347
496,780.6505750166236
497,780.643329247094
498,780.6362975222828
499,780.6294139059914
500,780.6226138265229
501,780.6158345468426
502,780.6090156108916
503,780.6020992629952
504,780.5950308378235
505,780.5877591185512
506,780.5802366608757
507,780.572420080532
508,780.5642703019255
509,780.5557527654445
510,780.5468375908982
511,780.5374996945518
512,780.5277188576978
513,780.5174797457184
514,780.5067718777601
515,780.495589547991
516,780.4839317000948
517,780.4718017576616
518,780.4592074144883
519,780.4461603899294
520,780.4326761547433
521,780.418773632186
522,780.4044748778672
523,780.3898047410004
524,780.3747905098944
525,780.3594615456711
526,780.3438489092642
527,780.3279849869149
528,780.311903118782
529,780.2956372345947
530,780.2792214997703
531,780.2626899752137
532,780.2460762943848
533,780.2294133622246
534,780.2127330815905
535,780.1960661131823
536,780.1794416743994
537,780.1628873817543
538,780.146429140884
539,780.1300910875988
540,780.1138955821183
541,780.0978632564718
542,780.0820131124805
543,780.0663626652763
544,780.0509281250282
545,780.0357246077118
546,780.020766364916
547,780.0060670230297
548,779.9916398232579
549,779.9774978552033
550,779.9636542778733
551,779.9501225229081
552,779.9369164759293
553,779.9240506335462
554,779.9115402354855
555,779.8994013728013
556,779.8876510738423
557,779.8763073697841
558,779.865389341305
559,779.8549171471573
560,779.8449120338402
561,779.8353963240181
562,779.8263933808081
563,779.8179275458771
564,779.8100240506902
565,779.8027089015343
566,779.7960087398818
567,779.7899506801988
568,779.7845621271962
569,779.779870573562
570,779.7759033776035
571,779.7726875187674
572,779.7702493285728
573,779.7686141952856
574,779.7678062420739
575,779.7678479799471
576,779.7687599384454
577,779.7705602789379
578,779.773264397155
579,779.7768845226605
580,779.7814293233183
581,779.7869035232285
582,779.7933075434607
583,779.8006371755567
584,779.8088832973816
585,779.8180316396355
586,779.8280626098453
587,779.8389511792043
588,779.8506668359867
589,779.8631736074697
590,779.8764301507878
591,779.8903899122681
592,779.9050013544573
593,779.9202082500155
594,779.935950041642
595,779.9521622668103
596,779.9687770450547
597,779.9857236239865
598,780.002928978534
599,780.0203184563885
600,780.0378164614107
601,780.0553471657443
602,780.0728352403622
603,780.0902065925493
604,780.1073890976354
605,780.1243133117557
606,780.1409131529464
607,780.1571265393496
608,780.1728959748206
609,780.1881690729002
610,780.2028990100868
611,780.2170448997579
612,780.230572079748
613,780.2434523091048
614,780.2556638721283
615,780.2671915901918
616,780.2780267443136
617,780.288166914075
618,780.2976157409183
619,780.3063826255544
620,780.3144823700279
621,780.3219347754164
622,780.3287642068084
623,780.3349991380765
624,780.3406716891353
625,780.3458171670464
626,780.3504736197027
627,780.3546814076485
628,780.3584827964247
629,780.3619215690916
630,780.3650426566742
631,780.3678917833661
632,780.370515123352
633,780.3729589668962
634,780.3752693944349
635,780.3774919582355
636,780.3796713715969
637,780.3818512061023
638,780.3840735986995
639,780.3863789720161
640,780.3888057723215
641,780.3913902294611
642,780.3941661423684
643,780.3971646930623
644,780.4004142914973
645,780.4039404528726
646,780.407765708026
647,780.4119095469936
648,780.4163883962328
649,780.4212156309651
650,780.4264016246411
651,780.4319538371677
652,780.4378769421963
653,780.4441729918095
654,780.4508416151756
655,780.4578802469428
656,780.4652843810992
657,780.4730478460197
658,780.4811630964904
659,780.4896215193335
660,780.4984137506302
661,780.5075300033842
662,780.5169604040855
663,780.5266953353997
664,780.5367257807303
665,780.5470436649687
666,780.5576421846482
667,780.5685161204635
668,780.5796621259498
669,780.5910789874881
670,780.6027678517688
671,780.6147324169074
672,780.6269790827744
673,780.6395170552211
674,780.652358398107
675,780.6655180265103
676,780.6790136345751
677,780.6928655526893
678,780.7070965312142
679,780.7217314512965
680,780.736796966979
681,780.7523210867755
682,780.7683327067423
683,780.7848611099548
684,780.801935448294
685,780.8195842214909
686,780.8378347662882
687,780.8567127663498
688,780.8762417915428
689,780.8964428730864
690,780.9173341184922
691,780.9389303675982
692,780.9612428890282
693,780.9842791154612
694,781.008042415892
695,781.03253190327
696,781.0577422763658
697,781.0836636954292
698,781.1102816920085
699,781.1375771136751
700,781.1655261038413
701,781.1941001154944
702,781.22326595621
703,781.2529858609563
704,781.2832175892274
705,781.3139145438458
706,781.3450259101572
707,781.3764968161823
708,781.4082685165504
709,781.4402786052262
710,781.4724612631859
711,781.5047475465296
712,781.5370657182804
713,781.5693416243017
714,781.6014991112697
715,781.6334604828542
716,781.6651469893701
717,781.6964793461183
718,781.7273782760749
719,781.7577650727961
720,781.7875621789607
721,781.8166937751373
722,781.8450863726471
723,781.8726694039966
724,781.8993758042352
725,781.9251425767003
726,781.9499113370827
727,781.9736288303993
728,781.9962474158639
729,782.0177255146144
730,782.0380280151954
731,782.0571266318556
732,782.0750002110746
733,782.0916349823253
734,782.1070247499331
735,782.1211710237075
736,782.134083086502
737,782.1457779970611
738,782.1562805266663
739,782.1656230284306
740,782.173845238733
741,782.1809940112048
742,782.1871229847949
743,782.1922921885143
744,782.1965675862454
745,782.2000205655015
746,782.2027273747071
747,782.2047685148326
748,782.2062280928141
749,782.2071931452799
750,782.2077529412591
751,782.2079982723274
752,782.208020739016
753,782.2079120433846
754,782.2077632985071
755,782.2076643652468
756,782.2077032250802
757,782.2079653955565
758,782.2085333926564
759,782.2094862418039
760,782.2108990369368
761,782.2128425457374
762,782.2153828593822
763,782.2185810864054
764,782.2224930913238
765,782.2271692787799
766,782.2326544231668
767,782.2389875423208
768,782.2462018121447
769,782.2543245171896
770,782.2633770306915
771,782.2733748167583
772,782.2843274474814
773,782.296238628551
774,782.3091062284168
775,782.3229223081136
776,782.3376731514304
777,782.3533392975806
778,782.3698955802664
779,782.3873111775393
780,782.4055496762721
781,782.4245691542686
782,782.4443222830774
783,782.4647564555576
784,782.4858139431918
785,782.5074320879193
786,782.529543531726
787,782.5520764854621
788,782.5749550374751
789,782.5980995028204
790,782.6214268143035
791,782.6448509568079
792,782.668283446012
793,782.6916338515173
794,782.7148103624662
795,782.7377203913026
796,782.7602712093105
797,782.7823706067744
798,782.8039275711556
799,782.8248529778351
800,782.8450602884939
801,782.8644662512747
802,782.8829915946586
803,782.9005617044799
804,782.9171072717724
805,782.9325648984903
806,782.9468776481374
807,782.9599955286986
808,782.9718758964211
809,782.9824837712274
810,782.9917920572991
811,782.9997816645913
812,783.0064415286429
813,783.0117685280239
814,783.0157673017198
815,783.018449972051
816,783.0198357813227
817,783.0199506519887
818,783.0188266810421
819,783.0165015798202
820,783.0130180704074
821,783.0084232494543
822,783.0027679296885
823,782.9961059686239
824,782.9884935926385
825,782.9799887228088
826,782.9706503073332
827,782.9605376646969
828,782.9497098418657
829,782.9382249924347
830,782.9261397805723
831,782.9135088177203
832,782.9003841399737
833,782.8868147342301
834,782.8728461203505
835,782.8585199953992
836,782.8438739453222
837,782.8289412289556
838,782.8137506382162
839,782.7983264362956
840,782.7826883732146
841,782.7668517759776
842,782.7508277091126
843,782.734623200356
844,782.7182415253576
845,782.7016825445241
846,782.6849430845808
847,782.6680173571996
848,782.6508974071193
849,782.6335735824078
850,782.6160350194573
851,782.5982701345242
852,782.5802671123221
853,782.562014381167
854,782.5435010641407
855,782.5247173965802
856,782.505655101486
857,782.4863077159707
858,782.4666708637741
859,782.4467424712032
860,782.42652292631
861,782.4060151830995
862,782.3852248136409
863,782.3641600113227
864,782.3428315487964
865,782.3212526947847
866,782.2994390946644
867,782.2774086202378
868,782.255181194394
869,782.2327785966553
870,782.2102242559234
871,782.1875430366437
872,782.1647610235742
873,782.1419053085394
874,782.1190037807265
875,782.0960849209458
876,782.0731776000439
877,782.0503108822004
878,782.0275138346069
879,782.0048153453754
880,781.9822439514099
881,781.9598276779445
882,781.9375938918054
883,781.9155691707678
884,781.893779191066
885,781.8722486342033
886,781.851001113279
887,781.8300591186944
888,781.8094439833585
889,781.7891758676645
890,781.7692737637706
891,781.749755517243
892,781.7306378627407
893,781.7119364694466
894,781.6936659909516
895,781.6758401129757
896,781.6584715911544
897,781.6415722707858
898,781.6251530813039
899,781.6092240000636
900,781.5937939822877
901,781.578870856147
902,781.5644611838355
903,781.5505700915323
904,781.5372010733267
905,781.5243557757524
906,781.5120337698443
907,781.500232316818
908,781.488946132307
909,781.4781671530842
910,781.4678843097682
911,781.4580833094011
912,781.4487464325898
913,781.4398523502105
914,781.4313759640709
915,781.4232882750105
916,781.4155562816235
917,781.4081429134112
