acceleration,velocity,displacement
0.007881759593949312,0.0,0.0
0.008009556372174756,3.972828991531017e-06,9.932072478827542e-10
0.00813736650951477,8.009559711953398e-06,3.988804423753858e-09
0.008265202161872971,1.2110201879800333e-05,9.01874482169229e-09
0.00839307302290936,1.6274770675995914e-05,1.6114987960641352e-08
0.008520984953788082,2.0503285170170274e-05,2.5309501922182898e-08
0.008648938457996023,2.47957660231163e-05,3.663426472050454e-08
0.008776926984634852,2.915223238377402e-05,5.012126432222712e-08
0.008904935076883428,3.357269789915359e-05,6.580249689295903e-08
0.009032936410561807,3.80571657710149e-05,8.370996281050115e-08
0.009160891786293538,4.2605622820228736e-05,1.0387565995831206e-07
0.009288747146539149,4.721803255343691e-05,1.2633157380172847e-07
0.009416431685848794,5.1894327261533894e-05,1.5110966375547118e-07
0.009543856112693778,5.6634399211169534e-05,1.7824184537364705e-07
0.009670911110530783,6.143809101697567e-05,2.0775996793068334e-07
0.009797466036650508,6.6305185303771e-05,2.3969578701087e-07
0.009923367887037012,7.123539378469287e-05,2.7408093178298595e-07
0.010048440542520352,7.622834589208222e-05,3.109468667021797e-07
0.01017248430106903,8.128357710297957e-05,3.5032484745094513e-07
0.010295275696604244,8.640051710239789e-05,3.922458710022895e-07
0.010416567599507202,9.157847792642575e-05,4.3674061975949543e-07
0.01053608957876424,9.681664222099362e-05,4.838393997963503e-07
0.010653548484318126,0.00010211405173676421,5.335720732857897e-07
0.010768629195969425,0.00010746959615683609,5.859679852591899e-07
0.01088099549239251,0.00011288200232892658,6.410558848806306e-07
0.010990291015502607,0.00011834982395590036,6.988638414518372e-07
0.011096140327797996,0.0001238714317917255,7.594191553887437e-07
0.011198150074776642,0.00012944500439236918,8.227482644347673e-07
0.01129591027155623,0.00013506851947895238,8.888766454025977e-07
0.011388995735040285,0.0001407397459806015,9.578287117674862e-07
0.011476967679279231,0.00014645623683418138,1.0296277074711819e-06
0.01155937548234195,0.0001522153226245867,1.104295597335874e-06
0.011635758621710316,0.00015801410615059975,1.1818529545296705e-06
0.011705648764920777,0.00016384945799725753,1.2623188455666348e-06
0.011768571993853382,0.00016971801318695106,1.345710713362687e-06
0.01182405113826749,0.00017561616896998128,1.43204425890192e-06
0.01187160819807297,0.0001815400838040664,1.521333322095432e-06
0.011910766837898492,0.00018748567756305925,1.6135897624372134e-06
0.0119410549355824,0.00019344863300642948,1.7088233400795855e-06
0.011962007163880834,0.00019942439853129528,1.8070415979640167e-06
0.011973167593131644,0.0002054081922205484,1.9082497456519775e-06
0.011974092322131763,0.00021139500719936425,2.012450545506956e-06
0.01196435216296287,0.0002173796183206379,2.1196442018869563e-06
0.011943535413310054,0.00022335659021470612,2.229828254020792e-06
0.011911250745814523,0.00022932028675448727,2.3429974732630904e-06
0.011867130229365738,0.00023526488199828233,2.4591437654512828e-06
0.011810832472365543,0.00024118437267371516,2.578256079119282e-06
0.01174204584464,0.00024707259225296654,2.7003203203509527e-06
0.011660491697843842,0.0002529232266385875,2.8253192750738414e-06
0.011565927471038169,0.000258729831430808,2.9532325395911904e-06
0.011458149548026713,0.00026448585068557424,3.084036460120286e-06
0.011336995737379953,0.0002701846370069259,3.217704082043411e-06
0.011202347279092893,0.00027581947276104414,3.354205109485404e-06
0.011054130329182447,0.000281383592163113,3.4935058757164432e-06
0.010892316912176755,0.0002868702039734528,3.6355693247505848e-06
0.010716925352557008,0.00029227251453963626,3.780355004378857e-06
0.010528020209454772,0.0002975837509301392,3.927819070746301e-06
0.010325711756781222,0.00030279718392169823,4.07791430445926e-06
0.010110155076349728,0.00030790615062998097,4.23059013809718e-06
0.009881548857389115,0.00031290407661341567,4.38579269490803e-06
0.00964013400966676,0.00031778449733017963,4.543464838393929e-06
0.009386192189757598,0.0003225410788800357,4.703546232446483e-06
0.009120044310280713,0.0003271676380050453,4.865973411667753e-06
0.008842049060353884,0.00033165816134770394,5.030679861505941e-06
0.008552601428260267,0.0003360068239698575,5.197596107835332e-06
0.00825213119564316,0.00034020800712583334,5.366649815609254e-06
0.00794110136647352,0.00034425631526636253,5.537765896207303e-06
0.00762000649691965,0.00034814659223221083,5.710866623081947e-06
0.007289370899738853,0.00035187393658137544,5.885871755285343e-06
0.006949746706365758,0.0003554337159829016,6.062698668426413e-06
0.006601711778916313,0.00035882158060422214,6.241262492573194e-06
0.006245867475082114,0.00036203347541772173,6.42147625657868e-06
0.005882836288935321,0.0003650656513587261,6.603251038272792e-06
0.005513259418882665,0.0003679146752856806,6.786496119933893e-06
0.005137794334959681,0.0003705774387241412,6.971119148436349e-06
0.00475711241856326,0.0003730511654125219,7.157026299470514e-06
0.004371896734378883,0.00037533341770075744,7.344122445248834e-06
0.003982839980831961,0.00037742210187956016,7.532311325143914e-06
0.0035906426554622615,0.00037931547253863373,7.721495718748462e-06
0.0031960114574149357,0.000381012136066853,7.911577620899834e-06
0.0027996579255776593,0.00038251105341260115,8.102458418269697e-06
0.002402297283106994,0.00038381154221477234,8.29403906717654e-06
0.002004647438755718,0.00038491327839523803,8.486220272329043e-06
0.0016074280883655269,0.00038581629727701836,8.678902666247107e-06
0.001211359860505961,0.0003865209942642362,8.87198698913242e-06
0.0008171634501537188,0.0003870281250919011,9.065374268971455e-06
0.0004255586840095362,0.00038733880562544194,9.25896600165079e-06
3.7263467469472615e-05,0.0003874545111633117,9.45266433084798e-06
-0.0003470074220310576,0.0003873770751746713,9.646372227432475e-06
-0.0007265437137070751,0.0003871086873907368,9.839993668073827e-06
-0.0011006411991466062,0.00038665189116252334,1.0033433812712141e-05
-0.0014686034588662984,0.00038600957999802014,1.0226599180502277e-05
-0.0018297437394265293,0.00038518499319844694,1.0419397823801394e-05
-0.0021833869425992632,0.0003841817105279405,1.0611739499732992e-05
-0.002528871673463896,0.00038300364587392474,1.0803535838833458e-05
-0.0028655522934426564,0.0003816550398821981,1.0994700510272488e-05
-0.003192800938648317,0.00038014045157417535,1.1185149383136581e-05
-0.0035100094850477434,0.00037846474896825136,1.1374800683272188e-05
-0.003816591459401036,0.0003766330987321392,1.1563575145197285e-05
-0.004111983903752424,0.0003746509548913508,1.1751396158603158e-05
-0.004395649203799918,0.0003725240466144627,1.1938189908979611e-05
-0.004667076893307202,0.00037025836509018594,1.2123885511905773e-05
-0.0049257854523222224,0.00036786014950377857,1.2308415140554264e-05
-0.0051713241251925375,0.0003653358721093999,1.2491714145957559e-05
-0.00540327479023336,0.0003626922223805434,1.2673721169580044e-05
-0.005621253914560891,0.00035993609020434485,1.2854378247726266e-05
-0.005824914626627512,0.00035707454806904775,1.3033630907294614e-05
-0.006013948933550171,0.0003541148321790033,1.3211428252356626e-05
-0.006188090095554379,0.0003510643224217272,1.3387723041006808e-05
-0.006347115145306111,0.00034793052111151205,1.3562471751890119e-05
-0.006490847513663403,0.00034472103044676965,1.373563463977969e-05
-0.00661915970490703,0.00034144352864212707,1.3907175779551914e-05
-0.006731975956398006,0.0003381057447268008,1.4077063097894145e-05
-0.00682927481411807,0.00033471543203417175,1.4245268392084389e-05
-0.006911091552219875,0.00033128034044258725,1.4411767335203578e-05
-0.006977520363318634,0.0003278081874637026,1.457653946718015e-05
-0.007028716250995788,0.000324306628310124,1.4739568171123606e-05
-0.007064896567665644,0.00032078322510545863,1.49008406344775e-05
-0.007086342156362066,0.0003172454154244517,1.5060347794609979e-05
-0.007093398067885072,0.0003137004803683899,1.521808426855819e-05
-0.007086473830529432,0.00031015551239378626,1.5374048266748734e-05
-0.007066043249856673,0.00030661738312368975,1.5528241490628104e-05
-0.00703264371549982,0.00030309271138235063,1.5680669014254615e-05
-0.0069868749952747755,0.000299587831704657,1.5831339150026366e-05
-0.006929397506645345,0.00029610876357917694,1.5980263298847324e-05
-0.0068609300726037116,0.0002926611816843647,1.612745578516321e-05
-0.0067822471894188885,0.00028925038736885906,1.6272933677426514e-05
-0.006694175848296399,0.00028588128160943026,1.6416716594671087e-05
-0.006597591954938101,0.0002825583396586216,1.65588264999881e-05
-0.006493416383179573,0.0002792855875740922,1.669928748179628e-05
-0.006382610692250938,0.0002760665808052346,1.683812552389111e-05
-0.006266172539712871,0.00027290438499724364,1.697536826534173e-05
-0.00614513083241929,0.0002698015591542106,1.7111044751379593e-05
-0.00602054067002329,0.00026676014127859993,1.7245185176487796e-05
-0.005893478142338208,0.0002637816365755096,1.7377820620951325e-05
-0.00576503503651999,0.000260867008280795,1.75089827821654e-05
-0.00563631349206712,0.00025801667114864823,1.7638703702022763e-05
-0.00550842061970572,0.000255230487620705,1.77670154917151e-05
-0.005382463082487091,0.0002525077666951568,1.7893950055294065e-05
-0.0052595416235116715,0.0002498472655186571,1.8019538813347517e-05
-0.005140745511968024,0.0002472471937347872,1.8143812428160877e-05
-0.005027146869790808,0.00024470522063934746,1.8266800531754412e-05
-0.0049197948375943835,0.00024221848521250116,1.8388531458217374e-05
-0.004819709540140824,0.00023978360911806735,1.8509031981800016e-05
-0.0047278758195329704,0.0002373967127781489,1.862832706227407e-05
-0.004645236721824339,0.00023505343464280958,1.8746439599129308e-05
-0.004572686748830501,0.00023274895377514587,1.8863390196233796e-05
-0.004511064917533582,0.00023047801585855486,1.8979196938642222e-05
-0.00446114770037059,0.00022823496270407882,1.909387518328288e-05
-0.0044236419452819255,0.0002260137652926657,1.9207437365282067e-05
-0.004399177885336582,0.00022380806033501106,1.9319892821688985e-05
-0.004388302340648668,0.00022161119027851474,1.9431247634342368e-05
-0.004391472200380055,0.00021941624664325755,1.954150449357281e-05
-0.0044090482658382625,0.00021721611652670298,1.96506625843653e-05
-0.004441289545045743,0.00021500353207398198,1.975871749651547e-05
-0.0044883481101703135,0.00021277112266017797,1.986566116019901e-05
-0.004550264649142914,0.00021051146947034967,1.9971481808231643e-05
-0.004626964848532727,0.00020821716209593077,2.0076163966123213e-05
-0.004718256730794622,0.00020588085670109892,2.017968847082247e-05
-0.0048238290410409146,0.00020349533525814003,2.0282032518812282e-05
-0.004943250748662597,0.00020105356531071415,2.0383169743954496e-05
-0.005075971706535208,0.0001985487596969147,2.0483070325206403e-05
-0.005221324493017629,0.00019597443564702647,2.0581701124042387e-05
-0.005378527442738055,0.00019332447266308755,2.0679025851119917e-05
-0.00554668885180278,0.00019059316858945234,2.077500526143305e-05
-0.005724812327278313,0.00018777529329468208,2.0869597376904084e-05
-0.0059118032392952765,0.00018486613940303867,2.0962757735078513e-05
-0.006106476221936565,0.0001818615695377307,2.1054439662313706e-05
-0.006307563656489746,0.00017875805956812414,2.114459456959017e-05
-0.006513725061373019,0.00017555273738865845,2.1233172268829364e-05
-0.006723557306430099,0.00017224341679670767,2.1320121307375707e-05
-0.006935605559511429,0.0001688286260802223,2.140538931809494e-05
-0.007148374858644311,0.00016530763097568336,2.1488923382358915e-05
-0.007360342190186194,0.00016168045171347574,2.1570670403031207e-05
-0.007569968947507167,0.0001579478739290524,2.165057748444184e-05
-0.007775713641877433,0.00015411145328170627,2.1728592316244527e-05
-0.00797604473125088,0.00015017351368842418,2.180466355798706e-05
-0.008169453425646334,0.00014613713914919988,2.1878741221196467e-05
-0.008354466323899886,0.00014200615921181332,2.1950777045786722e-05
-0.008529657734837505,0.000137785128197129,2.2020724867638958e-05
-0.008693661537345984,0.00013347929837908312,2.208854097428301e-05
-0.008845182441508037,0.0001290945873843696,2.2154184445723873e-05
-0.008983006525329974,0.0001246375401426601,2.221761747760563e-05
-0.009106010934733061,0.00012011528577764434,2.2278805684085707e-05
-0.009213172650288919,0.00011553548988138884,2.2337718378000464e-05
-0.009303576243746399,0.00011090630265788001,2.2394328826135282e-05
-0.00937642056505281,0.00010623630345568021,2.2448614477663674e-05
-0.009431024310671268,0.0001015344422367492,2.250055716408678e-05
-0.009466830430179742,9.680997855153645e-05,2.2550143269283853e-05
-0.00948340934046612,9.207241860887498e-05,2.2597363868573954e-05
-0.00948046093924874,8.733145103894626e-05,2.264221483598591e-05
-0.009457815434198661,8.25968819455844e-05,2.2684696919232042e-05
-0.00941543302080707,7.787856983183297e-05,2.2724815782176398e-05
-0.009353402453526123,7.318636096324967e-05,2.2762582014875168e-05
-0.009271938570177116,6.853002570732387e-05,2.2798011111542812e-05
-0.009171378853338484,6.391919635144496e-05,2.2831123417057504e-05
-0.009052179137993976,5.936330685361184e-05,2.286194404285877e-05
-0.008914908588758283,5.4871534921923776e-05,2.2890502753302652e-05
-0.00876024406272367,5.0452746759053287e-05,2.2916833823722896e-05
-0.008588963949249306,4.611544475606004e-05,2.2940975871601674e-05
-0.008401941550169142,4.1867718381205424e-05,2.296297166238599e-05
-0.00820013804333808,3.771719848282862e-05,2.2982867891601998e-05
-0.007984595059121725,3.367101520721367e-05,2.3000714945024508e-05
-0.007756426888960247,2.973575972019318e-05,2.301656663875636e-05
-0.007516812334286622,2.5917449914381463e-05,2.3030479941165005e-05
-0.007266986193823069,2.222150028235404e-05,2.304251467871419e-05
-0.0070082303837446505,1.865269613796211e-05,2.3052733227819266e-05
-0.006741864694710481,1.5215172368348326e-05,2.3061200194945844e-05
-0.0064692372121154295,1.1912396891641848e-05,2.306798208726084e-05
-0.006191714452499261,8.747158975488175e-06,2.3073146976227624e-05
-0.005910671291784662,5.721562539417195e-06,2.307676415660635e-05
-0.005627480777543928,2.8370245220850475e-06,2.3078903803371724e-05
-0.005343503927559466,9.427834580919874e-08,2.3079636629088697e-05
-0.005060079618227472,-2.506617540637536e-06,2.307903354428999e-05
-0.004778514656494319,-4.966266109317984e-06,2.3077165323377502e-05
-0.004500074108849191,-7.2859133006538615e-06,2.3074102278525008e-05
-0.0042259719381796314,-9.467424812411068e-06,2.3069913943996742e-05
-0.003957361988053072,-1.1513258293969244e-05,2.3064668773220147e-05
-0.0036953293642292802,-1.3426431132039831e-05,2.3058433850863643e-05
-0.0034408822891297867,-1.5210484045379598e-05,2.3051274622069287e-05
-0.0031949445279944775,-1.6869440749660663e-05,2.3043254640870526e-05
-0.0029583484926426033,-1.8407764004819934e-05,2.3034435339681906e-05
-0.0027318291247003883,-1.983030840915568e-05,2.3024875821578413e-05
-0.0025160186559579256,-2.114227035432026e-05,2.3014632676887544e-05
-0.0023114423409222487,-2.23491356035403e-05,2.300375982539808e-05
-0.002118515247630845,-2.3456625000678575e-05,2.2992308385247022e-05
-0.001937540173036452,-2.44706388558454e-05,2.298032656928289e-05
-0.001768706723036666,-2.539720057986368e-05,2.2967859609423965e-05
-0.0016120915736109007,-2.624240015402557e-05,2.2954949709240494e-05
-0.0014676599161356568,-2.701233802646221e-05,2.2941636024695373e-05
-0.0013352680887338585,-2.771307002767959e-05,2.292795467268184e-05
-0.001214667400334765,-2.8350553899946744e-05,2.2913938766699934e-05
-0.0011055091551371399,-2.893059803881472e-05,2.2899618478715245e-05
-0.0010073508750436245,-2.945881304635991e-05,2.2885021125943953e-05
-0.0009196636935673389,-2.9940566688512652e-05,2.2870171281010235e-05
-0.0008418408594172382,-3.0380942826758798e-05,2.2855090903631418e-05
-0.0007732072493464178,-3.078470485394971e-05,2.283979949171124e-05
-0.0007130297560620585,-3.115626410530183e-05,2.2824314249471426e-05
-0.0006605283946159704,-3.149965364297134e-05,2.2808650270034358e-05
-0.0006148879622892599,-3.181850773219765e-05,2.2792820729690567e-05
-0.0005752700892850561,-3.2116047245091224e-05,2.2776837090946246e-05
-0.0005408255234989663,-3.239507114828723e-05,2.27607093113479e-05
-0.0005107064974978269,-3.265795415353643e-05,2.2744446055022445e-05
-0.0004840790273976872,-3.290665053476031e-05,2.272805490385037e-05
-0.00046013498798946466,-3.31427040386071e-05,2.271154256520703e-05
-0.00043810379338678375,-3.336726373395116e-05,2.269491507326389e-05
-0.0004172634919256604,-3.3581105555279275e-05,2.267817798094158e-05
-0.0003969510696556285,-3.3784659195674595e-05,2.2661336539753844e-05
-0.00037657176001267397,-3.3978039903091674e-05,2.2644395864979152e-05
-0.0003556071828835998,-3.4161084638815745e-05,2.2627361083843674e-05
-0.0003336221782296201,-3.433339197909405e-05,2.2610237464689197e-05
-0.0003102702440134335,-3.4494365084654814e-05,2.259303052542326e-05
-0.00028529752513484837,-3.4643257026941885e-05,2.257574611989536e-05
-0.00025854532593045526,-3.477921773970821e-05,2.2558390501203696e-05
-0.00022995113256646642,-3.4901341854332436e-05,2.2540970361305184e-05
-0.0001995481371183401,-3.500871667175364e-05,2.2523492846673663e-05
-0.00016746326450104384,-3.5100469522158484e-05,2.2505965550125184e-05
-0.00013391372904430837,-3.517581377054482e-05,2.2488396479302008e-05
-9.9202187677074e-05,-3.5234092749725165e-05,2.247079400267194e-05
-6.371059699806055e-05,-3.527482094589395e-05,2.2453166774248037e-05
-2.789290896513106e-05,-3.5297721822384746e-05,2.243552363855597e-05
7.73324622444004e-06,-3.530276173806992e-05,2.2417873517665856e-05
4.259573362783944e-05,-3.529017949310685e-05,2.240022528235806e-05
7.607777802086655e-05,-3.5260511115194674e-05,2.2382587609705987e-05
0.00010752834200902148,-3.5214609585187204e-05,2.236496882953089e-05
0.00013627282560176523,-3.515365929328451e-05,2.2347376762311272e-05
0.00016162387868713638,-3.5079185117212284e-05,2.232981855120865e-05
0.00018289210825855835,-3.499305612047586e-05,2.231230049089923e-05
0.00019939647358081807,-3.4897483975016017e-05,2.2294827855875357e-05
0.00021047419724855022,-3.4795016307308675e-05,2.2277404730804776e-05
0.0002154900616618585,-3.4688525242581075e-05,2.2260033845417304e-05
0.0002138449880888722,-3.458119148014339e-05,2.2242716416236622e-05
0.00020498380342975222,-3.447648428226374e-05,2.222545199729602e-05
0.00018840209789596442,-3.437813780693231e-05,2.220823834177372e-05
0.0001636520789183936,-3.429012426272872e-05,2.2191071276256305e-05
0.00013034734293357979,-3.4216624407265726e-05,2.2173944589088807e-05
8.816651722728099e-05,-3.416199594222551e-05,2.2156849934001433e-05
3.685576011333625e-05,-3.4130740372890356e-05,2.2139776749922655e-05
-2.3769859694283988e-05,-3.412746889778559e-05,2.2122712197604987e-05
-9.382605914034337e-05,-3.4156867877494246e-05,2.210564111341117e-05
-0.00017336005342866306,-3.42236644056365e-05,2.2088545980340385e-05
-0.000262352224389803,-3.433259247509112e-05,2.2071406916120204e-05
-0.0003607186859545987,-3.448836020267722e-05,2.205420167795076e-05
-0.0004683146839206996,-3.4695618545146044e-05,2.2036905683263805e-05
-0.0005849387554884684,-3.495893190499834e-05,2.201949204565127e-05
-0.0007103375611631366,-3.528275098416124e-05,2.200193162492898e-05
-0.000844211291305953,-3.567138819727851e-05,2.198419309013362e-05
-0.0009862195416482618,-3.612899590551707e-05,2.196624299410792e-05
-0.0011359875461010402,-3.6659547677454395e-05,2.1948045858212177e-05
-0.0012931126511646807,-3.7266822726770824e-05,2.192956426561112e-05
-0.0014571709129769827,-3.795439361780624e-05,2.1910758961524977e-05
-0.0016277236946179976,-3.872561726970499e-05,2.1891588958803098e-05
-0.0018043241377233468,-3.9583629227790325e-05,2.1872011647178725e-05
-0.0019865233781168655,-4.053134110675038e-05,2.185198290459509e-05
-0.002173876370490704,-4.157144104390227e-05,2.183145720905743e-05
-0.0023659471855573193,-4.270639693291428e-05,2.1810387749563224e-05
-0.002562313649588068,-4.3938462141700625e-05,2.178872653479457e-05
