frame_number,force
0,656.8003000000062
1,657.2261379674818
2,657.6334760525722
3,658.0056505175854
4,658.3293316380291
5,658.5954528285838
6,658.7995022257629
7,658.9412566786403
8,659.0241300301601
9,659.0543285252232
10,659.0399682994376
11,658.9902472674781
12,658.9147122057431
13,658.8226302307804
14,658.7224494174571
15,658.6213210215323
16,658.5246786804626
17,658.4359196325254
18,658.3562646162223
19,658.2848594910906
20,658.2191338949488
21,658.1553749742376
22,658.0894324807441
23,658.0174627867679
24,657.9366344784723
25,657.8457289562223
26,657.7455632420834
27,657.6391552175774
28,657.5315688049272
29,657.4294277482599
30,657.3401598501929
31,657.2711028772758
32,657.2286395146825
33,657.2175150037272
34,657.2404344365766
35,657.2979596812189
36,657.3886542717332
37,657.509381521437
38,657.6556583766237
39,657.8220005408044
40,658.0022465204285
41,658.1898917550013
42,658.3784699506255
43,658.5619830503874
44,658.7353324012267
45,658.8946774852989
46,659.0376591089866
47,659.1634564232003
48,659.2726783364756
49,659.3671116108208
50,659.4493640404604
51,659.5224510022248
52,659.5893737184346
53,659.652731405792
54,659.7144033139344
55,659.7753304498758
56,659.8354182021818
57,659.893570796406
58,659.9478568421815
59,659.9957906020302
60,660.0346975886149
61,660.0621217817082
62,660.0762278124199
63,660.0761497276458
64,660.0622361945558
65,660.0361469038822
66,660.0007699675241
67,659.959952559014
68,659.918067300818
69,659.8794711110118
70,659.8479347803784
71,659.8261192654327
72,659.8151603264749
73,659.8144160379615
74,659.8214293787207
75,659.8321380958907
76,659.8413191927532
77,659.8432077828711
78,659.8322027944248
79,659.803565320674
80,659.7540146536675
81,659.6821258956095
82,659.5884462305904
83,659.4752953941017
84,659.3462977752495
85,659.2057741324263
86,659.0581531655504
87,658.9075257874283
88,658.7573824397033
89,658.6104955640646
90,658.4688732643026
91,658.3337256438358
92,658.205432478528
93,658.0835451928772
94,657.9668747210857
95,657.8537073042545
96,657.7421569971265
97,657.630613800836
98,657.518196354842
99,657.4050906739436
100,657.2926696048871
101,657.1833417845595
102,657.0801494826018
103,656.9861927675306
104,656.9039965143427
105,656.834960720799
106,656.7790277997448
107,656.7346423345648
108,656.6989852241363
109,656.6683872351988
110,656.6388071019311
111,656.606291038127
112,656.5673781595033
113,656.5194498387996
114,656.4610287391346
115,656.3920175754838
116,656.3138458994028
117,656.2294874642174
118,656.1433241329108
119,656.0608490894715
120,655.9882154320827
121,655.9316596794595
122,655.8968713736214
123,655.8884165262621
124,655.9093183283787
125,655.9608481997734
126,656.0425195011802
127,656.1522435857113
128,656.2866051319604
129,656.4412153499806
130,656.6110940145663
131,656.7910214353426
132,656.9758003685241
133,657.1603873300078
134,657.3399001782936
135,657.5095656627773
136,657.6646979378914
137,657.8007784929155
138,657.9136599207035
139,657.9998721592962
140,658.0569838164456
141,658.0839589220631
142,658.0814467264233
143,658.0519508179005
144,657.9998417599709
145,657.9311948104836
146,657.8534466113248
147,657.7748787765775
148,657.7039571485004
149,657.6485791570246
150,657.6153027396276
151,657.608646427634
152,657.6305586300581
153,657.6801466165474
154,657.7537227829562
155,657.8451725808203
156,657.9465981195272
157,658.0491621681217
158,658.1440447013885
159,658.2234122091398
160,658.2812826642812
161,658.3141588900595
162,658.3213200676526
163,658.3047129711503
164,658.2684596317304
165,658.2180745936134
166,658.1595426792671
167,658.0984383562362
168,658.0392669100744
169,657.9851600998273
170,657.9379536601638
171,657.8985485615573
172,657.8673842807877
173,657.8448622794667
174,657.8316163838313
175,657.8285828365618
176,657.836862223359
177,657.8574083447683
178,657.8906336389012
179,657.936056760186
180,657.9921029401648
181,658.0561131039119
182,658.1245629949518
183,658.193457823739
184,658.2588410205793
185,658.317330570505
186,658.366585070297
187,658.4056166948727
188,658.4349063939217
189,658.4563218500083
190,658.4728725925819
191,658.4883498449213
192,658.5068999127253
193,658.5325846348737
194,658.5689883518946
195,658.6189215796736
196,658.6842446715361
197,658.7658053507188
198,658.8634639358355
199,658.9761706458972
200,659.1020576114075
201,659.2385137072732
202,659.3822315948935
203,659.5292584654492
204,659.6751205045415
205,659.8150864974621
206,659.9445832977891
207,660.0597116190429
208,660.1577688446437
209,660.2376739797829
210,660.3002039583722
211,660.3479854738675
212,660.385234801726
213,660.4172879334867
214,660.4500013601568
215,660.4891174700592
216,660.5396705977832
217,660.6054698020412
218,660.6886629040062
219,660.7893894048491
220,660.9055595487279
221,661.0328212582059
222,661.1647733546887
223,661.2934507685994
224,661.410058337001
225,661.5058810262211
226,661.5732596792961
227,661.6064955758409
228,661.6025401205387
229,661.5613493643385
230,661.4858422377331
231,661.3814828935612
232,661.2555836557801
233,661.1164705038817
234,660.9726554186745
235,660.832122934388
236,660.7017814499512
237,660.5870794912267
238,660.4917632651598
239,660.4177605088004
240,660.3652010188794
241,660.3325926026379
242,660.3171420597639
243,660.315162514689
244,660.3224789333578
245,660.3347534626851
246,660.3476929223999
247,660.3571485545401
248,660.359151382651
249,660.349934785944
250,660.3259801905444
251,660.2840942422374
252,660.2215049076888
253,660.1359614249577
254,660.0258350944874
255,659.8902286946363
256,659.7290979478449
257,659.5433721622721
258,659.3350485854963
259,659.1072335726298
260,658.8641084146957
261,658.6108051885129
262,658.3531906619171
263,658.0975744451272
264,657.8503759689305
265,657.6177945609262
266,657.405519608643
267,657.218494119749
268,657.0607170096122
269,656.9350534705899
270,656.8430327999336
271,656.784651384358
272,656.7582428438167
273,656.760492952605
274,656.7866509230972
275,656.8309377752679
276,656.8871023353486
277,656.9490455408608
278,657.0114307399598
279,657.0702095693221
280,657.1230009444511
281,657.1692594920908
282,657.2101740798339
283,657.2482713251547
284,657.2867724863378
285,657.3288356951505
286,657.376855731756
287,657.4319632019581
288,657.4937900801262
289,657.5604976480327
290,657.629018626658
291,657.69543968325
292,657.7554360501215
293,657.8046741388181
294,657.8391269462347
295,657.855289693386
296,657.8503171049668
297,657.8221157232922
298,657.7694209224085
299,657.6918798500506
300,657.5901451970641
301,657.4659561975296
302,657.3221613644391
303,657.1626459235781
304,656.9921606315964
305,656.8160817704908
306,656.6401437882525
307,656.4701693367031
308,656.311789185975
309,656.1701261263024
310,656.049432108598
311,655.9527071005482
312,655.8813645116699
313,655.8350200192972
314,655.8114634123755
315,655.8068347618779
316,655.8159796395802
317,655.8329193853529
318,655.8513582601214
319,655.86516377752
320,655.868784719099
321,655.8575940052789
322,655.8281549203696
323,655.7784158136634
324,655.7078426014285
325,655.6174919029227
326,655.5100073857844
327,655.3895036411684
328,655.2613085712497
329,655.1315692212838
330,655.0067596798714
331,654.8931362172805
332,654.7961719685317
333,654.7199995962171
334,654.6669065952409
335,654.6369507494986
336,654.6277736715319
337,654.6346792751614
338,654.6510137619989
339,654.6688372216563
340,654.67981601205
341,654.676206484985
342,654.6517761106389
343,654.6025326756551
344,654.5271855818813
345,654.4273120900979
346,654.307230301124
347,654.1735999398866
348,654.0348009782537
349,653.9001779978747
350,653.7792579775823
351,653.6810317174138
352,653.6133452174665
353,653.5824022715827
354,653.5923585959522
355,653.645007473161
356,653.7396036055212
357,653.872902018259
358,654.039468640093
359,654.2322570524852
360,654.4433807158551
361,654.6649732546847
362,654.8900217251754
363,655.1130631679637
364,655.3306488266998
365,655.541510498172
366,655.7464093067043
367,655.9477001834382
368,656.1486959697468
369,656.352947229871
370,656.5635525236296
371,656.7825888642419
372,657.0107268541718
373,657.2470699839649
374,657.4892171280324
375,657.7334986320451
376,657.9753096306207
377,658.2094756626146
378,658.430619846017
379,658.6335275401332
380,658.8135069238583
381,658.9667309811981
382,659.0905372758248
383,659.1836650875282
384,659.24641728918
385,659.280736691283
386,659.2901879654328
387,659.2798471761214
388,659.2561125517966
389,659.2264434097269
390,659.1990138831773
391,659.182258292105
392,659.1842998316283
393,659.2122943754737
394,659.2717743845989
395,659.3661132959437
396,659.4962230052291
397,659.6605513455526
398,659.855378935577
399,660.0753391261773
400,660.3140315693838
401,660.5646031179217
402,660.8202229503003
403,661.0744403186469
404,661.3214528353907
405,661.5563281870437
406,661.7752164568327
407,661.9755613255944
408,662.156273000249
409,662.3177926498889
410,662.4619846171252
411,662.5918341110449
412,662.7109788908217
413,662.8231449942764
414,662.9315808708286
415,663.038585929557
416,663.145207916154
417,663.2511496304965
418,663.3548977800301
419,663.4540701075947
420,663.5459493616721
421,663.6281156860515
422,663.6990292607053
423,663.7584066588228
424,663.8072974183561
425,663.8478652526536
426,663.882956092422
427,663.9155653475885
428,663.9483113542944
429,663.9830076424178
430,664.0204105597919
431,664.0601862473764
432,664.1010906250426
433,664.1413137826307
434,664.178923975497
435,664.2123435581169
436,664.2407832358746
437,664.2645561695012
438,664.2851997627853
439,664.3053518004758
440,664.3283613478118
441,664.35766876649
442,664.3960551265324
443,664.4449110757315
444,664.5036775455648
445,664.5695593094464
446,664.6375388228545
447,664.7006633288912
448,664.7505562414573
449,664.7781020727228
450,664.7742575688826
451,664.7309352560508
452,664.6418807066832
453,664.5034391017318
454,664.3151103820323
455,664.0798272628473
456,663.8039268075779
457,663.4968043781578
458,663.1702532475612
459,662.8375271720271
460,662.5122134653636
461,662.2070462341144
462,661.9328066498869
463,661.6974470268315
464,661.5055387155206
465,661.3580842597033
466,661.2526687541653
467,661.1838800644178
468,661.1439174668923
469,661.1233238198811
470,661.1117931136172
471,661.0990052289376
472,661.0754258238536
473,661.03299943913
474,660.9656713201325
475,660.8696959622731
476,660.7437191981713
477,660.5886502757421
478,660.4073676251626
479,660.2043219437332
480,659.9851062270752
481,659.7560516193962
482,659.523888214239
483,659.295492355853
484,659.0777244852694
485,658.8773335653792
486,658.7008698349113
487,658.5545292498737
488,658.4438687791134
489,658.3733807971203
490,658.3459783866423
491,658.362494218512
492,658.4213114527564
493,658.5182180616231
494,658.6465191130682
495,658.7973885844958
496,658.9604222418074
497,659.1243589555396
498,659.2779364909836
499,659.4108185715583
500,659.5144833316369
501,659.5829322386894
502,659.6130941747601
503,659.6048630380749
504,659.5607869467533
505,659.4854842809046
506,659.384881936578
507,659.2653700233043
508,659.1329680414577
509,658.9926073141222
510,658.8476411492512
511,658.699675900345
512,658.5487583028691
513,658.3938728597467
514,658.2336373157854
515,658.0670592861402
516,657.8942242369566
517,657.7168038548921
518,657.5382975296835
519,657.3639577774748
520,657.2004087438411
521,657.0550238455717
522,656.9351530342881
523,656.8472883688911
524,656.7962627170481
525,656.7845921673893
526,656.8120634765038
527,656.8756198954709
528,656.9695385316685
529,657.0858517722323
530,657.2149543911265
531,657.3463437570163
532,657.4694397287033
533,657.5744166251175
534,657.6529700815441
535,657.6989492026729
536,657.7088000453024
537,657.6817799268636
538,657.619913496236
539,657.5276763808264
540,657.4114229404544
541,657.2786290062458
542,657.1370781130887
543,656.9941428048132
544,656.8562816487461
545,656.7287966895178
546,656.615803805363
547,656.5203040534883
548,656.4442466169778
549,656.3885389949669
550,656.3530348336071
551,656.3365604764351
552,656.3370217215771
553,656.3515958006486
554,656.3769860870461
555,656.409699703581
556,656.4463002710403
557,656.4835958708655
558,656.518742570917
559,656.5492612829923
560,656.5729750373021
561,656.5878885772556
562,656.5920608920462
563,656.5835437845923
564,656.5604451148859
565,656.5211245675657
566,656.4644782843114
567,656.390241437101
568,656.2992263772798
569,656.1934118668194
570,656.0758233468856
571,655.9502026326169
572,655.8205310268089
573,655.6905077458381
574,655.5630852848941
575,655.4401397508577
576,655.3223261312968
577,655.2091416273673
578,655.0991904538383
579,654.9906097567191
580,654.8815829651298
581,654.7708418010394
582,654.658054014953
583,654.5440197140408
584,654.4306432794205
585,654.320686272553
586,654.2173341684389
587,654.1236429878013
588,654.041974541313
589,653.9735527697126
590,653.9182480679192
591,653.8746255692877
592,653.8402121374247
593,653.8118831512702
594,653.7862662529409
595,653.760100079875
596,653.7305369608382
597,653.6954009648671
598,653.653398614309
599,653.6042532665775
600,653.5487234690842
601,653.4884785023543
602,653.4258282827011
603,653.3633252432992
604,653.303273401202
605,653.2472029067936
606,653.1953950142969
607,653.1465601650385
608,653.0977697135411
609,653.0447164078324
610,652.9823283001512
611,652.9056799704359
612,652.811046285603
613,652.6968745020909
614,652.564452145837
615,652.4181139835786
616,652.2649299552388
617,652.1139254271046
618,651.9749813196422
619,651.857612485415
620,651.7698188815037
621,651.7171671378387
622,651.7022113464166
623,651.7243055952699
624,651.7797998943553
625,651.8625590950934
626,651.9647139247858
627,652.0775430461325
628,652.1923826677844
629,652.3014558186228
630,652.3985140922105
631,652.4792126925843
632,652.5412030171302
633,652.5839995839231
634,652.608721748148
635,652.6178069468568
636,652.6147512173229
637,652.6038858991539
638,652.5901757352492
639,652.5790220248475
640,652.576052223127
641,652.5868669612686
642,652.616716598366
643,652.6701085225839
644,652.7503891772359
645,652.8593714693975
646,652.9970775235653
647,653.1616492687319
648,653.3494537220053
649,653.5553766507597
650,653.7732684565685
651,653.99649809553
652,654.2185785139278
653,654.4338180311364
654,654.6379155158454
655,654.8283881440859
656,655.0047379160319
657,655.1683240722402
658,655.3219794114779
659,655.4694626780857
660,655.6148676521751
661,655.7621055098322
662,655.9145351964216
663,656.0747544118118
664,656.2445188378462
665,656.424748389598
666,656.615588887724
667,656.816500821516
668,657.0263436445929
669,657.2434344661149
670,657.4655935630163
671,657.6902226123468
672,657.914456278991
673,658.1353760008262
674,658.3502201177787
675,658.5565195765121
676,658.7521356247477
677,658.9352292776969
678,659.1042140574795
679,659.2577362584013
680,659.3947122463118
681,659.5144361448214
682,659.6167433121917
683,659.7021762593358
684,659.7720748634774
685,659.8285262480855
686,659.8741580272795
687,659.9118140017041
688,659.9441848362665
689,659.9734658490139
690,660.0010920570331
691,660.0275799185429
692,660.0524924807039
693,660.074528775169
694,660.0917143998022
695,660.1016477332457
696,660.1017470861099
697,660.0894548715515
698,660.0623827182628
699,660.0184109046342
700,659.955770394203
701,659.8731366101031
702,659.7697589554645
703,659.6456345675138
704,659.5017024088439
705,659.3399964510882
706,659.1636780167463
707,658.9768828671065
708,658.7843646334353
709,658.5909719735931
710,658.4010412088843
711,658.2178102611239
712,658.0429607812001
713,657.8763714048101
714,657.7161238283164
715,657.5587648774017
716,657.3998057100955
717,657.2344244450023
718,657.0583106309176
719,656.8685450867495
720,656.6643643319588
721,656.4476407596036
722,656.2229420570343
723,655.997123291831
724,655.7785221598996
725,655.5759180290887
726,655.3974461073411
727,655.2496364963392
728,655.136700003559
729,655.0601337471198
730,655.0186812328491
731,655.0086420369157
732,655.0244731019826
733,655.0595729994257
734,655.1071202119565
735,655.1608509897621
736,655.2156928457395
737,655.268199081053
738,655.3167553180934
739,655.3615572900231
740,655.40439131393
741,655.4482724735278
742,655.4969958465016
743,655.5546376228305
744,655.6250298631744
745,655.7112436296981
746,655.8151424076863
747,655.9370835585701
748,656.075829980378
749,656.2286928141971
750,656.3918810672169
751,656.5610010008077
752,656.7316250336272
753,656.899829946868
754,657.0625957982655
755,657.2179809667027
756,657.3650509333587
757,657.503612622037
758,657.6338539742861
759,657.7559922620568
760,657.8700038181153
761,657.9754627705054
762,658.0714791598771
763,658.1567173176846
764,658.2294949627718
765,658.2879828602229
766,658.3305097196244
767,658.3559303870795
768,658.3639748681155
769,658.3554888939174
770,658.3324998982494
771,658.298078957584
772,658.256010298619
773,658.2103198634616
774,658.1647406001307
775,658.1221962187367
776,658.0843795441701
777,658.0514999068977
778,658.0222604774052
779,657.9940779599881
780,657.9634897141276
781,657.926651328505
782,657.8798308951207
783,657.8198378193608
784,657.7443580975788
785,657.6521877428696
786,657.5433579753623
787,657.4191411426056
788,657.281929038321
789,657.1349895557353
790,656.9821318530315
791,656.8273380717162
792,656.674433140437
793,656.5268448868419
794,656.3874595117336
795,656.2585320793539
796,656.1415986593448
797,656.0373665499184
798,655.9456139089481
799,655.8651704811031
800,655.7940429865212
801,655.7296944789267
802,655.6694232324073
803,655.6107514966562
804,655.5517403299419
805,655.4911818317191
806,655.4286627742075
807,655.3645238990927
808,655.2997488848745
809,655.2358119468976
810,655.1745029252886
811,655.1177423025213
812,655.0674019952025
813,655.0251564352761
814,654.9923887774642
815,654.9701605633808
816,654.9592256298318
817,654.9600486948731
818,654.9727913018118
819,654.9972476949786
820,655.0327343313526
821,655.0779550366418
822,655.1308848967553
823,655.1887357248172
824,655.2480707924043
825,655.3051168767988
826,655.3562769269087
827,655.3987830806167
828,655.4313617293612
829,655.4547363266079
830,655.4718009085315
831,655.4873720665616
832,655.5075508830348
833,655.5388503873216
834,655.5873112067533
835,655.657808658803
836,655.75366719161
837,655.8765918313958
838,656.026845599814
839,656.2035654043164
840,656.4051096198209
841,656.6293513325801
842,656.8738609257628
843,657.1359564995337
844,657.41263683136
845,657.7004448624041
846,657.9953339615336
847,658.2926124118031
848,658.5870168903639
849,658.872928665028
850,659.1447201472407
851,659.3972035100929
852,659.6261276038423
853,659.828634314593
854,660.0035709356316
855,660.1515852595201
856,660.2749903074349
857,660.3774366394739
858,660.4634483603015
859,660.5378722773373
860,660.6052829204976
861,660.6693985623007
862,660.7325899021464
863,660.7955740532791
864,660.8573577132455
865,660.9154320413728
866,660.9661586302338
867,661.0052542841693
868,661.0282966343605
869,661.0312131764222
870,661.010745079913
871,660.9648756022436
872,660.8931925808537
873,660.7971342620189
874,660.6800586330083
875,660.5470872200615
876,660.4047126566368
877,660.2602162270438
878,660.120990249616
879,659.9938785654359
880,659.8846307554642
881,659.7975200159167
882,659.7351248238874
883,659.6982481922853
884,659.6859498778504
885,659.6956778211671
886,659.7234898126289
887,659.7643541640568
888,659.8125148614916
889,659.8619051596366
890,659.906589880294
891,659.9412039151005
892,659.9613346734043
893,659.9637868870356
894,659.9466886191942
895,659.9094448739706
896,659.8525899059829
897,659.7775997547506
898,659.6867009954951
899,659.5826789328453
900,659.4686769450506
901,659.3479898120515
902,659.2238687334012
903,659.0993620286866
904,658.9772125522238
905,658.8598171994024
906,658.7492264200465
907,658.6471405868393
908,658.5548619800488
909,658.4731840982894
910,658.40223594778
911,658.341338435691
912,658.2889517390221
913,658.2427739836718
914,658.199997652497
915,658.157676162753
916,658.113128347407
917,658.064309227865
