frame_number,force
0,647.3800100000325
1,646.9592812070332
2,646.554350397967
3,646.1799927203571
4,645.8490442375346
5,645.5716698984687
6,645.3548640382019
7,645.20221363912
8,645.1139344522678
9,645.0871594245015
10,645.1164228235782
11,645.194253853215
12,645.3117868280864
13,645.4593182050907
14,645.6267795694142
15,645.8041319328673
16,645.9817155830897
17,646.1506058616809
18,646.303012342584
19,646.4327112428263
20,646.5354437147378
21,646.6091849380874
22,646.6542087397581
23,646.672924402762
24,646.6695141544039
25,646.6494297902021
26,646.6188167017364
27,646.5839332962338
28,646.5506229307106
29,646.5238720566757
30,646.5074663344535
31,646.5037547262351
32,646.5135469241216
33,646.5361760704762
34,646.569735413254
35,646.611450616705
36,646.6581077740784
37,646.7064472530475
38,646.753458404569
39,646.7965507205666
40,646.8336117462646
41,646.8629818277841
42,646.8833838556584
43,646.8938526516897
44,646.8937173945693
45,646.882686407877
46,646.8610484707452
47,646.8299469591184
48,646.7916343389927
49,646.7495991908535
50,646.7084788687841
51,646.6737180620565
52,646.65099336447
53,646.645481436918
54,646.6610881799535
55,646.6997685534644
56,646.7610516142862
57,646.8418504143641
58,646.9365918654406
59,647.0376596166263
60,647.1361096969782
61,647.2225883923343
62,647.2883482389934
63,647.3262287817115
64,647.331460770143
65,647.3021749096464
66,647.2395444589094
67,647.1475539575893
68,647.032449793937
69,646.9019742204345
70,646.7645019030057
71,646.628190116781
72,646.5002293167405
73,646.3862514093373
74,646.2899320664822
75,646.2128124276132
76,646.1543488190138
77,646.1121675022608
78,646.0824679580368
79,646.0605000215485
80,646.0410408336975
81,646.0188110307436
82,645.9887906725627
83,645.9464234139874
84,645.8877299794731
85,645.8093777860477
86,645.708759346286
87,645.5841154577595
88,645.4347081640199
89,645.2610149232625
90,645.064894273183
91,644.8496767124659
92,644.620155863393
93,644.3824685943998
94,644.1438449331168
95,643.9122012474476
96,643.6955769845202
97,643.5014759630398
98,643.3362268494725
99,643.20448216131
100,643.1089239803681
101,643.0501669517131
102,643.0267916338629
103,643.035438363093
104,643.0709390391905
105,643.1265226902157
106,643.194160129961
107,643.2650965627294
108,643.3305660549153
109,643.3826112149807
110,643.4148773236795
111,643.4232425907041
112,643.4061872317282
113,643.3648618517838
114,643.3028612021649
115,643.2257416134512
116,643.1403448732256
117,643.0540029406885
118,642.9736979702434
119,642.9052564467173
120,642.8526715922736
121,642.8176589443676
122,642.7995334980795
123,642.7954398803655
124,642.8008780302026
125,642.8103843725496
126,642.8182015311401
127,642.8188149516179
128,642.8073186450694
129,642.7796408596035
130,642.7326860471277
131,642.6644402271344
132,642.574061124098
133,642.4619437940387
134,642.3297270587098
135,642.1801986255065
136,642.017075520257
137,641.8446768644266
138,641.6675481615438
139,641.4901151936615
140,641.3164306055336
141,641.1500380536363
142,640.9939393940236
143,640.8506262907541
144,640.722129777301
145,640.6100439378052
146,640.5154951277801
147,640.4390584028681
148,640.3806569268482
149,640.3395016726764
150,640.3141285622331
151,640.3025669219458
152,640.3026322463684
153,640.3122880754103
154,640.3299795551918
155,640.3548250692539
156,640.3865818866664
157,640.4253738347641
158,640.4712520360714
159,640.5237170419274
160,640.5813424084203
161,640.6416071355279
162,640.7009854717411
163,640.7552814592718
164,640.8001472446692
165,640.8316914575327
166,640.8470679584262
167,640.8449413860282
168,640.8257569842859
169,640.7917864424217
170,640.7469569088789
171,640.6964878458094
172,640.6463718075877
173,640.6027532244642
174,640.5712823584203
175,640.5565388893347
176,640.5616179044702
177,640.5879414561607
178,640.6353066391983
179,640.7021265099445
180,640.7857840697443
181,640.8830090946645
182,640.9901954859737
183,641.1035970088636
184,641.2193781290773
185,641.3335549936968
186,641.4419143542309
187,641.5400139640631
188,641.6233402375763
189,641.687641642358
190,641.7293859472159
191,641.7462280073861
192,641.7373534826473
193,641.7036041461781
194,641.647375107381
195,641.5723497203202
196,641.4831612447789
197,641.3850463130798
198,641.2835148209268
199,641.1840249202094
200,641.0916335093028
201,641.0106069644694
202,640.9440233744732
203,640.8934456132739
204,640.8587532288657
205,640.8381795565208
206,640.828543325501
207,640.8256332785053
208,640.8247033090203
209,640.8210385098265
210,640.810545053048
211,640.7903056861072
212,640.7590365375845
213,640.7173801119652
214,640.6679706805276
215,640.6152168253626
216,640.564778518049
217,640.5227830591105
218,640.4949062488183
219,640.485499357412
220,640.4969361472129
221,640.5292923179971
222,640.580385869699
223,640.6461317216167
224,640.7211119372585
225,640.7992414525852
226,640.8744206388691
227,640.9410987424708
228,640.994704282375
229,641.0319184197753
230,641.0507863801892
231,641.0506940394571
232,641.0322689776561
233,640.9972673240396
234,640.9484711875285
235,640.8895746197184
236,640.8250164703584
237,640.7597373711867
238,640.6988712428245
239,640.6473975406142
240,640.6097776080662
241,640.5896029821307
242,640.5893034567404
243,640.6099730334194
244,640.6513549165787
245,640.7119950611551
246,640.7895430999156
247,640.8811520866025
248,640.9839079668935
249,641.0952146421242
250,641.2130713377214
251,641.3361969719523
252,641.4639777602297
253,641.5962447555055
254,641.7329272625229
255,641.873663266368
256,642.0174651205626
257,642.1625314562576
258,642.3062638304596
259,642.445494303365
260,642.5768738890896
261,642.6973312524987
262,642.8044964474246
263,642.8969990916515
264,642.97459216859
265,643.0381028637248
266,643.0892444872757
267,643.1303349925569
268,643.1639732818351
269,643.1927294437677
270,643.2189001494448
271,643.2443616176722
272,643.2705280205419
273,643.2984026703549
274,643.3286954254585
275,643.3619707862218
276,643.3987856320044
277,643.4397735802908
278,643.485638762095
279,643.5370418511656
280,643.5943938116777
281,643.65760417045
282,643.7258469288375
283,643.7974074370957
284,643.8696638190239
285,643.9392373669166
286,644.0023140549755
287,644.0550989552079
288,644.0943318487646
289,644.1177765746091
290,644.1245991322941
291,644.1155689549292
292,644.0930526363821
293,644.0608073014108
294,644.023601415704
295,643.9866909862388
296,643.9551825656587
297,643.9333414310098
298,643.9239401029954
299,643.9277590556677
300,643.9433379006508
301,643.9670397903101
302,643.9934392245033
303,644.0159783673997
304,644.0277771187167
305,644.022453143386
306,643.9948238273466
307,643.9414112389433
308,643.8607262526292
309,643.7533501686771
310,643.6218566190518
311,643.4706204450395
312,643.3055449049285
313,643.1337178816349
314,642.9629969697763
315,642.8015252052738
316,642.6571893362353
317,642.5370480824539
318,642.446774742691
319,642.3901695086645
320,642.3687975687754
321,642.3817998040462
322,642.4259041852628
323,642.4956430204688
324,642.5837661012862
325,642.6818318839083
326,642.7809372896638
327,642.8725074548909
328,642.9490416051035
329,643.0047232504168
330,643.0358331359629
331,643.0409261736876
332,643.0207541140036
333,642.9779503600162
334,642.9165384428829
335,642.841360974674
336,642.7575309036998
337,642.6699742331983
338,642.5830805553359
339,642.5004379384646
340,642.4246217011117
341,642.3570268687342
342,642.2977622634463
343,642.245641006815
344,642.1983000942834
345,642.1524678887095
346,642.1043811365084
347,642.0503281956934
348,641.987255955814
349,641.9133368736549
350,641.828379402246
351,641.7339965908313
352,641.633507973712
353,641.5316083511677
354,641.4338745765
355,641.3461956025159
356,641.2742083521277
357,641.2228070062235
358,641.195764121417
359,641.1954663180511
360,641.2227490118161
361,641.276823848663
362,641.3553092360025
363,641.4543786753168
364,641.5690348121653
365,641.6935040699764
366,641.821722177844
367,641.947845593629
368,642.0666992862685
369,642.1740838941457
370,642.2669143608829
371,642.343215145851
372,642.4020235959698
373,642.4432530518872
374,642.4675564369517
375,642.4762163739974
376,642.4710690743755
377,642.454449150241
378,642.4291288755487
379,642.3982273438318
380,642.3650813505346
381,642.3330845027447
382,642.3055032051195
383,642.2852781743701
384,642.2748279989522
385,642.2758760291389
386,642.2893122982726
387,642.3150896844859
388,642.352156736572
389,642.3984477407737
390,642.4509652454021
391,642.5059876920045
392,642.5594138688434
393,642.607218360732
394,642.6459469732673
395,642.6731535267484
396,642.6876907395592
397,642.689811135824
398,642.6810842010285
399,642.6641732748279
400,642.642531470146
401,642.620073654227
402,642.6008716057894
403,642.5889076768343
404,642.5879078184939
405,642.601257396527
406,642.6319846235989
407,642.6827787854347
408,642.755996019991
409,642.8536000698708
410,642.9770026647485
411,643.1268146786766
412,643.3025729677979
413,643.5025333820751
414,643.7236059903416
415,643.9614689338474
416,644.2108531041223
417,644.465957628061
418,644.7209407298773
419,644.9704214657843
420,645.2099182181755
421,645.4361485144694
422,645.6471309403279
423,645.8420617812234
424,646.0209805626874
425,646.1842860894305
426,646.3322101832881
427,646.4643811710772
428,646.5795954388965
429,646.6758661708947
430,646.7507526483369
431,646.8019062536009
432,646.8277103238321
433,646.8278563531612
434,646.803709232679
435,646.7583734762447
436,646.6964568496618
437,646.6236027832177
438,646.5459049632342
439,646.4693177746292
440,646.3991425765828
441,646.3396297022252
442,646.2937162843152
443,646.2629186024998
444,646.2473911197926
445,646.2461383248734
446,646.2573284251255
447,646.2786323146313
448,646.3075154647015
449,646.3414407304689
450,646.3779726015745
451,646.4147922960011
452,646.4496483288228
453,646.4802928033705
454,646.5044756606468
455,646.5200537644988
456,646.5252122066586
457,646.5187329667617
458,646.5002285104692
459,646.4702860897074
460,646.4305033674036
461,646.3834083841957
462,646.3322552510718
463,646.2806983312361
464,646.2323811020166
465,646.1905098667064
466,646.1574904873089
467,646.1346841495767
468,646.1223010819682
469,646.1194199085761
470,646.1241117689332
471,646.1336613160474
472,646.1448873855361
473,646.1545499246037
474,646.1597904937012
475,646.1585243497981
476,646.1497087197683
477,646.1334446958011
478,646.1109044881223
479,646.0841028306747
480,646.0555535552274
481,646.0278678639442
482,646.0033540049347
483,645.9836656846905
484,645.9695265353787
485,645.9605494536664
486,645.9551800049726
487,645.9508009170937
488,645.9440130140142
489,645.9310605725918
490,645.9083277594823
491,645.8728206747793
492,645.82256322806
493,645.756858310323
494,645.6763851537473
495,645.5831179938258
496,645.4800715431811
497,645.3709111086816
498,645.2594949916487
499,645.1494268708534
500,645.0436842827232
501,644.9443620967209
502,644.8525382316785
503,644.7682534526042
504,644.6906073048019
505,644.6179853927777
506,644.5484179979966
507,644.4800263364057
508,644.4114725861945
509,644.3423200098889
510,644.2732264210279
511,644.2059217830197
512,644.1429565389453
513,644.0872533135135
514,644.0415386927924
515,644.0077598775849
516,643.986603949178
517,643.9772382284216
518,643.9773647805812
519,643.9836115389901
520,643.9921785327127
521,643.9995713222214
522,644.0032332205024
523,644.0019369132629
524,643.9958803944141
525,643.9865114465063
526,643.9761535746791
527,643.9675208446625
528,643.9632058372815
529,643.96522269877
530,643.9746870149044
531,643.9916990923582
532,644.0154532074317
533,644.0445317435007
534,644.0772910269079
535,644.1122322858618
536,644.1482769492196
537,644.18491004472
538,644.2221974292779
539,644.2607086977517
540,644.3013831901953
541,644.3453666778846
542,644.3938317266974
543,644.4477843833068
544,644.5078612972751
545,644.574138903215
546,644.6460007685039
547,644.7221198675942
548,644.8005945664169
549,644.8792345201701
550,644.9559431604455
551,645.0291048986915
552,645.0978707918292
553,645.1622555872873
554,645.2230113741377
555,645.2813100119779
556,645.3383171518169
557,645.3947540373367
558,645.4505258481005
559,645.5044696582463
560,645.5542557088469
561,645.596464136286
562,645.6268493209435
563,645.6407835034684
564,645.6338333986561
565,645.6023804369937
566,645.5441716999868
567,645.4587003424111
568,645.3473549382277
569,645.2133261932473
570,645.0613018204187
571,644.8970111702205
572,644.7266946482913
573,644.5565647314136
574,644.3923030478675
575,644.2386154333792
576,644.0988562625331
577,643.9747428871488
578,643.8662049925005
579,643.7714273176281
580,643.6871237954637
581,643.6090308275411
582,643.5325548562352
583,643.4534763565467
584,643.3686018533732
585,643.2762629165136
586,643.1765820873272
587,643.071458760387
588,642.9642743734355
589,642.8593716685803
590,642.7614111520342
591,642.6747303383752
592,642.6028202238219
593,642.547992866035
594,642.5112556763982
595,642.4923543646692
596,642.4899242848078
597,642.5017063534096
598,642.524814049293
599,642.5560494953272
600,642.5922520451768
601,642.6306416701549
602,642.6691099765359
603,642.7064160006491
604,642.7422590090584
605,642.777224827659
606,642.8126283605806
607,642.8502909908391
608,642.8922929501082
609,642.9407323259333
610,642.9975105529386
611,643.0641562404065
612,643.1417026573647
613,643.230644183622
614,643.330991801018
615,643.4424135424679
616,643.5644016511609
617,643.6963915627717
618,643.8377860033896
619,643.9878905306036
620,644.1458082078271
621,644.3103490228924
622,644.4799900333383
623,644.6528956080102
624,644.8269857503051
625,645.0000247889155
626,645.1696976733974
627,645.3336549622932
628,645.489532614169
629,645.6349702117059
630,645.7676539810741
631,645.8854025954935
632,645.9862994231224
633,646.06886189062
634,646.1322283965817
635,646.1763269270208
636,646.2019680555787
637,646.2107981276845
638,646.205073888972
639,646.1872752455447
640,646.159637249213
641,646.123727210841
642,646.0801964803929
643,646.0287934169907
644,645.9686445275868
645,645.8987213320778
646,645.8183517959924
647,645.7276368541799
648,645.6276845461269
649,645.5206379292789
650,645.4095224174253
651,645.2979708773637
652,645.1898969818592
653,645.0891730032755
654,644.9993400449758
655,644.9233592672732
656,644.8634073213801
657,644.8207173959532
658,644.795464999017
659,644.786701194551
660,644.792344583541
661,644.8092448630923
662,644.833323983559
663,644.8598004302576
664,644.8835099474425
665,644.8993327133231
666,644.9027115951734
667,644.890207106869
668,644.8599935602174
669,644.8121750012202
670,644.7488184063943
671,644.6736766832163
672,644.5916693035871
673,644.5082468298442
674,644.4287637220278
675,644.3579466840298
676,644.2995087105958
677,644.255931835751
678,644.2284169563491
679,644.216976419579
680,644.2206334507059
681,644.2376974189601
682,644.266096347013
683,644.303750443137
684,644.3489569763382
685,644.4007378233457
686,644.4590862743689
687,644.525044845909
688,644.6005623790384
689,644.688124201227
690,644.790208385969
691,644.9086658830239
692,645.044138008876
693,645.1956163860231
694,645.3602271670885
695,645.5332862483791
696,645.7086278258311
697,645.8791671664096
698,646.0376314962293
699,646.1773758265542
700,646.2931847261881
701,646.3819528819979
702,646.4431462535929
703,646.4789697595988
704,646.4942054799502
705,646.4957391015722
706,646.4918464478656
707,646.4913409939865
708,646.502683607826
709,646.5331434572167
710,646.5880832989415
711,646.6704245346218
712,646.7803329152449
713,646.9151580833272
714,647.0696512205972
715,647.2364617677031
716,647.4068730505597
717,647.5716912585294
718,647.7221733279746
719,647.8508759167522
720,647.9523235168726
721,648.0234221096911
722,648.0635845250246
723,648.0745786990726
724,648.0601463317553
725,648.0254579510838
726,647.9764734648169
727,647.9192715481233
728,647.8594046013507
729,647.8013390100558
730,647.7480533650612
731,647.7008675381043
732,647.6595378526005
733,647.6225865091264
734,647.5877770660298
735,647.552630893877
736,647.5148942723689
737,647.4728894771654
738,647.425705872742
739,647.3732106093813
740,647.3158880124881
741,647.2545566129593
742,647.190052892234
743,647.1229819851541
744,647.0536023651218
745,646.9818586574949
746,646.9075404502609
747,646.8305310257902
748,646.7510975183349
749,646.6701527714137
750,646.5894084136096
751,646.5113629021004
752,646.4391187761527
753,646.3760649433449
754,646.3254771948315
755,646.2900986479872
756,646.2717705007639
757,646.2711794026789
758,646.2877611667702
759,646.3197626064257
760,646.3644336341912
761,646.4183092537936
762,646.4775399186655
763,646.5382299455614
764,646.596745072142
765,646.6499539540899
766,646.6953766790335
767,646.7312290607639
768,646.7563722271732
769,646.770193016518
770,646.7724473554582
771,646.7630993613243
772,646.7421832684838
773,646.709705182071
774,646.6655985792079
775,646.6097543256398
776,646.5421446669344
777,646.4630381001663
778,646.3732753172227
779,646.2745682633669
780,646.1697827407955
781,646.0631395465223
782,645.9602286024225
783,645.8677284785917
784,645.7927939557691
785,645.7421862210399
786,645.7213114662115
787,645.7333655892666
788,645.7787556575249
789,645.85490277146
790,645.956447957086
791,646.0758049156514
792,646.2039536291536
793,646.3313543494869
794,646.4488651606079
795,646.5485518682234
796,646.6242958903406
797,646.6721492910602
798,646.690443353883
799,646.6796947609403
800,646.6423576921701
801,646.5824613049697
802,646.5051724826442
803,646.4163300076965
804,646.3219936090076
805,646.2280367459258
806,646.1397952259397
807,646.0617763974748
808,645.9974375207547
809,645.949045234986
810,645.9176192998713
811,645.9029464477459
812,645.9036391324331
813,645.9172202428388
814,645.9402332698036
815,645.968390680473
816,645.9967716274307
817,646.0200719880959
818,646.0329093352786
819,646.0301928732819
820,646.0075661260042
821,645.961903455883
822,645.8917970543913
823,645.7979321926587
824,645.6832401468915
825,645.5527541672955
826,645.4131634629854
827,645.2721286784907
828,645.1374591674597
829,645.016257157253
830,644.9141259291597
831,644.83453092848
832,644.778394111765
833,644.7439872466358
834,644.7271605232918
835,644.7218932628722
836,644.7210940240311
837,644.7175304098266
838,644.704748569193
839,644.6778475526888
840,644.6340004566321
841,644.5726624460075
842,644.4954689769288
843,644.4058883599045
844,644.3087317672025
845,644.2096295162112
846,644.11455421611
847,644.0294187529647
848,643.959721051401
849,643.9101781823433
850,643.88431141944
851,643.8840014888809
852,643.9090943384917
853,643.9571722622588
854,644.023600415599
855,644.1019127332158
856,644.1845236238682
857,644.2636642594857
858,644.3323718309692
859,644.3853352460385
860,644.4194403043281
861,644.4339484075148
862,644.4303389621866
863,644.4119004037027
864,644.3831579440335
865,644.3492098908338
866,644.3150483732725
867,644.2849624735061
868,644.2621192286073
869,644.2483663903978
870,644.2442303358526
871,644.2490419590306
872,644.2611265279414
873,644.2780162447253
874,644.296663453492
875,644.3136463814219
876,644.3253743096978
877,644.3283130355233
878,644.3192500676323
879,644.2955900115572
880,644.25562857028
881,644.1987344085812
882,644.1253905997672
883,644.0370966598074
884,643.9361793884325
885,643.8255820961012
886,643.7086869259264
887,643.589182456234
888,643.4709446489177
889,643.3578819122266
890,643.2537126417135
891,643.1616799174191
892,643.0842429077419
893,643.0228036292181
894,642.9775206679428
895,642.9472350285804
896,642.9295127800398
897,642.9208071043839
898,642.9167453861081
899,642.9125402027095
900,642.9035027324445
901,642.8856053392351
902,642.8560087082511
903,642.8134580694167
904,642.7584737497805
905,642.6933041980179
906,642.6216548884371
907,642.5482433167047
908,642.4782605186136
909,642.4168370511414
910,642.3685939949937
911,642.33730309832
912,642.3256255743718
913,642.3348935472937
914,642.3649384396085
915,642.4140117168661
916,642.4788516831311
917,642.5549252645135
918,642.63683401327
