frame_number,force
0,508.3508600000246
1,508.6716256739823
2,508.9730992730789
3,509.2377442341707
4,509.4512860400309
5,509.603764865485
6,509.6900137193108
7,509.70955364662416
8,509.6660035250982
9,509.5661654974605
10,509.4189652353183
11,509.23441515367506
12,509.022731769614
13,508.7936772472591
14,508.5561297863291
15,508.3178453240423
16,508.085366542856
17,507.86405087198614
18,507.65819855418357
19,507.4712515723555
20,507.30601764591563
21,507.1648685784759
22,507.04987304648324
23,506.96284352232755
24,506.905295554199
25,506.8783306079044
26,506.8824646688022
27,506.9174347581495
28,506.98201867344375
29,507.0738998259944
30,507.1896072597465
31,507.32456098713834
32,507.47324505745615
33,507.629514191309
34,507.78702265286
35,507.93974308689957
36,508.08250893199823
37,508.211482669399
38,508.32445655817634
39,508.4209362146778
40,508.50201010510983
41,508.57004613955564
42,508.62827820115626
43,508.6803549295684
44,508.72992311732077
45,508.7803058880713
46,508.83430186407503
47,508.89407871122495
48,508.961093214861
49,509.035975270707
50,509.11836639103103
51,509.2067672223723
52,509.2984821795283
53,509.38974061796745
54,509.47603343351534
55,509.5526460965315
56,509.6153128131911
57,509.6608816970884
58,509.68787435185624
59,509.6968402149434
60,509.69043921983746
61,509.6732266268718
62,509.6511554315146
63,509.6308582349829
64,509.6188200082943
65,509.6205831001354
66,509.6401108489487
67,509.67938127798226
68,509.7382237694541
69,509.8143822504531
70,509.9037888532113
71,510.0010350892268
72,510.1000079509647
73,510.1946170326368
74,510.27950052351383
75,510.3505887081728
76,510.4054322920283
77,510.4432592839958
78,510.4647865069369
79,510.47185715481777
80,510.46699219557127
81,510.45293488540165
82,510.43224675885574
83,510.4069905703833
84,510.3785160494289
85,510.3473515981976
86,510.3132023761537
87,510.27506045741217
88,510.2314344537966
89,510.18069049847423
90,510.12146432004937
91,510.0530747978478
92,509.97586226589334
93,509.89138885894675
94,509.8024569148053
95,509.71291609413504
96,509.6272499774137
97,509.5499710694103
98,509.48490616623167
99,509.43450156304795
100,509.399293202222
101,509.377656224412
102,509.3658855307108
103,509.358596209838
104,509.34938866901837
105,509.33169081337155
106,509.29965818582883
107,509.24899272629756
108,509.1775532111926
109,509.0856786213658
110,508.97620640130697
111,508.85421433069945
112,508.7265400152932
113,508.6011447711518
114,508.4863957286858
115,508.3903375260595
116,508.32001215410287
117,508.280872796459
118,508.276330485648
119,508.3074648600653
120,508.37292218303645
121,508.4690244040608
122,508.5901177390658
123,508.7291704941157
124,508.878568031433
125,509.0309720770449
126,509.1800674555896
127,509.32104814488656
128,509.45078516798037
129,509.56772331651047
130,509.6716167689656
131,509.7632091838084
132,509.8439123303749
133,509.9154832559199
134,509.979676579395
135,510.03786385729666
136,510.0906520180752
137,510.13757084027486
138,510.1769129226416
139,510.20579503579506
140,510.2204778134477
141,510.21693631295045
142,510.19161304653426
143,510.14221892900866
144,510.06840941657725
145,509.9721765122852
146,509.8578549870672
147,509.7317216719421
148,509.6012541782962
149,509.4741936152296
150,509.3575969317264
151,509.25704481976646
152,509.17610068541285
153,509.11603843542076
154,509.07581316740715
155,509.05224695012953
156,509.040416783656
157,509.03423216292185
158,509.0271641624988
159,509.01305298920636
160,508.9869004811685
161,508.9455523700749
162,508.8881816569426
163,508.81649921849373
164,508.73464888960194
165,508.6487884872107
166,508.5664040402652
167,508.4954430517585
168,508.44337843594514
169,508.4163254800254
170,508.4183273792345
171,508.4508977523998
172,508.51286775900707
173,508.6005450999405
174,508.7081583459209
175,508.8285309280482
176,508.95390566443734
177,509.07682521985004
178,509.1909657985933
179,509.2918203925303
180,509.37713633512675
181,509.44703702669193
182,509.5038122762544
183,509.5514405845644
184,509.5949666661917
185,509.63985733449823
186,509.69141236432677
187,509.754261830694
188,509.83196166404565
189,509.92669544286684
190,510.0390877386028
191,510.1681272837753
192,510.31119063762793
193,510.46415759786225
194,510.6216218313434
195,510.7772108438547
196,510.92401798519177
197,511.05511713461993
198,511.1641052474347
199,511.2456159523979
200,511.29575591284504
201,511.3124196058223
202,511.2954452781415
203,511.2465995152379
204,511.16941462768284
205,511.0689269847835
206,510.9513562902118
207,510.8237355749468
208,510.6934813615022
209,510.56790292410653
210,510.4536783888531
211,510.3563500235187
212,510.2798988433118
213,510.226452106955
214,510.1961631764898
215,510.1872864144916
216,510.1964545080653
217,510.2191487565515
218,510.2503199860939
219,510.2850671125179
220,510.31924524909454
221,510.3498940707663
222,510.3754431317944
223,510.3957162666416
224,510.4117862841175
225,510.425728907314
226,510.44031485034657
227,510.4586708797055
228,510.48392971920975
229,510.51887556378847
230,510.56558944718233
231,510.62511380153876
232,510.6971753964235
233,510.7800118759772
234,510.87033878508686
235,510.9634815290671
236,511.05367932868324
237,511.134541799595
238,511.19961287167007
239,511.24298405242246
240,511.25989890078654
241,511.24729406985415
242,511.20422406455305
243,511.1321171019214
244,511.0348130762069
245,510.91835117944544
246,510.79050907003744
247,510.6601380650393
248,510.5363731918256
249,510.4278130548113
250,510.3417611426161
251,510.28360344342866
252,510.2563781063467
253,510.2605784622514
254,510.29421656247763
255,510.35314878665497
256,510.4316243507017
257,510.5229784291453
258,510.6203750877668
259,510.71750842519987
260,510.8091773964207
261,510.8916628619707
262,510.96286777713476
263,511.0222313949454
264,511.07047785673166
265,511.10929025315664
266,511.1410041095066
267,511.1683871595093
268,511.1945209604946
269,511.2227481254078
270,511.2566275352642
271,511.2998522173761
272,511.3561042875818
273,511.42883256734933
274,511.52095256669674
275,511.63449584776896
276,511.7702664734093
277,511.9275802198356
278,512.1041590872226
279,512.2962263167794
280,512.4987994249316
281,512.7061296404271
282,512.9122105106809
283,513.1112832251794
284,513.2982856278443
285,513.4692066857976
286,513.6213120269283
287,513.7532084069366
288,513.8647302580508
289,513.9566635148329
290,514.030360394678
291,514.0873302245199
292,514.1289046638339
293,514.156060632686
294,514.1694374192531
295,514.1695203576054
296,514.1569120839863
297,514.1325965238381
298,514.0981181330286
299,514.0556318719757
300,514.0078154578898
301,513.9576681469371
302,513.908241660331
303,513.8623551384665
304,513.8223402276294
305,513.7898467033857
306,513.765718171612
307,513.7499345662933
308,513.7416212970476
309,513.7391345106003
310,513.7402324138124
311,513.7423289255578
312,513.7428068425982
313,513.7393554920315
314,513.7302952874783
315,513.714852984167
316,513.6933540974052
317,513.6673045667626
318,513.6393410856573
319,513.613036077716
320,513.5925533204518
321,513.5821746394565
322,513.5857596753305
323,513.6062385990846
324,513.645242099205
325,513.7029382376769
326,513.7780899228115
327,513.8682889752276
328,513.9702825241347
329,514.0803042566293
330,514.1943577475918
331,514.3084500366828
332,514.4188105501144
333,514.5221290486634
334,514.6158078042416
335,514.6981801535976
336,514.7686338530721
337,514.8275985219749
338,514.876391909734
339,514.9169482200202
340,514.9514688097913
341,514.9820490218286
342,515.0103469407184
343,515.0373653745132
344,515.0634095665096
345,515.0882475401668
346,515.1114358635017
347,515.132711026816
348,515.1523260241856
349,515.1712395579171
350,515.1911137608407
351,515.2141238995695
352,515.2426257689458
353,515.2787511301459
354,515.323994012062
355,515.3788277611405
356,515.4423900543189
357,515.5122947156891
358,515.5846422832567
359,515.6542792298064
360,515.7153009935381
361,515.7617302309875
362,515.7882615259489
363,515.7909644895511
364,515.7678599377771
365,515.71929837922
366,515.6480782467565
367,515.5592700694006
368,515.4597682137772
369,515.3576457369429
370,515.2614097496709
371,515.1792436801392
372,515.1183045460218
373,515.0841351178875
374,515.0802432216
375,515.1078809367542
376,515.1660294934474
377,515.2515703291172
378,515.359602859735
379,515.4838577470351
380,515.6171538160387
381,515.7518592672335
382,515.8803411591437
383,515.9954089090567
384,516.0907597756866
385,516.1614126503417
386,516.2040897336086
387,516.2174953544975
388,516.2024488221747
389,516.1618414197885
390,516.1003975457645
391,516.0242287134636
392,515.9401922595484
393,515.8551187082054
394,515.7750352290008
395,515.7045405066909
396,515.6464520521798
397,515.6017740930787
398,515.5699638107869
399,515.5494211029456
400,515.5380878289195
401,515.5340248862009
402,515.5358572844997
403,515.543033937863
404,515.5559082456533
405,515.5756767546895
406,515.6042100788841
407,515.643793960701
408,515.69679610878
409,515.7652882587331
410,515.8506620675032
411,515.953273510086
412,516.0721452809588
413,516.2047590820393
414,516.3469774254671
415,516.4931394447434
416,516.6363629970181
417,516.7690492121341
418,516.8835408167637
419,516.9728541217826
420,517.0313917507555
421,517.0555392918751
422,517.0440509965844
423,516.9981539623946
424,516.9213614176386
425,516.8190614594763
426,516.6979904600461
427,516.5656873955991
428,516.4299772944204
429,516.2984896483005
430,516.1782096934069
431,516.0750832150422
432,515.9937196472684
433,515.9372373351979
434,515.9072640142193
435,515.904062747598
436,515.9267286195209
437,515.9734080930787
438,516.0415124001362
439,516.1279039435452
440,516.2290315716137
441,516.340997097406
442,516.4595624599548
443,516.5801405568711
444,516.6978269157274
445,516.8075120939056
446,516.904078422772
447,516.982651692067
448,517.038863288721
449,517.0690848167211
450,517.070619778171
451,517.041859530909
452,516.9824155993144
453,516.8932268290545
454,516.7766272315365
455,516.6363633775102
456,516.4775565465391
457,516.3065924882652
458,516.1308971141741
459,515.9585518914877
460,515.7977335857242
461,515.656013414264
462,515.5396000402335
463,515.4526494128661
464,515.396779036442
465,515.3708946159772
466,515.3713654023766
467,515.3925092354499
468,515.4273032567708
469,515.4682159817272
470,515.5080432432586
471,515.5406301878402
472,515.5613865433528
473,515.5675455677688
474,515.5581626330375
475,515.5338922176088
476,515.4966223616614
477,515.44907420086
478,515.3944704884211
479,515.3363271063167
480,515.2783453131359
481,515.224330451035
482,515.1780679801897
483,515.1431296112318
484,515.1226163833026
485,515.1188560652269
486,515.133078335233
487,515.1651095963979
488,515.2131501197908
489,515.2736961455946
490,515.3416414049868
491,515.4105558259074
492,515.4731168160613
493,515.5216597154349
494,515.5488033516053
495,515.5480900421418
496,515.5145658491799
497,515.4452255641735
498,515.3392644638412
499,515.1981149205608
500,515.0252838897413
501,514.8260279022908
502,514.606907702908
503,514.3752691443088
504,514.1386994173874
505,513.9044988963395
506,513.6791929510347
507,513.4680982577496
508,513.2749638412682
509,513.1017281903818
510,512.948451568089
511,512.8134677427241
512,512.6937463374267
513,512.5853984366732
514,512.4842324443698
515,512.3862798835315
516,512.2882359294506
517,512.1877765855738
518,512.0837293807812
519,511.97609818459864
520,511.86596871815885
521,511.7553354631886
522,511.64688625556676
523,511.54375978152086
524,511.4492672891339
525,511.36656603017815
526,511.2982957143097
527,511.2462185981663
528,511.2109129702967
529,511.19155994601977
530,511.18585490935766
531,511.19007621624985
532,511.1993430213429
533,511.2080757044879
534,511.21063156872725
535,511.2020355783172
536,511.1786831962123
537,511.1388808854999
538,511.08311766780065
539,511.0140231438081
540,510.9360441265495
541,510.8549297385466
542,510.7771252491406
543,510.70914471888904
544,510.6569616085281
545,510.6254538597118
546,510.6179509561162
547,510.63592543474385
548,510.6788491177505
549,510.74421533027254
550,510.8277208509671
551,510.9235956989911
552,511.02505595375516
553,511.12483666239444
554,511.21574676665546
555,511.2911824255685
556,511.3455417009403
557,511.37450335613477
558,511.3751642028708
559,511.3460624437377
560,511.2871304272747
561,511.1996090209819
562,511.0859285408923
563,510.94954376881685
564,510.79471863313887
565,510.6262787211365
566,510.44936605512163
567,510.26923063925193
568,510.0910764455255
569,509.9199506280488
570,509.7606391961481
571,509.61753137616404
572,509.494444608793
573,509.3944366428869
574,509.3196360653928
575,509.2711002483089
576,509.24869216475696
577,509.2509684120297
578,509.27508108259394
579,509.31671443875365
580,509.3701055915297
581,509.4282198578795
582,509.4831390803226
583,509.5266628847856
584,509.5510395000324
585,509.54968403220784
586,509.5177465230196
587,509.45245082877227
588,509.3531983288548
589,509.22148406437327
590,509.0606938130242
591,508.875842010231
592,508.6732825468001
593,508.46038945276166
594,508.24518047690884
595,508.03586134125777
596,507.8402996179839
597,507.66547031973835
598,507.51692895473167
599,507.3983645511592
600,507.3112817126371
601,507.25486054064737
602,507.2260309158701
603,507.2197647173787
604,507.22955019915054
605,507.24798553356953
606,507.2674191396077
607,507.28057237612677
608,507.2811040647754
609,507.26410497172645
610,507.2265232113808
611,507.16750596613497
612,507.08860957177177
613,506.99380814105774
614,506.889245263708
615,506.7827209637395
616,506.68295964020604
617,506.5987439832618
618,506.5380269644698
619,506.5071487670534
620,506.5102723238652
621,506.54910571923585
622,506.6229224454696
623,506.72884204040116
624,506.86230029440435
625,507.0176239859636
626,507.1886339682168
627,507.3692209567906
628,507.5538483990764
629,507.7379332623915
630,507.9180611770032
631,508.0920245045893
632,508.25871777761563
633,508.41795446900113
634,508.5702664743168
635,508.71672132675764
636,508.85875746126527
637,508.9980092237567
638,509.1360889587825
639,509.2743230494269
640,509.41348350312535
641,509.5535814664832
642,509.69377861505495
643,509.83244204000755
644,509.967337068555
645,510.0959214159806
646,510.2156707294324
647,510.3243472284791
648,510.42014455433974
649,510.5017009266654
650,510.5680344217889
651,510.6184793686966
652,510.6526780689498
653,510.6706314964573
654,510.6727762477311
655,510.66004826997687
656,510.63390256734704
657,510.59627039248454
658,510.54945502597326
659,510.49599178671974
660,510.4385074938189
661,510.3795959714943
662,510.3216976668314
663,510.2669650502091
664,510.21711867703766
665,510.17332956742496
666,510.13617669845837
667,510.1057146173085
668,510.0816522130448
669,510.06360399870266
670,510.05134501949595
671,510.0449919129116
672,510.0450496112032
673,510.0522989878083
674,510.0675449683275
675,510.09128629063923
676,510.123392721389
677,510.1628716119543
678,510.2077743458818
679,510.2552489261661
680,510.30171206861894
681,510.34311199780154
682,510.3752707659627
683,510.39429744127654
684,510.3970361423704
685,510.381479353744
686,510.34706518542686
687,510.29479018222963
688,510.2270985569424
689,510.147554130758
690,510.06036126501084
691,509.9698540132006
692,509.880085576135
693,509.7946097811242
694,509.71647142565024
695,509.6483461242832
696,509.5927236261897
697,509.5520286506365
698,509.5286116876993
699,509.5245933532596
700,509.5415919806393
701,509.58039862974266
702,509.6406794355153
703,509.7207791422819
704,509.81768089418347
705,509.92715569640757
706,510.04410766356364
707,510.1630809345413
708,510.27884725653433
709,510.3869616996279
710,510.484177850949
711,510.5686527282615
712,510.6399244591489
713,510.6986929982542
714,510.7464731430901
715,510.78521586937006
716,510.81698975350065
717,510.8437733895706
718,510.8673592172501
719,510.8893394387792
720,510.91113968314585
721,510.93406972094516
722,510.9593603474318
723,510.9881579338283
724,511.0214655153852
725,511.06004408164614
726,511.1042998120613
727,511.1541788121618
728,511.20908444784817
729,511.26783475487645
730,511.3286863249294
731,511.3894529125638
732,511.4477293452382
733,511.50119743086583
734,511.5479582272498
735,511.5868217286279
736,511.6174939189827
737,511.64062170710514
738,511.65768194704117
739,511.6707340726158
740,511.6820899295735
741,511.6939722489744
742,511.7082300760032
743,511.7261632456318
744,511.7484823483904
745,511.77539675217025
746,511.8067901960362
747,511.8424237765723
748,511.8821072947494
749,511.9258009059587
750,511.9736384149746
751,512.0258862134551
752,512.0828605743552
753,512.1448239134154
754,512.2118753625856
755,512.2838469736944
756,512.3602141493354
757,512.4400324320472
758,512.5219277653418
759,512.604180403026
760,512.6849318313236
761,512.7625106260791
762,512.8358372297549
763,512.9048365007809
764,512.9707585865079
765,513.0362984383835
766,513.1054342052489
767,513.1829739735862
768,513.2738834772812
769,513.3825304548087
770,513.5119978921632
771,513.6635864735293
772,513.8365697666537
773,514.0282116115602
774,514.2340148134473
775,514.4481416756611
776,514.6639320277465
777,514.8744462412077
778,515.0729722205765
779,515.2534512199883
780,515.4108027610735
781,515.5411584830023
782,515.6420263380548
783,515.71239114873
784,515.7527336052576
785,515.7649421864882
786,515.7521102055775
787,515.7182420608401
788,515.6679175594945
789,515.6059644545082
790,515.5371671230317
791,515.4660133266849
792,515.3964750469979
793,515.3318359007235
794,515.2745955295952
795,515.2264782819354
796,515.1885440920477
797,515.161358870229
798,515.1451548263251
799,515.1399168647956
800,515.1453739441075
801,515.1609349394039
802,515.1856447365755
803,515.2182183007327
804,515.257155122696
805,515.3008866806849
806,515.3478937285802
807,515.3967515104589
808,515.446104326028
809,515.4946106684016
810,515.5409139594275
811,515.5836755522377
812,515.6216699752096
813,515.6539118045754
814,515.6797748023571
815,515.6990755227098
816,515.7121154629752
817,515.7196943788452
818,515.7231087997777
819,515.7241341486424
820,515.7249717930183
821,515.7281379090183
822,515.7362823625028
823,515.7519459932694
824,515.7772828107285
825,515.813786554636
826,515.8620701720041
827,515.9217432130383
828,515.9914064857383
829,516.0687461148076
830,516.1506863202792
831,516.2335711857843
832,516.3133859435474
833,516.3860641328805
834,516.4479152035697
835,516.4961373159921
836,516.5292975660203
837,516.5476326491945
838,516.553070464477
839,516.5489620706686
840,516.5395922060269
841,516.5295767317302
842,516.5232577786525
843,516.5241894126857
844,516.5347797897645
845,516.5561181048356
846,516.5879717005665
847,516.6289120236299
848,516.6765278064544
849,516.7276932675246
850,516.7788606674245
851,516.8263451286788
852,516.8665791750888
853,516.8963344036031
854,516.9129213286657
855,516.9143695090805
856,516.8995620736916
857,516.8682778699789
858,516.8211056765891
859,516.7592381194605
860,516.6842059434998
861,516.5976473303523
862,516.5011989366315
863,516.396542239855
864,516.2855658008017
865,516.1705501404277
866,516.0542724865717
867,515.9399626375902
868,515.8310977443908
869,515.7310735683202
870,515.6428117608909
871,515.5683620008647
872,515.5085566912132
873,515.4627842176471
874,515.4289502779078
875,515.4036717126528
876,515.3826851957814
877,515.3613810364884
878,515.3353400823427
879,515.3007835326788
880,515.2549086713665
881,515.1961209936258
882,515.1241663927347
883,515.0401502568209
884,514.9464407587683
885,514.8464864298383
886,514.7445960439577
887,514.6457082229426
888,514.5551393428638
889,514.4782825128657
890,514.4202505246101
891,514.385486153179
892,514.3773753697666
893,514.3978922076575
894,514.4472982771812
895,514.5239260913308
896,514.6240852053683
897,514.7421323270912
898,514.8707344512595
899,515.0013244284689
900,515.124708341413
901,515.2317519352692
902,515.3140629444965
903,515.3645959845331
904,515.378124614061
905,515.3515409246951
906,515.2839586141397
907,515.1766203911171
