acceleration,velocity,displacement
-0.03271435391763102,0.0,0.0
-0.03225175544899834,-3.248305468331468e-05,-1.624152734165734e-08
-0.031842641807183714,-6.453025331140571e-05,-6.474818133901754e-08
-0.03152532360040013,-9.621423601519763e-05,-1.451204260023192e-07
-0.03130962030041426,-0.00012763170796560483,-2.570433979927204e-07
-0.03116737644455009,-0.000158870206338087,-4.0029435514456636e-07
-0.031028620319236932,-0.00018996820471998052,-5.747135606736001e-07
-0.030784397275733417,-0.00022087471351746568,-7.801350197923232e-07
-0.030296104879824415,-0.0002514149645952446,-1.0162798588486784e-06
-0.02941003848030269,-0.00028126803627530816,-1.2826213592839548e-06
-0.02797514525782799,-0.0003099606281443735,-1.5782356914937956e-06
-0.02586164083217353,-0.00033687902118937425,-1.9016555161606694e-06
-0.022978011803904647,-0.00036129884750741334,-2.250744450509063e-06
-0.01928400932231758,-0.00038242985807052446,-2.622608803298032e-06
-0.014797675283828356,-0.0003994707003735974,-3.013559082520093e-06
-0.009595286529617697,-0.00041166718128032045,-3.419128023347052e-06
-0.0038041977320443536,-0.00041836692341115146,-3.834145075692788e-06
0.0024103427063359977,-0.00041906385092400564,-4.2528604628603664e-06
0.008862465513984969,-0.00041342744681384516,-4.669106111729292e-06
0.015364601351895407,-0.00040131391338090497,-5.076476791826667e-06
0.021745486134381445,-0.00038275886963776655,-5.468513183336002e-06
0.027864948583392418,-0.0003579536522788796,-5.838869444294325e-06
0.03362385282228954,-0.0003272092515760386,-6.181450896221784e-06
0.03896856713173333,-0.0002909130415990272,-6.490512042809317e-06
0.04389034966479675,-0.00024948358320076215,-6.760710355209212e-06
0.04842074237033514,-0.0002033280371831962,-6.987116165401191e-06
0.05262432019508393,-0.00015280550590048668,-7.165182936943033e-06
0.056590075817104464,-9.819830789439247e-05,-7.290684843840472e-06
0.060422490291944346,-3.969202483986807e-05,-7.359630010207603e-06
0.06423302532380552,2.263573296800687e-05,-7.368158156143533e-06
0.06813245639261731,8.881847382621828e-05,-7.312431052746421e-06
0.07222423759972083,0.00015899682082238733,-7.188523405422118e-06
0.07659898545215381,0.00023340843234832465,-6.9923207788367616e-06
0.0813301851053493,0.0003123730176270762,-6.719430053849061e-06
0.08647121793556291,0.00039627371914753226,-6.3651066854617565e-06
0.09205355092464776,0.00048553610357763763,-5.924201774099171e-06
0.09808551259952297,0.000580605635339723,-5.391130904640491e-06
0.1045510094413477,0.0006819238963601584,-4.75986613879055e-06
0.11140809497845104,0.0007899034485700577,-4.023952466325442e-06
0.11858812497803978,0.0009049015585483032,-3.1765499627662613e-06
0.12599665274690883,0.0010271939474107775,-2.210502209786721e-06
0.13351690150067783,0.0011569507245345707,-1.1184298738140467e-06
0.14101584995793898,0.001294217100263879,1.0715403858517815e-07
0.1483523086257918,0.0014389011795557444,1.47371317849499e-06
0.1553862903037561,0.0015907704790205184,2.9885490077831216e-06
0.16198925603141684,0.0017494582521881048,4.658663373387433e-06
0.16805473589977013,0.0019144802481536982,6.490632623558334e-06
0.17350810000213232,0.0020852616661046494,8.490503580687507e-06
0.17831355675012978,0.0022611724944807806,1.0663720660980221e-05
0.18247669198616875,0.00244156761884893,1.3015090717645076e-05
0.18604209200276925,0.002625827010843399,1.5548788032491242e-05
0.18908700385772334,0.002813391558773645,1.8268397317299763e-05
0.1917127836183284,0.003003791452511671,2.117698882294242e-05
0.19403581074291948,0.003196665749692295,2.4277217424044404e-05
0.19617876889706945,0.003391773039512289,2.7571436818646695e-05
0.19826221916225642,0.003588993533541952,3.1061820105173814e-05
0.20039596977279228,0.0037883226280094762,3.475047818594953e-05
0.20267025872579025,0.003989855742258767,3.863956737108365e-05
0.2051476818857561,0.00419376471256454,4.27313775984953e-05
0.20785716654958233,0.00440026713678221,4.702839352316867e-05
0.21079081730569257,0.004609591128709847,5.1533322655914705e-05
0.21390372410729963,0.004821938399416343,5.62490874199778e-05
0.21711642582410184,0.005037448474382044,6.117878085687699e-05
0.2203197128235274,0.005256166543705859,6.632558836592094e-05
0.22338151487097593,0.00547801715755311,7.169268021655042e-05
0.2261555137043692,0.005702785671840783,7.728308163124737e-05
0.2284909415757322,0.0059301088994808335,8.309952891690818e-05
0.23024304027610348,0.006159475890406751,8.914432131185197e-05
0.23128379847748098,0.006390239309783543,9.541917891194712e-05
0.23151249063566273,0.0066216374543401155,0.00010192511729400895
0.2308651369367717,0.006852826268126333,0.00010866234915524218
0.22932170943573615,0.007082919691312587,0.00011563022213496163
0.2269100867965141,0.007311035589428712,0.00012282719977533229
0.22370626828375237,0.007536343766968845,0.00013025088945353106
0.2198307904310495,0.007758112296326246,0.0001378981174851786
0.21544148379167724,0.00797574843343761,0.00014576504785006054
0.21072286129790632,0.008188830605982403,0.00015384733736977055
0.20587277320174457,0.008397128423232227,0.00016214031688437786
0.20108747579275754,0.008600608547729479,0.00017063918536985872
0.19654672986954785,0.008799425650560631,0.0001793392024690038
0.19240072446771775,0.008993899377729264,0.00018823586498314872
0.18876036691727416,0.00918447992342176,0.00019732505463372423
0.18569188058488872,0.00937170604717284,0.00020660314761902153
0.18321592174427462,0.009556159948337422,0.00021606708061677667
0.18131068095162808,0.009738423249685374,0.00022571437221578807
0.17991777594005107,0.009919037478131214,0.00023554310257969637
0.17894943553696419,0.010098471083869721,0.0002455518568606968
0.178295763178435,0.010277093683227422,0.00025573963924424537
0.1778316822600836,0.01045515740594668,0.0002661057647888324
0.17742405198192737,0.010632785273067685,0.00027664973612833956
0.17693984116494482,0.010809967219641121,0.00028737111237469394
0.17625588021556832,0.010986565080331377,0.0002982693785246802
0.1752697132517916,0.011162327877065057,0.0003093438250033784
0.17390990955802715,0.011336917688469967,0.00032059344778614593
0.1721435555892595,0.01150994442104361,0.0003320168788409027
0.16997907865940062,0.011681005738167941,0.0003436123539205085
0.16746386630942922,0.011849727210652356,0.0003553777203949186
0.16467740295039307,0.012015797845282268,0.0003673104829228859
0.16172106828314323,0.012178997080899036,0.00037940788038597653
0.15870559371150716,0.01233921041189636,0.0003916669841323742
0.15573733430514713,0.012496431875904688,0.00040408480527627473
0.15290521643840302,0.012650753151276463,0.0004166583977898653
0.15027070662473727,0.012802341112808032,0.0004293849449219076
0.14786264207793265,0.012951407787159367,0.0004422618193718913
0.14567739286091716,0.013098177804628791,0.0004552866121677854
0.14368341520586483,0.013242858208662183,0.0004684571301744309
0.1418284693661694,0.0133856141509482,0.0004817713663542361
0.14004767866952175,0.013526552224966047,0.0004952274495421932
0.1382709469497585,0.013665711537775687,0.0005088235814235641
0.13642883019708676,0.01380306142634911,0.0005225579679056265
0.13445666627074596,0.013938504174583028,0.0005364287507060926
0.13229741617907073,0.014071881215807935,0.0005504339434012881
0.12990397231845482,0.014202981910056698,0.0005645713749642204
0.1272415378628062,0.01433155466514733,0.0005788386432518224
0.12429030717230231,0.014457320587664883,0.0005932330808782285
0.12104832730023507,0.014579989904901152,0.0006077517361245115
0.1175340924010751,0.014699281114751807,0.000622391371634338
0.1137880517784956,0.014814942186841592,0.0006371484832851347
0.10987195037833325,0.014926772187920006,0.0006520193404725155
0.10586508165442111,0.015034640703936383,0.0006670000469184437
0.10185725161064055,0.015138501870568914,0.0006820866182056963
0.09793926094623408,0.015238400126847351,0.0006972750692044045
0.09419253182016843,0.015334466023230553,0.0007125615022794434
0.090679819163207,0.015426902198722241,0.0007279421863904198
0.08743873842102719,0.015515961477514358,0.0007434136182285381
0.08447927392285087,0.015601920483686298,0.0007589725592091384
0.08178564359145196,0.015685052942443448,0.0007746160459222033
0.07932197452550396,0.015765606751501925,0.000790341375769176
0.07704040933891342,0.015843787943434134,0.000806146073116644
0.07488986180843606,0.01591975307900781,0.000822027843627865
0.07282380893479375,0.015993609914379425,0.0008379845251245586
0.07080601174912067,0.016065424824721383,0.000854014042494109
0.06881357987767689,0.01613523462053478,0.0008701143722167371
0.06683723224572244,0.01620306002659648,0.0008862835195403027
0.06487902419188822,0.016268918154815286,0.0009025195086310086
0.06294820113155453,0.016332831767477008,0.0009188203835921548
0.06105606512379539,0.016394833900604682,0.0009351842164261956
0.05921075801848201,0.01645496731217582,0.0009516091170325858
0.05741281395457279,0.01651327909816235,0.0009680932402377549
0.05565227473576007,0.016569811642507516,0.0009846347856080897
0.053907928510600875,0.016624591744130696,0.0010012319873014088
0.05214880188861826,0.016677620109330306,0.0010178830932281392
0.05033771365471193,0.01672886336710197,0.0010345863349663553
0.04843658834885659,0.016778250518103756,0.0010513398919089582
0.04641294911422542,0.016825675286835297,0.0010681418548114277
0.0442463774927855,0.016871004950138803,0.0010849901949299147
0.04193328577252803,0.01691409478177146,0.00110188274479587
0.03948875113890863,0.01695480580022718,0.0011188171950868692
0.03694531762443748,0.016993022834608854,0.0011357911094042872
0.03434980282648999,0.017028670394834317,0.0011528019560190087
0.031759541020986534,0.017061725066758057,0.0011698471537498049
0.029239067400366924,0.017092224370968735,0.0011869241284686682
0.02685748025557348,0.017120272644796704,0.001204030376976551
0.024686139622646826,0.017146044454735814,0.0012211635355263172
0.022796119736850987,0.017169785584415564,0.0012383214505458928
0.021254789936672243,0.017191811039252325,0.0012555022488577267
0.020121010314986153,0.017212498939378155,0.001272704403847042
0.019438788984272107,0.017232278839027785,0.001289926792736245
0.019229829487155774,0.017251613148263498,0.0013071687387298907
0.01948604265431078,0.01727097108433423,0.0013244300308461895
0.020163679602314955,0.017290795945462543,0.0013417109143610878
0.021181030311118447,0.01731146830041926,0.0013590120464840286
0.022421239240045705,0.01733326943519484,0.0013763344153518357
0.02374064050548627,0.017356350375067605,0.001393679225256967
0.024981650822447393,0.017380711520731573,0.0014110477562048666
0.025988369565839636,0.017406196530925715,0.0014284412102306954
0.02662280745389418,0.017432502119435582,0.001445860559555876
0.026779719344882394,0.01745920338283497,0.0014633064123070114
0.026397981414153664,0.01748579223321449,0.0014807789101150362
0.025466528398627022,0.01751172448812088,0.001498277668475704
0.02402361562689922,0.017536469560133643,0.0015158017654998313
0.022149692331960763,0.017559556214113075,0.0015333497783869545
0.01995577391358832,0.01758060894723585,0.001550919860967629
0.01757003735120649,0.017599371852868247,0.001568509851367681
0.015125170405569719,0.017615719456746635,0.0015861173970224884
0.012748104598775447,0.017629656094248807,0.001603740084797986
0.010552679105248116,0.01764130648610082,0.001621375566088161
0.008634976794926797,0.017650900314050907,0.0016390216694882368
0.00707072064818547,0.017658753162772465,0.0016566764962266485
0.005914027988388595,0.017665245537090753,0.00167433849557658
0.005196789295920262,0.01767080094573291,0.0016920065188179918
0.004928110352614152,0.017675863395557177,0.001709679850988637
0.00509383060418953,0.01768087436603558,0.0017273582198694334
0.005656855770999283,0.017686249709223174,0.0017450417819070629
0.006559325077345695,0.017692357799647347,0.001762731085661498
0.0077271462415496985,0.017699501035306795,0.0017804270150789752
0.009076474021881121,0.017707902845438512,0.0017981307170193478
0.010520947594330558,0.017717701556246617,0.0018158435192201904
0.01197838028755175,0.01772895122018756,0.0018335668456084075
0.013376009324928849,0.0177416284149938,0.0018513021354259983
0.014653937280202962,0.017755643388296365,0.0018690507713276434
0.015766699948404905,0.01777085370691067,0.001886814019875247
0.016682960800138598,0.01778707853728494,0.0019045929859973448
0.017383403618401884,0.01780411171949421,0.0019223885811257345
0.017857219346852707,0.01782173203097684,0.00194020150300097
0.018098116481634875,0.017839709698891083,0.001958032223865904
0.01810113968281576,0.01785780932697331,0.001975880983378836
0.017861374688203722,0.017875790584158818,0.0019937477833344023
0.017374884582670534,0.017893408713794256,0.0020116323829833787
0.016641387575763177,0.017910416849873472,0.0020295342957652126
0.015667641025303755,0.017926571364174006,0.002047452789872236
0.014470357392726119,0.01794164036338302,0.0020653868957360147
0.013077726547053883,0.01795541440535291,0.0020833354231203824
0.011529185658555926,0.017967717861455717,0.002101296989253787
0.009873676004079358,0.017978419292287034,0.002119270057830658
0.008166818376843465,0.017987439539477495,0.0021372529872465402
0.006467112545717997,0.017994756504938775,0.0021552440852687484
0.004830858264843409,0.018000405490344058,0.00217324166626639
0.0033055892442056803,0.018004473714098582,0.0021912441058686114
0.0019225781325490857,0.01800708779778696,0.002209249886624554
0.000689962232344131,0.018008394067969405,0.002227257627557432
-0.0004115039994074845,0.018008533297085873,0.0022452660912399597
-0.0014285536261345623,0.018007613268273104,0.002263274164522639
-0.002430990133985626,0.018005683496393043,0.002281280812904972
-0.0035035106968930993,0.018002716245977605,0.0022992850127761576
-0.0047352414043239505,0.017998596869926997,0.00231728566933411
-0.006208666505733804,0.017993124915971968,0.0023352815302270596
-0.007989529305711587,0.017986025818066246,0.0023532711055940787
-0.010119079549218339,0.017976971513638782,0.002371252604259931
-0.012609776354151859,0.017965607085687098,0.002389223893559594
-0.015445120949694014,0.017951579637035173,0.0024071824869209553
-0.01858363816049455,0.01793456525748008,0.002425125559368213
-0.021966214493433278,0.017914290331153115,0.0024430499871625298
-0.025525236905367815,0.017890544605453713,0.0024609524046308334
-0.029193602133231227,0.017863185185934414,0.0024788292695265275
-0.032911913550350544,0.017832132428092624,0.002496676928333541
-0.03663289031101593,0.017797360026161942,0.002514491674560668
-0.04032276882639254,0.01775888219659324,0.0025322697956720454
-0.0439600350474878,0.017716740794656297,0.0025500076071676703
-0.04753222634812585,0.01767099466395849,0.0025677014748969776
-0.05103179895832047,0.017621712651305268,0.0025853478285546095
-0.05445206015513598,0.01756897072174854,0.002602943170241136
-0.05778397585720875,0.017512852703742365,0.002620484081953882
-0.061014496646955,0.017453453467490283,0.002637967235039498
-0.06412687483331854,0.017390882781750147,0.002655389403164118
-0.06710307094859953,0.01732526780885919,0.0026727474784594227
-0.06992773884780437,0.017256752403960986,0.002690038488565833
-0.07259257942044568,0.01718549224482686,0.002707259610890227
-0.0750993589120451,0.017111646275660614,0.0027244081801504707
-0.07746006913901672,0.017035366561635082,0.0027414816865691184
-0.07969374825811809,0.016956789652936514,0.0027584777646764043
-0.08182083602119278,0.016876032360796857,0.002775394175683271
-0.0838568045323995,0.01679319354052006,0.0027922287886339293
-0.08580687759501886,0.016708361699456352,0.0028089795662539175
-0.08766312795139705,0.016621626696683146,0.0028256445604519873
-0.08940445068102539,0.016533092907366934,0.0028422219202540126
-0.09099912656445974,0.016442891118744193,0.002858709912267068
-0.09240909608375192,0.01635118700742009,0.00287510695133015
-0.09359482337788788,0.016258185047689267,0.002891411637357705
-0.0945198405539992,0.016164127715723325,0.002907622793739411
-0.09515453913261068,0.01606929052588002,0.0029237395028602125
-0.09547912771257401,0.015973973692457427,0.002939761134969381
-0.09548574404060028,0.01587849125658084,0.0029556873674439
-0.09517966595087336,0.015783158551585106,0.0029715181923479833
-0.09457959564091128,0.015688278920789212,0.0029872539110841704
-0.09371708982743907,0.015594130578055037,0.0030028951158335925
-0.0926352660257646,0.015500954400128435,0.003018442658322684
-0.09138688036413466,0.015408943326933485,0.003033897607186215
-0.09003174342391237,0.015318234015039461,0.0030492611958572017
-0.0886332406844206,0.015228901522985295,0.003064534763626214
-0.08725364835131157,0.01514095807846743,0.0030797196934269407
-0.08594830700690691,0.015054357100788321,0.003094817351016569
-0.08475953075277981,0.014969003181908478,0.003109829031157917
-0.08371182395270947,0.014884767504555732,0.003124755916501149
-0.0828098822803584,0.014801506651439198,0.0031395990535791466
-0.08203986416021207,0.014719081778218913,0.0031543593477939757
-0.08137318713563294,0.014637375252570991,0.003169037576309371
-0.08077154026520905,0.014556302888870571,0.0031836344153800917
-0.08019221425122391,0.014475821011612355,0.003198150477330333
-0.07959358635211342,0.014395928111310687,0.0032125863518917947
-0.07894075358587074,0.014316660941341694,0.003226942646418121
-0.07821076803175864,0.01423808518053288,0.003241220019479058
-0.07739642590364441,0.014160281583565177,0.003255419202861107
-0.07650768176053338,0.014083329529733088,0.003269541008417756
-0.07557031682828838,0.014007290530438676,0.003283586318447842
-0.07462206484490544,0.01393219433960208,0.0032975560608828627
-0.07370689685222623,0.013858029858753514,0.0033114511729820406
-0.072868569875212,0.013784742125389795,0.0033252725589741124
-0.07214461564436214,0.013712235532630008,0.0033390210478031223
-0.07156154494930363,0.013640382452333174,0.003352697356795604
-0.07113148287622126,0.013569035938420411,0.0033663020659909807
-0.07085019100516307,0.013498045101479719,0.0033798356065109308
-0.07069648940144567,0.013427271761276414,0.003393298264942309
-0.07063309649382779,0.013356606968328778,0.0034066902043071116
-0.07060874356118343,0.013285986048301272,0.0034200115008154266
-0.07056132005721033,0.013215401016492075,0.0034332621943478233
-0.07042183633356118,0.013144909438296689,0.003446442349575218
-0.07011902042193788,0.01307463900991894,0.0034595521237993257
-0.06958441444238044,0.01300478729248678,0.0034725918369505285
-0.06875799751020664,0.012935616086510487,0.003485562038640027
-0.0675945125639749,0.012867439831473397,0.0034984635665990193
-0.06607051283516643,0.012800607318773825,0.003511297590174143
-0.0641914716469804,0.012735476326532751,0.0035240656319967963
-0.06199732746823414,0.012672381926975144,0.0035367695611235503
-0.059564202659602834,0.012611601161911226,0.0035494115526679935
-0.057000303898698396,0.012553318908632075,0.0035619940127032653
-0.0544352060754213,0.012497601153645016,0.0035745194727344037
-0.052003467164221856,0.012444381817025195,0.0035869904642197386
-0.04982537068730425,0.012393467398099432,0.0035994093888273007
-0.047988963407168767,0.012344560231052196,0.0036117784026418764
-0.04653773688212162,0.012297296880907551,0.0036240993311978565
-0.045466946270311746,0.012251294539331334,0.003636373626907976
-0.044729136912159434,0.012206196497740098,0.003648602372426512
-0.04424696812190478,0.012161708445223065,0.0036607863248979936
-0.04392974795448337,0.012117620087184871,0.0036729259891641977
-0.04368964927833075,0.012073810388568465,0.003685021704402074
-0.04345442682605784,0.012030238350516271,0.0036970737287716163
-0.04317517864397862,0.011986923547781253,0.003709082309720765
-0.04282941155790779,0.011943921252680309,0.0037210477321209957
-0.0424206232713276,0.011901296235265691,0.0037329703408649686
-0.0419756851086215,0.011859098081075716,0.003744850538023139
-0.0415408443741894,0.01181733981633431,0.0037566887569718444
-0.041176557340033004,0.011775981115477199,0.00376848541743775
-0.040950937557848496,0.011734917368028258,0.0037802408666795027
