frame_number,force
0,677.8018200000558
1,677.6982898796837
2,677.5989240110163
3,677.5077267977846
4,677.4284175389098
5,677.3643331358604
6,677.3183168153272
7,677.2925559199523
8,677.2883700555909
9,677.305993542701
10,677.344415769633
11,677.4013281044687
12,677.4731884517595
13,677.5553815270376
14,677.642446618911
15,677.728364222583
16,677.8069131232616
17,677.8721056362186
18,677.9186848206624
19,677.9426441934928
20,677.9417128865165
21,677.9157327761268
22,677.8668506464425
23,677.7994735356987
24,677.7199787464314
25,677.6362073003854
26,677.5567960927817
27,677.4904301265375
28,677.445118485735
29,677.4275983232362
30,677.4429423467368
31,677.4943963254804
32,677.5834196743681
33,677.7098613895488
34,677.8721904991618
35,678.0677177559479
36,678.292779467901
37,678.5428828758675
38,678.8128243247186
39,679.0967951801806
40,679.3884962477509
41,679.681285119795
42,679.9683753117165
43,680.2430940047803
44,680.4991897452846
45,680.7311599630775
46,680.934546431729
47,681.1061440511722
48,681.2440964380041
49,681.3478968662923
50,681.4183469400281
51,681.4575287492723
52,681.4688149219636
53,681.4568843765784
54,681.4276590247993
55,681.388069099677
56,681.3456097070298
57,681.307739901669
58,681.281245839825
59,681.2717046920707
60,681.2831422929111
61,681.3179031106423
62,681.37668787528
63,681.4586860792737
64,681.5617373143014
65,681.6824904016606
66,681.8165768544371
67,681.9588448555616
68,682.1036927143823
69,682.24550902721
70,682.3791929428287
71,682.5006985011524
72,682.6075186082746
73,682.6990053200495
74,682.776431915707
75,682.8427448496217
76,682.9020208347885
77,682.9587184348433
78,683.0168639755709
79,683.0793112632714
80,683.1471757749727
81,683.2195059811223
82,683.2932343749384
83,683.363435052306
84,683.4238859844596
85,683.4678846139968
86,683.4892026853885
87,683.4830172561707
88,683.4466486402127
89,683.3799801921301
90,683.2855104525153
91,683.1680608691131
92,683.0342053750724
93,682.8915043138699
94,682.7476389305546
95,682.6095670107965
96,682.4828389880375
97,682.371196796526
98,682.2765119769201
99,682.1990285431004
100,682.1378065255975
101,682.0912441855822
102,682.0575812137913
103,682.0353202217326
104,682.0235264756545
105,682.021974826495
106,682.0311232737938
107,682.0519192794432
108,682.0854846925578
109,682.1327572821074
110,682.1941719211854
111,682.2694398885167
112,682.3574462595055
113,682.4562572555072
114,682.5632256088334
115,682.6751906607757
116,682.7887661763854
117,682.9006869909986
118,683.0081655759215
119,683.1092073799272
120,683.2028433400403
121,683.2892481513795
122,683.3697215942838
123,683.4465201704319
124,683.5225450662865
125,683.6009275929193
126,683.6845934344135
127,683.7759025978418
128,683.8764339143429
129,683.9869238214894
130,684.1073148336918
131,684.2368509248981
132,684.3741766554288
133,684.5174299800091
134,684.6643419551312
135,684.812362174353
136,684.9588195964762
137,685.1011130258864
138,685.2369125368202
139,685.3643443555077
140,685.4821271787
141,685.5896339929739
142,685.6868707743799
143,685.7743771326291
144,685.853056453252
145,685.9239503908799
146,685.9879952004509
147,686.0458159989536
148,686.0976084085723
149,686.143132641497
150,686.1818203857172
151,686.2129716273439
152,686.235995640934
153,686.2506394096563
154,686.2571587695999
155,686.256416030845
156,686.2499127014011
157,686.2397737229495
158,686.2286941055573
159,686.2198491771248
160,686.216759430412
161,686.2230932070081
162,686.2423904700057
163,686.2777040084316
164,686.331183444946
165,686.4036627062867
166,686.4943309020309
167,686.6005572029799
168,686.7179121996404
169,686.8403983881025
170,686.9608755885835
171,687.0716389560239
172,687.1650817916192
173,687.2343629506223
174,687.2739985475024
175,687.2803035802594
176,687.2516288792447
177,687.1883841609398
178,687.0928944327893
179,686.9691658526941
180,686.8226157242756
181,686.6597718962673
182,686.4879165575846
183,686.3146622275204
184,686.1474840752884
185,685.9932581981534
186,685.8578584764344
187,685.7458548065797
188,685.6603372758892
189,685.6028612679581
190,685.5734788557697
191,685.5708155078701
192,685.5921732930871
193,685.6336696242906
194,685.6904314687557
195,685.7568580734923
196,685.826949596807
197,685.8946790158419
198,685.9543674672973
199,686.0010231735944
200,686.030624379795
201,686.0403472198237
202,686.028740610635
203,685.9958374291489
204,685.9431797874477
205,685.8737297606228
206,685.7916365476277
207,685.7018486938125
208,685.6096028953021
209,685.5198707163966
210,685.4368671700761
211,685.3637032316217
212,685.3022125902334
213,685.2529299989754
214,685.2151685417454
215,685.1871527698233
216,685.1662098711553
217,685.1490621880312
218,685.1322563279749
219,685.1127038246696
220,685.0882356271359
221,685.0580338525438
222,685.0228223800138
223,684.9847626168648
224,684.9470791650999
225,684.9135013197088
226,684.8876348226457
227,684.8723708175329
228,684.8694059079191
229,684.8789143323194
230,684.8994009529948
231,684.9277655683379
232,684.9596033597904
233,684.9897399722735
234,685.012953355766
235,685.0247799631899
236,685.0222638833055
237,685.0045075021342
238,684.9729232184732
239,684.9311471471813
240,684.8846356870762
241,684.8400118755549
242,684.8042563556163
243,684.7838519135576
244,684.7839972724422
245,684.8080014389958
246,684.8569445404394
247,684.9296429899861
248,685.022894606645
249,685.1319187274587
250,685.2508719973628
251,685.3733348717286
252,685.4927215161961
253,685.6026296349021
254,685.6971780060333
255,685.7713656808953
256,685.8214439107913
257,685.8452496306743
258,685.8424322620765
259,685.81451980557
260,685.7648036199747
261,685.6980553847352
262,685.6201129370716
263,685.5373836483604
264,685.4563189613885
265,685.3829135620197
266,685.3222761023811
267,685.2783029691193
268,685.2534651578899
269,685.248703350203
270,685.2634276285764
271,685.2956277397883
272,685.342099419203
273,685.3987749525012
274,685.4611204488888
275,685.5245427467403
276,685.5847469360829
277,685.6380037721284
278,685.6813178799722
279,685.7125197952522
280,685.7303203884164
281,685.7343524320178
282,685.7251908275988
283,685.7043189401062
284,685.6740114927093
285,685.6371293886348
286,685.5968529489517
287,685.5563999761717
288,685.5187741887983
289,685.4865770007607
290,685.4619044014522
291,685.4463373190263
292,685.4410121651446
293,685.446738708208
294,685.4641256886568
295,685.4936738396634
296,685.5357951495489
297,685.5907298990122
298,685.6583724889531
299,685.73806401798
300,685.8284220864357
301,685.9272445412377
302,686.0314841764634
303,686.1372876348495
304,686.24011339867
305,686.3349492953239
306,686.416625287542
307,686.4801856048141
308,686.5212687942293
309,686.5364466697145
310,686.5234845764771
311,686.4815022190573
312,686.411037390161
313,686.3140375194331
314,686.1938093052605
315,686.0549347475791
316,685.9031248701491
317,685.7449589419155
318,685.587469530404
319,685.4375777492745
320,685.3014311661526
321,685.1837297472928
322,685.087146688013
323,685.011961428447
324,684.9560033975525
325,684.91495015387
326,684.8829549349734
327,684.8535194510667
328,684.8204806896179
329,684.7789451829059
330,684.7259961143493
331,684.6610378202104
332,684.5857286533808
333,684.5035583981802
334,684.419208911209
335,684.3378663123174
336,684.2646271359802
337,684.2040804867692
338,684.1600788673793
339,684.1356503508681
340,684.1329737191099
341,684.153353127879
342,684.1971766853342
343,684.2638801679425
344,684.3519356982728
345,684.4588657761493
346,684.5812794091989
347,684.7149390752464
348,684.854871103206
349,684.9955277800776
350,685.1310208435639
351,685.2554664792224
352,685.3634652641846
353,685.4506695676256
354,685.5143156200891
355,685.5535784121217
356,685.5696540547121
357,685.5655517693036
358,685.5456484303243
359,685.5151026274265
360,685.4792406931267
361,685.4430215930219
362,685.4106658980967
363,685.3854951086535
364,685.3699754549895
365,685.3659116359034
366,685.374707836197
367,685.3976071367288
368,685.4358264504538
369,685.4905231026036
370,685.5625764035194
371,685.6522442051136
372,685.7588235930359
373,685.8804552412748
374,686.0141484435859
375,686.1560107226873
376,686.3016023190484
377,686.4463252918213
378,686.5857790153472
379,686.716043010538
380,686.8338746160122
381,686.9368255944073
382,687.0232835618516
383,687.092444105161
384,687.1442331831171
385,687.1792156187207
386,687.1985184625368
387,687.203767404193
388,687.1970087974252
389,687.1805900579956
390,687.1569900196581
391,687.1286121622869
392,687.097572018826
393,687.0655232219033
394,687.0335654128043
395,687.0022545957213
396,686.9716992608608
397,686.941694708153
398,686.9118466976971
399,686.8816655701278
400,686.8506441987242
401,686.8183382667828
402,686.7844506406195
403,686.748909650641
404,686.7119343041873
405,686.6740867750116
406,686.6363124612169
407,686.5999571523248
408,686.5667341469539
409,686.5386072144132
410,686.5175710517689
411,686.5053401331757
412,686.502981947335
413,686.5105498069679
414,686.5267881700031
415,686.5489913902646
416,686.5730818103947
417,686.593934447617
418,686.6059248631003
419,686.6036264642883
420,686.5825430375487
421,686.5397434071128
422,686.4742783009334
423,686.3873025946554
424,686.281882375112
425,686.1625189858518
426,686.0344677058298
427,685.9029684530618
428,685.7725282379058
429,685.6463785785186
430,685.5261740155604
431,685.4119320405283
432,685.3021764123316
433,685.1942424062029
434,685.0847163426008
435,684.969989653743
436,684.8468914058445
437,684.7133205065937
438,684.5687543430854
439,684.4145021250383
440,684.2536165600189
441,684.0904572249889
442,683.9299774201912
443,683.7768632341504
444,683.6346853519419
445,683.5052246414027
446,683.3880955012835
447,683.280727997924
448,683.1787050417366
449,683.0763961976477
450,682.9677825332603
451,682.8473317884261
452,682.7107759045347
453,682.5556678750131
454,682.3816369404196
455,682.1903077220128
456,681.9849009235767
457,681.7695885117249
458,681.5487226636094
459,681.3260876717699
460,681.1043333908349
461,680.8847239908416
462,680.6672665429536
463,680.4511871828344
464,680.2356340848411
465,680.0204353107272
466,679.8067369095056
467,679.5973842068354
468,679.39696526486
469,679.2114944632546
470,679.0477768579328
471,678.9125594284225
472,678.8116240721462
473,678.7489861869636
474,678.7263303081295
475,678.7427603967354
476,678.7948896646933
477,678.8772553669339
478,678.9830120653348
479,679.1048136915737
480,679.2357391344141
481,679.3700836650819
482,679.5038651657417
483,679.634971080884
484,679.7629582655542
485,679.8885813917823
486,680.0131577924036
487,680.137882727909
488,680.2631973444128
489,680.3882912965158
490,680.5108049470247
491,680.6267884108429
492,680.730963727471
493,680.8172985637515
494,680.8798284564815
495,680.9135838243169
496,680.9154296554723
497,680.8846421943068
498,680.8231252691991
499,680.7352678919467
500,680.6275138262004
501,680.5077320245407
502,680.3844626417887
503,680.2660976548217
504,680.1600561170925
505,680.0720332685579
506,680.0054222263192
507,679.9609981346147
508,679.9369125999879
509,679.928999665419
510,679.9313640851822
511,679.9371946813689
512,679.9397041272574
513,679.9330569196684
514,679.9131388175466
515,679.878050458888
516,679.8282572216959
517,679.7663792195934
518,679.6966563079578
519,679.6241742119821
520,679.5539825275766
521,679.4902597565185
522,679.4356728322936
523,679.3910359686705
524,679.3553066068937
525,679.3258851353531
526,679.2991319730777
527,679.2709965857938
528,679.2376656098792
529,679.196156394527
530,679.1447854665277
531,679.0834366409756
532,679.0135686122293
533,678.9379498720745
534,678.8601717854789
535,678.7840384164421
536,678.712950144136
537,678.64939187047
538,678.5946117694264
539,678.5485349517708
540,678.5099033938981
541,678.476582170135
542,678.4459406438409
543,678.4152190868739
544,678.381823155376
545,678.3435310242088
546,678.2986277968442
547,678.2459895223247
548,678.1851331398894
549,678.1162417615373
550,678.0401707145519
551,677.9584367067978
552,677.8731889466951
553,677.7871552907337
554,677.7035506746405
555,677.6259386689666
556,677.5580526841452
557,677.5035965042865
558,677.4660385389928
559,677.4483952392434
560,677.4529886859804
561,677.4811755430552
562,677.5330724966153
563,677.6073312013427
564,677.7010293588445
565,677.8097328990726
566,677.9277483806776
567,678.0485423900104
568,678.1652761443388
569,678.2713949026142
570,678.3612156429921
571,678.430463180534
572,678.476710047877
573,678.4996778073302
574,678.5013552033046
575,678.4858851935486
576,678.4591850283991
577,678.4283068730398
578,678.4006115174087
579,678.3828827824756
580,678.3805283814982
581,678.3969906499866
582,678.4334428979457
583,678.488790700573
584,678.5599421906238
585,678.6422668279824
586,678.7301401826878
587,678.8174812042521
588,678.8982238399543
589,678.9667070696182
590,679.0179958900358
591,679.0481569958544
592,679.0545151709567
593,679.0359126608497
594,678.9929789956466
595,678.9283864247784
596,678.8470182744064
597,678.755939044548
598,678.6640655107997
599,678.581510727147
600,678.5186726268265
601,678.4852125604996
602,678.4890870792028
603,678.5357670468431
604,678.6277330565185
605,678.764295379604
606,678.9417427195144
607,679.1537720420114
608,679.3921144617124
609,679.647267006511
610,679.9092512299505
611,680.1683288412778
612,680.4156179242722
613,680.643579615732
614,680.8463759925554
615,681.0201208044859
616,681.1630432924708
617,681.2755575738659
618,681.3601980454546
619,681.4213829066459
620,681.4650094619983
621,681.497930830036
622,681.5273833240335
623,681.5604276212131
624,681.6034490846519
625,681.661745804092
626,681.7392247262014
627,681.838223418378
628,681.9594662443343
629,682.1021432790973
630,682.2640751794435
631,682.4419128477107
632,682.6313299293938
633,682.8271984955227
634,683.0237767857193
635,683.2149572681682
636,683.3946067913125
637,683.5569842478783
638,683.6971713765116
639,683.811431347025
640,683.8974337921561
641,683.9543339947023
642,683.9827279145761
643,683.9845099312093
644,683.9626562482252
645,683.9209567537296
646,683.8637168153003
647,683.7954514381821
648,683.720606129026
649,683.6433482594026
650,683.5674552827966
651,683.4962851115214
652,683.4327819878432
653,683.3794715799712
654,683.338422843128
655,683.3111782710228
656,683.2986667695168
657,683.3011157351357
658,683.3179739953111
659,683.3478481315472
660,683.388449795983
661,683.4365618599492
662,683.4880570899893
663,683.5380253891543
664,683.5810579162181
665,683.6116941425057
666,683.6249868060917
667,683.6171057324826
668,683.585888203475
669,683.5312470982617
670,683.4553720641015
671,683.3627000969551
672,683.2596685938832
673,683.154278435211
674,683.055495813813
675,682.9725318597569
676,682.9140647369775
677,682.8874923175927
678,682.8983054962292
679,682.9496504914383
680,683.0421118458806
681,683.1737066037352
682,683.3400509835603
683,683.5346617864353
684,683.7493815186352
685,683.9749381211338
686,684.2016400277498
687,684.4201642984643
688,684.6223411774752
689,684.8018029471477
690,684.9543724335022
691,685.0781206875711
692,685.1731068855609
693,685.2408955501686
694,685.2839948802686
695,685.3053591767468
696,685.3080520886585
697,685.295095045562
698,685.2694619065469
699,685.2341588553456
700,685.1923414500363
701,685.1474300704381
702,685.1031714863536
703,685.0635788781912
704,685.032696372821
705,685.0141846312035
706,685.0107928960199
707,685.0238438339641
708,685.0528860223569
709,685.095643798688
710,685.148313857552
711,685.2061538811334
712,685.2642222463021
713,685.3180850695704
714,685.3643224142
715,685.4007436072313
716,685.4263319998156
717,685.4410213656305
718,685.4454195534927
719,685.440554899907
720,685.4276688517491
721,685.4080422482208
722,685.3828346110632
723,685.3529367853852
724,685.3188687734998
725,685.2807674505978
726,685.2384916517536
727,685.1918361641058
728,685.140807428237
729,685.0858865575308
730,685.0282042829205
731,684.9695804596913
732,684.9124190191258
733,684.8594765002802
734,684.8135382592692
735,684.7770504656374
736,684.7517636942356
737,684.7384353296635
738,684.7366201962564
739,684.7445709492591
740,684.7592768861398
741,684.7766743667379
742,684.792044785825
743,684.8005765187667
744,684.7980188480112
745,684.7813157836232
746,684.7490955433196
747,684.7019197459562
748,684.6422557171275
749,684.574197198378
750,684.5029972906893
751,684.4344887101852
752,684.3744622600249
753,684.3280604556181
754,684.2992195821224
755,684.2901732297358
756,684.3010316135783
757,684.3294728029013
758,684.3706086225117
759,684.4171083945268
760,684.4596700442283
761,684.48790031784
762,684.4915777835995
763,684.4621334829401
764,684.3940649182055
765,684.2859788700273
766,684.1410492379592
767,683.9668205854077
768,683.774420234676
769,683.5773257739265
770,683.3898675791677
771,683.2256489022019
772,683.0960650967482
773,683.0091029594454
774,682.9685838986217
775,682.9739640402839
776,683.0207149030632
777,683.1011900534988
778,683.2057738891531
779,683.3240634022271
780,683.4458782121668
781,683.5619971662417
782,683.6646240931885
783,683.7476506916346
784,683.8067990847502
785,683.8397031129304
786,683.8459550284476
787,683.8271224388933
788,683.7867241899528
789,683.7301346366077
790,683.6643690105304
791,683.59769707453
792,683.5390432121098
793,683.497170449483
794,683.4797213605517
795,683.492274709929
796,683.5376215294982
797,683.6154371569233
798,683.7224390780308
799,683.8530085266495
800,684.0001478613669
801,684.1565694902005
802,684.31568557668
803,684.4723034949067
804,684.6229226338085
805,684.7656424164493
806,684.8997885666146
807,685.0254117349484
808,685.1427981880959
809,685.252078185695
810,685.3529667086051
811,685.4446484252205
812,685.5258116378538
813,685.5948204731557
814,685.6499894748395
815,685.6899064351998
816,685.7137445890171
817,685.7215078196298
818,685.7141600358431
819,685.6936089427511
820,685.6625490497814
821,685.6242107978186
822,685.5820919428139
823,685.5397424702211
824,685.5006316094583
825,685.4680676302366
826,685.4451017930302
827,685.4343485346293
828,685.4376940008727
829,685.455924011592
830,685.4883493871981
831,685.5325178870233
832,685.5840811657678
833,685.6368576198563
834,685.6831163510519
835,685.7140987566831
836,685.7207753214799
837,685.6947941909896
838,685.6295191664209
839,685.5209996325436
840,685.3686935346573
841,685.1757989247981
842,684.9491353189043
843,684.6986142153628
844,684.4363992049402
845,684.1758634307845
846,683.9304365765179
847,683.7124348328675
848,683.5319847799675
849,683.3961533311835
850,683.3083685193526
851,683.2681788422739
852,683.2713669684987
853,683.3104062934001
854,683.3752232701313
855,683.4541997887605
856,683.5353151519433
857,683.6072959350806
858,683.6606280737735
859,683.6882961858563
860,683.6861562539415
861,683.6529207798382
862,683.5898210163168
863,683.5000717522973
864,683.3882747561472
865,683.2598631162116
866,683.1206361349747
867,682.976387033022
868,682.8325971298353
869,682.6941657319318
870,682.5651606430928
871,682.4485946211058
872,682.3462424638776
873,682.2585121387867
874,682.1843840316651
875,682.121438971071
876,682.0659980718264
877,682.0133865795306
878,681.9583127612657
879,681.8953310054227
880,681.8193419116652
881,681.7260720061136
882,681.6124723476568
883,681.476983872968
884,681.3196419356271
885,681.1420260074727
886,680.9470877989183
887,680.7389022532951
888,680.5223826926738
889,680.3029916852123
890,680.0864661814472
891,679.8785556860248
892,679.6847491613228
893,679.5099584224698
894,679.3581491827026
895,679.2319579784903
896,679.1323762224619
897,679.0585967618434
898,679.0080961964798
899,678.9769740701022
900,678.9605009950225
901,678.9537645364778
902,678.952275067455
903,678.9524216192291
904,678.9517325103543
905,678.9489563418779
906,678.9440108602439
907,678.9378543158598
908,678.9323245036271
909,678.9299672671008
910,678.9338523229469
911,678.9473678157493
912,678.9739926186635
913,679.0170474991367
914,679.0794196503144
915,679.1632606652838
916,679.2696869327478
917,679.3985383837387
