frame_number,force
0,618.0965000000543
1,618.2401149066134
2,618.3777567945011
3,618.5039254777822
4,618.6140038553641
5,618.704579190355
6,618.773684832741
7,618.8209834830582
8,618.8479043245366
9,618.8577260989224
10,618.8555743190734
11,618.8482840529512
12,618.8440777814051
13,618.8520227061641
14,618.8812662002082
15,618.9401032058483
16,619.0349910830663
17,619.1696648811034
18,619.3444975897637
19,619.5562052048032
20,619.7979451338097
21,620.0598159908152
22,620.3297249226204
23,620.594528301461
24,620.8412897034204
25,621.058474707084
26,621.2369287013687
27,621.3705391782127
28,621.456539797327
29,621.4954579751267
30,621.4907473563921
31,621.4481898029004
32,621.3751855515934
33,621.2800493489508
34,621.1713926539397
35,621.0576258121388
36,620.9465839754548
37,620.8452634220996
38,620.7596386538593
39,620.6945186985898
40,620.6534039988212
41,620.6383228234973
42,620.6496520247877
43,620.6859577734576
44,620.7439211815648
45,620.8184287325965
46,620.9028955495222
47,620.9898430820716
48,621.0716780465883
49,621.1415458816352
50,621.1940984116318
51,621.2260398555223
52,621.2363806660976
53,621.2263970981098
54,621.1993382212632
55,621.1599405991442
56,621.1138155396063
57,621.0667708565122
58,621.0241240325432
59,620.9900659973279
60,620.9671458341361
61,620.9559535962889
62,620.9550659641425
63,620.9612839490036
64,620.9701405891656
65,620.9766015034094
66,620.9758363924169
67,620.9639210511949
68,620.9383493592636
69,620.8982892650624
70,620.8445804534458
71,620.7795149409809
72,620.7064596213199
73,620.6293880338477
74,620.5523974038222
75,620.4792898963566
76,620.4132871081581
77,620.3569236414785
78,620.3121286074679
79,620.2804550576683
80,620.2633663640438
81,620.2624518651293
82,620.2794470377781
83,620.3159974262916
84,620.373213116265
85,620.4511535172923
86,620.5484098118218
87,620.6619091755427
88,620.7869860555367
89,620.9176957940455
90,621.0473052282973
91,621.1688791197304
92,621.2758839663653
93,621.362745943312
94,621.4253115690574
95,621.4611567081542
96,621.4696863482017
97,621.4519953923538
98,621.410529834218
99,621.3486640354721
100,621.270337089806
101,621.1798428361499
102,621.0817734635062
103,620.9810343187537
104,620.8828195308552
105,620.7924694085109
106,620.715195272045
107,620.6557152624433
108,620.6178662362254
109,620.6042461902423
110,620.6159280380834
111,620.6522855162057
112,620.7109708729786
113,620.7880622472472
114,620.8783634813207
115,620.9758157503021
116,621.0739789563274
117,621.1665481508694
118,621.2478710123946
119,621.3134242795048
120,621.3601975520394
121,621.3869316558965
122,621.3941716944195
123,621.3841220164348
124,621.3603255612982
125,621.3272201030779
126,621.2896365329883
127,621.2523015788273
128,621.2193991195275
129,621.1942307892085
130,621.1789937236655
131,621.1746712345677
132,621.1810302885589
133,621.196737983311
134,621.219619030539
135,621.247049717854
136,621.2764286922229
137,621.3056236171833
138,621.3333019756367
139,621.3591036568182
140,621.3836560134934
141,621.4084429217061
142,621.4355385719166
143,621.4672336809966
144,621.5056142754386
145,621.5521754619139
146,621.6075485679628
147,621.6713955323074
148,621.7424925000557
149,621.8189898289064
150,621.8987976683107
151,621.9800126045113
152,622.0612875503525
153,622.1420649706397
154,622.2226385734122
155,622.3040601017332
156,622.3879384718028
157,622.4761782014581
158,622.5706904954557
159,622.6731038820042
160,622.7844995908263
161,622.9051872161415
162,623.0345248498323
163,623.1707976079391
164,623.3112007222003
165,623.451989919317
166,623.588825102716
167,623.7172588309372
168,623.8332661078617
169,623.9337119150592
170,624.0166909340569
171,624.0817142291664
172,624.1297422469548
173,624.1630731037482
174,624.1850971421363
175,624.1999321809271
176,624.2119657622833
177,624.2253496003784
178,624.2435076979222
179,624.2687249204789
180,624.3018757996409
181,624.3423349462792
182,624.3880804274844
183,624.4359617969998
184,624.4820676792615
185,624.5221174042085
186,624.5518287412376
187,624.5672567449506
188,624.565120457408
189,624.5431230118203
190,624.5002431599892
191,624.4369522662519
192,624.3553026191062
193,624.2588474536259
194,624.1523842722904
195,624.0415401570835
196,623.9322304704039
197,623.8300364270547
198,623.7395781233627
199,623.6639952904002
200,623.6046573409877
201,623.5611844613455
202,623.5317779907779
203,623.5137679867827
204,623.504231496661
205,623.5005328427213
206,623.5006758193027
207,623.5034182765444
208,623.5081645965932
209,623.5147067941697
210,623.5229213485566
211,623.5325331760822
212,623.5430140627701
213,623.5536035235797
214,623.5633802041715
215,623.5713175033648
216,623.5763138195653
217,623.5772397425345
218,623.5730517785879
219,623.5629884301244
220,623.5468172528198
221,623.5250617474776
222,623.4991143646785
223,623.4711493956564
224,623.4438002809217
225,623.4196534635785
226,623.4006995702571
227,623.3879208249475
228,623.3811495675951
229,623.3792279664107
230,623.3803960083148
231,623.3827848909201
232,623.3849007779029
233,623.3860179842248
234,623.3864259242898
235,623.3874816061956
236,623.3914311554912
237,623.4010027725958
238,623.4188335539033
239,623.4468463760967
240,623.485717314331
241,623.534560114475
242,623.5909082693406
243,623.6510145084216
244,623.7104256693092
245,623.764730122613
246,623.8103225968274
247,623.8450131299395
248,623.8683447130129
249,623.8815665235287
250,623.8872993278533
251,623.8889943847863
252,623.8903131769905
253,623.8945444873799
254,623.9041439004445
255,623.9204482183037
256,623.9435881059233
257,623.9725908060813
258,624.0056337544592
259,624.0403874890063
260,624.0743737291637
261,624.1052632375315
262,624.1310558350729
263,624.1501236753404
264,624.1611455516747
265,624.1629952943824
266,624.1546579599567
267,624.1352308447732
268,624.1040289637305
269,624.0607684834615
270,624.005761579649
271,623.9400389603297
272,623.865333596393
273,623.7839081558188
274,623.6982675819726
275,623.6108336443689
276,623.5236501368793
277,623.4381526685613
278,623.3550090121921
279,623.2740243414722
280,623.194103210347
281,623.1132729642245
282,623.0288052791565
283,622.9374941706521
284,622.8361203931037
285,622.7220555027784
286,622.5938828600837
287,622.4518875517487
288,622.298304472878
289,622.1372864338111
290,621.9746199906331
291,621.8172481360106
292,621.6726590178213
293,621.5481913809571
294,621.4503097394488
295,621.3839174186023
296,621.351790348887
297,621.3542137584743
298,621.3888842501799
299,621.451106601968
300,621.5342704051568
301,621.6305414766722
302,621.7316664979421
303,621.8297831384483
304,621.9181435183532
305,621.9916804837824
306,622.0473737665649
307,622.084406189804
308,622.10412211621
309,622.1098019871961
310,622.106264448697
311,622.0993195111679
312,622.0951181693937
313,622.0994619826861
314,622.1171478086926
315,622.1514331271447
316,622.2037102127674
317,622.2734544327719
318,622.3584573166536
319,622.4552917621894
320,622.5599152158986
321,622.6683053425162
322,622.7770280751661
323,622.8836474097134
324,622.9869039321733
325,623.0866268795036
326,623.1834038064527
327,623.2780974213803
328,623.3713449081346
329,623.4631763408273
330,623.5528412749217
331,623.6388597827431
332,623.7192483897871
333,623.7918315318913
334,623.8545390441698
335,623.9056082015501
336,623.9436527854842
337,623.9676198676465
338,623.9766972653995
339,623.9702333862119
340,623.9476975005122
341,623.9086829314189
342,623.8529571587038
343,623.7805723108547
344,623.6920462544548
345,623.5886057444327
346,623.4724477860084
347,623.3469297833433
348,623.2165777406497
349,623.0868396323111
350,622.9635963735825
351,622.8525262072052
352,622.7584569519782
353,622.6848226791249
354,622.633289281763
355,622.6035675248679
356,622.5934150161845
357,622.5988264929346
358,622.614401503753
359,622.633857986415
360,622.6506421377546
361,622.658574677083
362,622.6524692984832
363,622.6286622580383
364,622.5854024218866
365,622.5230625849996
366,622.444145580972
367,622.3530803165552
368,622.2558304241002
369,622.159358449932
370,622.0710014281034
371,621.9978310772075
372,621.9460856227103
373,621.9207429620137
374,621.9252532326451
375,621.961398211577
376,622.0292292935009
377,622.1270562869531
378,622.2514970121845
379,622.3976297696396
380,622.5592933520469
381,622.7295434464987
382,622.9012200991226
383,623.067541939903
384,623.2226398742451
385,623.3619720457318
386,623.4826009609285
387,623.5833410548144
388,623.6647921578589
389,623.7292663683262
390,623.7806053618955
391,623.8238806044468
392,623.8649709535297
393,623.9100264606752
394,623.9648633215261
395,624.0343804557677
396,624.1221067095723
397,624.2299601671689
398,624.3582488757753
399,624.5058927836513
400,624.6708047696272
401,624.850338263508
402,625.0417053184186
403,625.2422922725814
404,625.4498292214621
405,625.662390948713
406,625.878229851512
407,626.0954801309608
408,626.3118225385101
409,626.5242340905968
410,626.728938913586
411,626.9216145840367
412,627.0978130913297
413,627.2534719915765
414,627.3853631264878
415,627.4913687925444
416,627.5705636496675
417,627.6231595194828
418,627.6503917496183
419,627.654389046686
420,627.6380159961471
421,627.604654035258
422,627.5579052524776
423,627.5012443460552
424,627.4376819562415
425,627.369523314573
426,627.2982999496793
427,627.2249101252876
428,627.1499325084058
429,627.0740087692113
430,626.9981635274594
431,626.9239620878506
432,626.853479323115
433,626.7891212648244
434,626.7333656245922
435,626.6884713491617
436,626.6561850172548
437,626.6374676995358
438,626.6322780932776
439,626.6394634648185
440,626.6568151506258
441,626.6813267590682
442,626.7096456516673
443,626.7386439858129
444,626.7659835456486
445,626.7905389281855
446,626.8125845203873
447,626.8337206670325
448,626.8565820620018
449,626.8844171321203
450,626.9206439823886
451,626.9684739049254
452,627.0306529077318
453,627.1093242623808
454,627.2059808883347
455,627.3214588421241
456,627.4559184857653
457,627.6087759615306
458,627.7785883623284
459,627.9629365422196
460,628.1583571878956
461,628.3603549300564
462,628.5635138031865
463,628.7617421446478
464,628.9486942074158
465,629.1183763480385
466,629.2658726192147
467,629.3880595577587
468,629.4841567177127
469,629.5559785843141
470,629.6078049324251
471,629.6458653830045
472,629.6775256775792
473,629.7103358694214
474,629.7511216809058
475,629.8052613285275
476,629.8762136811284
477,629.9652884449255
478,630.0716085198405
479,630.1922193957942
480,630.3223318472972
481,630.4557093030443
482,630.5852086571261
483,630.703451756029
484,630.8035587237312
485,630.879838851805
486,630.9283318063217
487,630.9471247764881
488,630.9364257604927
489,630.8984240602588
490,630.8369907583866
491,630.7572618508026
492,630.665130965
493,630.5666829573179
494,630.4676223836988
495,630.3727706395198
496,630.2857061926023
497,630.2086021422091
498,630.1422798251252
499,630.0864526617349
500,630.0400936257464
501,630.0018409480106
502,629.9703625629494
503,629.9446119844674
504,629.923918214124
505,629.9078764167643
506,629.8960576841307
507,629.8876219337862
508,629.8809693676532
509,629.8735779125416
510,629.8621341033274
511,629.8429800282489
512,629.8127951832497
513,629.7693423670258
514,629.7120637451122
515,629.6423417664038
516,629.563338411886
517,629.4794596533434
518,629.3956053414778
519,629.316409524864
520,629.2456388543209
521,629.1858323848129
522,629.1381871931686
523,629.1026453570073
524,629.0781161068057
525,629.0627654138941
526,629.0543116592075
527,629.0502664849514
528,629.0480643300989
529,629.0450583843669
530,629.0384244271977
531,629.025071480199
532,629.0016728994325
533,628.9648963977853
534,628.9118463177334
535,628.8406588795112
536,628.7511250927806
537,628.6451730304223
538,628.5270413485971
539,628.4030263236357
540,628.2807748602264
541,628.1682070674658
542,628.0722578001366
543,627.9976932181066
544,627.9462583002918
545,627.9163410249148
546,627.9032237359188
547,627.8998683140252
548,627.8980742217792
549,627.8897733739071
550,627.8682060164898
551,627.8287750445658
552,627.7694849055392
553,627.6909828292306
554,627.5962835839348
555,627.4902641947986
556,627.3789967167723
557,627.2689837611733
558,627.166377877639
559,627.0762811020443
560,627.0022154658682
561,626.9458258389221
562,626.9068379298752
563,626.8832620943273
564,626.871804685124
565,626.8684148557033
566,626.86886671089
567,626.8692761493626
568,626.8664842822731
569,626.8582838045695
570,626.8434939173617
571,626.8219006301892
572,626.7940915601448
573,626.7612352528638
574,626.7248669146184
575,626.6867258686127
576,626.6486493584572
577,626.61248708929
578,626.579984989857
579,626.5526043272831
580,626.531285136239
581,626.5162086852797
582,626.5066379171396
583,626.5009064835385
584,626.4965944829468
585,626.490889501209
586,626.4810962258854
587,626.465225813268
588,626.4425620770305
589,626.4140736580133
590,626.3825481657628
591,626.3523898662253
592,626.3291277963484
593,626.3187661331615
594,626.3271277629921
595,626.3593033937951
596,626.4192570734588
597,626.5095777946705
598,626.6313227437739
599,626.7838945499543
600,626.964940155407
601,627.1703186527878
602,627.3942103128983
603,627.6294135965962
604,627.867826358874
605,628.1010642189325
606,628.3211476996084
607,628.52118582865
608,628.6959869190803
609,628.8425336194446
610,628.9602717020515
611,629.0511794181912
612,629.1196005112457
613,629.1718346456006
614,629.2154870405096
615,629.2585966110931
616,629.3086008867184
617,629.371252372457
618,629.4496527516361
619,629.5435937986497
620,629.6493714280007
621,629.7601636717774
622,629.8669414025361
623,629.9597507418973
624,630.02912227023
625,630.0673514990285
626,630.0694477148444
627,630.0336393711244
628,629.9614250321072
629,629.8572419355374
630,629.7278735070181
631,629.5817271887669
632,629.4280865561202
633,629.2763945378093
634,629.1355869874036
635,629.0134847803312
636,628.9162609740373
637,628.8480085681908
638,628.810431201637
639,628.8026666116695
640,628.8212454797842
641,628.8601979691496
642,628.9113424323264
643,628.9648049437518
644,629.0098005888237
645,629.0356461997515
646,629.0328849172117
647,628.9943338569158
648,628.9158695718711
649,628.7968459186677
650,628.6401395751055
651,628.4518773163796
652,628.2409027760576
653,628.0180229885558
654,627.7950762259305
655,627.5838937505721
656,627.3952665987989
657,627.2380401237906
658,627.1184312878253
659,627.0396183151413
660,627.0016219061966
661,627.0014896619591
662,627.0337832270242
663,627.0913202109093
664,627.16604969448
665,627.249891313077
666,627.3353866395546
667,627.4160911648654
668,627.486728016311
669,627.5431854863074
670,627.5824508546323
671,627.6025385908495
672,627.6024200606278
673,627.5819328195607
674,627.5416572908291
675,627.4827778839601
676,627.4069612381984
677,627.3162724717945
678,627.2131281405592
679,627.1002720686515
680,626.9807504856972
681,626.8578456597569
682,626.7349240399575
683,626.6151897473729
684,626.5013856779228
685,626.3955094459047
686,626.2985991281744
687,626.2106161066596
688,626.1304311310921
689,626.0559121663176
690,625.9841112286109
691,625.911539437248
692,625.8345030627721
693,625.7494585149612
694,625.6533388203261
695,625.5438103777827
696,625.419436343275
697,625.27974374527
698,625.1252023399878
699,624.957124471281
700,624.7775010007039
701,624.5888020129637
702,624.3937775942237
703,624.1952843289008
704,623.9961454393265
705,623.7990386473715
706,623.6064031140646
707,623.4203663292385
708,623.2427044372724
709,623.0748527039299
710,622.9179717164747
711,622.7730507799323
712,622.6410030476644
713,622.5226993548035
714,622.4189111478594
715,622.3301698629829
716,622.2565768028082
717,622.1976095849185
718,622.1519727214536
719,622.1175293505153
720,622.0913326776137
721,622.0697626587985
722,622.048767297119
723,622.0241943866289
724,621.9921741819785
725,621.9494895770737
726,621.8938628316832
727,621.8241057855431
728,621.7401228369197
729,621.6428033007658
730,621.5338654126682
731,621.4157084303588
732,621.2913015155154
733,621.1641008725843
734,621.0379544168918
735,620.9169497087075
736,620.8051958535281
737,620.7065734010301
738,620.6244992791417
739,620.5617364064464
740,620.5202555819565
741,620.501144001232
742,620.5045493771507
743,620.5296505591656
744,620.5746543930729
745,620.6368285613239
746,620.7125828170208
747,620.7976038029663
748,620.8870367690573
749,620.975698088312
750,621.0583030948693
751,621.1297086131572
752,621.1851852520368
753,621.2207263649493
754,621.2333676172108
755,621.2214628238935
756,621.1848583618054
757,621.1249225773544
758,621.0444075076994
759,620.9471475420355
760,620.8376321773775
761,620.7205199891207
762,620.60017828785
763,620.4803297848267
764,620.3638631326991
765,620.2528267227348
766,620.148584257589
767,620.0520707749897
768,619.964057447383
769,619.8853323707485
770,619.8167443410985
771,619.7591181468824
772,619.7130961690019
773,619.678972487985
774,619.6565697832859
775,619.6451811862198
776,619.6435714151786
777,619.6500160094356
778,619.6623587859706
779,619.6780791892359
780,619.6943743254163
781,619.7082684932057
782,619.7167624322346
783,619.717027932757
784,619.7066422053249
785,619.6838370783887
786,619.6477187250882
787,619.5984135084011
788,619.5371134936124
789,619.4660059655431
790,619.3880674400285
791,619.3067079078385
792,619.2252826281557
793,619.1465349985532
794,619.0720724977639
795,619.0019933443806
796,618.9347652423041
797,618.8674066274968
798,618.7959492161664
799,618.7160970215537
800,618.6239618828492
801,618.5167496708187
802,618.3932889094929
803,618.2543322126878
804,618.1026142750843
805,617.9426997405645
806,617.7806775055537
807,617.6237491722131
808,617.4797363322842
809,617.3565159689693
810,617.2613958904278
811,617.2004644342244
812,617.1779845839208
813,617.1959355267136
814,617.2538106043579
815,617.3487398338258
816,617.4759238116997
817,617.6292842490697
818,617.8021987762171
819,617.9882017064426
820,618.1815697698393
821,618.3777447962514
822,618.5735700347503
823,618.7673390336546
824,618.9586727215495
825,619.1482490609618
826,619.3374223839819
827,619.5277946237209
828,619.7208206167525
829,619.9175189997006
830,620.1183176234126
831,620.3230123194037
832,620.5307893492186
833,620.740269041625
834,620.9495605662942
835,621.1563469432259
836,621.3580204362894
837,621.5518616440473
838,621.7352272055933
839,621.9057098488855
840,622.0612627820645
841,622.2003102719652
842,622.3218674066973
843,622.4256626461271
844,622.5122256349683
845,622.5828981334721
846,622.6397458725036
847,622.6853745118702
848,622.7226792581432
849,622.7545885978452
850,622.7838791922173
851,622.8131122466299
852,622.8446781604346
853,622.8808802611844
854,622.9239735368278
855,622.9760980441494
856,623.0390892175451
857,623.114190934907
858,623.2017329015218
859,623.3008620052716
860,623.4094343420686
861,623.5241596554665
862,623.6410230176102
863,623.7559075978181
864,623.8652605380095
865,623.9666232853011
866,624.0588903584744
867,624.1422400053457
868,624.2177632575026
869,624.2868854214755
870,624.3507265332237
871,624.4095780280169
872,624.462653851594
873,624.5081921854816
874,624.5438717076445
875,624.5674168325959
876,624.5772290764818
877,624.5728950930998
878,624.5554701739796
879,624.527497550365
880,624.4927769467207
881,624.455930153579
882,624.4218317457321
883,624.3949894487605
884,624.3789738261128
885,624.3760005257063
886,624.3867450051508
887,624.4104177398722
888,624.4450624910445
889,624.4879816163955
890,624.5361648438743
891,624.5866231245403
892,624.6365974909339
893,624.6836768327659
894,624.725876654736
895,624.7617046356188
896,624.7902011001098
897,624.8109283249353
898,624.82390553461
899,624.829525703014
900,624.828507933002
901,624.8219178839253
902,624.8112435109698
903,624.7984712087156
904,624.7860902432187
905,624.7769730914615
906,624.7741293528496
907,624.7803844261274
908,624.7980619858663
909,624.8287395599338
910,624.8731113818533
911,624.9309595312636
912,625.0012219267248
913,625.0821473842552
914,625.1715231952463
915,625.266940917912
916,625.3660458239648
