acceleration,velocity,displacement
-0.04295451018886749,0.0,0.0
-0.04271684181909775,-2.141783800199131e-05,-5.3544595004978275e-09
-0.042450378956372985,-4.2709643195858994e-05,-2.13863297999604e-08
-0.042155643415504325,-6.386114878882832e-05,-4.802902779613223e-08
-0.04183316219147503,-8.485835019057316e-05,-8.52089025409826e-08
-0.041483465069880716,-0.0001056875070059121,-1.328453668401039e-07
-0.04110708220960342,-0.00012633514382578314,-1.9085102954802772e-07
-0.04070454179254022,-0.00014678804982631906,-2.5913182796105325e-07
-0.040276367841827004,-0.00016703327723491086,-3.3758715972636073e-07
-0.039823078299316854,-0.00018705813877019681,-4.2611001372763766e-07
-0.03934518343726071,-0.00020685020420434122,-5.245870994712722e-07
-0.03884318466514452,-0.00022639729622994252,-6.328989745798432e-07
-0.038317573784829806,-0.00024568748584243613,-7.509201700979379e-07
-0.03776883274735127,-0.0002647090874754814,-8.785193134274173e-07
-0.037197433966685706,-0.00028345065415399067,-1.0155592488347853e-06
-0.03660384123918889,-0.00030190097295545933,-1.1618971556121477e-06
-0.035988511297670486,-0.00032004906108967416,-1.317384664123431e-06
-0.03535189599782498,-0.00033788416291354804,-1.4818679701242367e-06
-0.034694445099784206,-0.00035539574818795034,-1.6551879478996113e-06
-0.03401660958091313,-0.0003725735118581247,-1.83718026291113e-06
-0.03331884540454252,-0.0003894073756044886,-2.0276754847767835e-06
-0.032601617666470316,-0.00040588749137224184,-2.226499201520966e-06
-0.031865405035403374,-0.00042200424704771027,-2.433472136125954e-06
-0.031110704394391363,-0.000437748274405159,-2.6484102664891714e-06
-0.030338035586143258,-0.00045311045940029266,-2.8711249499405345e-06
-0.029547946172056222,-0.0004680819548398425,-3.1014230535005683e-06
-0.028741016131616882,-0.0004826541954157608,-3.339107091064469e-06
-0.027917862451309994,-0.0004968189150614925,-3.583975368683782e-06
-0.027079143575379595,-0.000510568166568165,-3.835822139091196e-06
-0.026225563707589876,-0.0005238943433889073,-4.094437766580464e-06
-0.025357876955176804,-0.000536790203554599,-4.359608903316341e-06
-0.024476891287441,-0.0005492488956152534,-4.631118678108804e-06
-0.02358347224433089,-0.0005612639864981964,-4.908746898637166e-06
-0.022678546289865827,-0.0005728294911317456,-5.192270268044652e-06
-0.021763103683694506,-0.0005839399036251357,-5.481462616733872e-06
-0.020838200755442696,-0.00059459022973492,-5.776095150073886e-06
-0.01990496150519025,-0.0006047760203000783,-6.075936712582636e-06
-0.018964578497657553,-0.0006144934053007902,-6.380754068982853e-06
-0.018018313045688503,-0.0006237391281866268,-6.690312202354707e-06
-0.01706749468425771,-0.0006325105801191133,-7.004374629431142e-06
-0.016113519929276055,-0.0006408058337724967,-7.322703732904045e-06
-0.015157850307795468,-0.0006486236763317647,-7.64506111043011e-06
-0.014202009640394878,-0.0006559636413188123,-7.971207939842754e-06
-0.013247580550949678,-0.0006628260388666484,-8.30090535988912e-06
-0.012296200178844113,-0.0006692119840490968,-8.633914865618057e-06
-0.01134955508067685,-0.000675123422863977,-8.969998717346325e-06
-0.01040937532777006,-0.0006805631554660888,-9.308920361928841e-06
-0.009477427822277942,-0.0006855348562536008,-9.650444864858764e-06
-0.008555508865113299,-0.0006900430904254486,-9.994339351528526e-06
-0.007645436014710418,-0.0006940933266454045,-1.034037345579624e-05
-0.006749039275510936,-0.0006976919454679598,-1.0688319773824582e-05
-0.005868151651910411,-0.0007008462431998152,-1.1037954320991525e-05
-0.005004599105304014,-0.0007035644308891188,-1.1389056989513759e-05
-0.004160189960957984,-0.0007058556281556843,-1.174141200427496e-05
-0.003336703821456683,-0.0007077298516012879,-1.2094808374214203e-05
-0.0025358800513547676,-0.0007091979975694907,-1.2449040336506898e-05
-0.0017594059060724978,-0.0007102718190588475,-1.2803907790663982e-05
-0.001008904386346753,-0.0007109638966319523,-1.3159216719586682e-05
-0.000285921903873731,-0.0007112876032045074,-1.3514779594545798e-05
0.00040808415312284694,-0.0007112570626421951,-1.3870415761007473e-05
0.0010717578562367148,-0.0007108871021398553,-1.4225951802202985e-05
0.0017038570585476208,-0.0007101931984111592,-1.458122187734074e-05
0.002303265460339708,-0.0007091914177814373,-1.4936068031388888e-05
0.0028690042524556316,-0.0007078983503532385,-1.5290340473422558e-05
0.003400243155240057,-0.0007063310385013146,-1.5643897820636195e-05
0.0038963106724559477,-0.0007045069000443906,-1.599660730527262e-05
0.004356703391704542,-0.0007024436465283505,-1.6348344941915807e-05
0.004781094174083263,-0.0007001591971369035,-1.669899565283212e-05
0.005169339087889522,-0.0006976715888214103,-1.70484533493217e-05
0.005521482963033599,-0.0006949988833086795,-1.739662096735422e-05
0.005837763474616013,-0.0006921590716992671,-1.774341045610621e-05
0.006118613700109884,-0.0006891699774055856,-1.8088742718382422e-05
0.006364663130257298,-0.0006860491581979939,-1.8432547502283316e-05
0.0065767371416773825,-0.0006828138081300102,-1.8774763243865316e-05
0.006755854948849564,-0.0006794806601073785,-1.9115336860924662e-05
0.006903226043595658,-0.0006760658898592672,-1.9454223498416325e-05
0.007020245116878405,-0.0006725850220691487,-1.979138622639843e-05
0.007108485458900592,-0.0006690528394252039,-2.0126795691772016e-05
0.007169690851099006,-0.000665483295347704,-2.0460429725465245e-05
0.007205765983332402,-0.0006618894311390961,-2.0792272907086944e-05
0.007218765442887969,-0.0006582832982825411,-2.1122316089442352e-05
0.007210881335513708,-0.0006546758865879407,-2.145055588565997e-05
0.007184429617037549,-0.0006510770588498029,-2.1776994122019408e-05
0.0071418352302133874,-0.0006474954926379902,-2.2101637259891355e-05
0.007085616154130925,-0.0006439386297919041,-2.242449579049883e-05
0.00701836649097518,-0.0006404126341306276,-2.274558360647946e-05
0.006942738737542749,-0.0006369223578234981,-2.306491735446799e-05
0.006861425405565228,-0.0006334713167877211,-2.3382515773120794e-05
0.006777140158221801,-0.0006300616753967743,-2.3698399021166917e-05
0.006692598620828455,-0.0006266942407020117,-2.4012588000191614e-05
0.006610499005506956,-0.0006233684662954278,-2.4325103676940973e-05
0.006533502670737483,-0.0006200824658763668,-2.4635966409983922e-05
0.006464214731720711,-0.0006168330365257523,-2.4945195285584452e-05
0.006405164857893744,-0.0006136156916283486,-2.5252807467622976e-05
0.006358788433028431,-0.0006104247033056181,-2.5558817566356467e-05
0.006327408285160011,-0.0006072531541260709,-2.5863237030714388e-05
0.0063132171941171844,-0.0006040929977562516,-2.6166073568684968e-05
0.006318261356250039,-0.0006009351281186598,-2.6467330600153694e-05
0.006344424953414536,-0.0005977694565412437,-2.676700674631867e-05
0.0063934159554612695,-0.0005945849963140248,-2.7065095359532485e-05
0.006466753282448694,-0.0005913699540045472,-2.7361584097112126e-05
0.006565755454633646,-0.0005881118268202766,-2.7656454542318333e-05
0.006691530857874384,-0.0005847975052421496,-2.794968187533394e-05
0.006844969747184954,-0.0005814133800908848,-2.82412345966672e-05
0.007026738098175473,-0.0005779454531295447,-2.8531074304972306e-05
0.007237273390372315,-0.0005743794502574077,-2.8819155530819045e-05
0.007476782367884117,-0.0005707009363178436,-2.9105425627462857e-05
0.007745240777013047,-0.0005668954305316193,-2.938982471917522e-05
0.008042395037025973,-0.0005629485215781096,-2.9672285707202654e-05
0.008367765770539153,-0.0005588459813762182,-2.9952734332941237e-05
0.008720653107217804,-0.000554573876656779,-3.0231089297449486e-05
0.009100143668509485,-0.0005501186774628472,-3.0507262435979392e-05
0.00950511913048405,-0.0005454673617630988,-3.078115894578588e-05
0.009934266248061221,-0.0005406075154184624,-3.105267766508127e-05
0.010386088216124707,-0.0005355274268024159,-3.132171140063649e-05
0.010858917247513124,-0.0005302161754365065,-3.158814730119622e-05
0.01135092826154607,-0.0005246637140592417,-3.185186727357016e-05
0.011860153587085654,-0.0005188609435970838,-3.2112748437984236e-05
0.012384498577711293,-0.0005127997805558846,-3.2370663619022476e-05
0.012921758014326197,-0.0005064732164078751,-3.262548186826342e-05
0.01346963314754685,-0.0004998753686174069,-3.2877069014519736e-05
0.014025749223944154,-0.0004930015230245341,-3.312528823743022e-05
0.014587673351050871,-0.0004858481673807854,-3.337000066003155e-05
0.015152932577013317,-0.00047841301589876935,-3.3611065955851445e-05
0.015719032074765743,-0.0004706950247358246,-3.3848342966010096e-05
0.016283473314227484,-0.0004626943983885763,-3.408169032179119e-05
0.016843772078668644,-0.00045441258704035227,-3.431096706814842e-05
0.017397476143887952,-0.0004458522749847131,-3.453603328365469e-05
0.017942182406833918,-0.00043701736034703264,-3.475675069248763e-05
0.01847555323754036,-0.00042791292643593905,-3.497298326418337e-05
0.018995331842289694,-0.0004185452051659815,-3.518459779708385e-05
0.019499356465538343,-0.0004089215330890245,-3.53914644816476e-05
0.019985573315293513,-0.00039905030064381656,-3.559345744008081e-05
0.020452048158807936,-0.0003889408952752912,-3.579045523906059e-05
0.020896976588834253,-0.0003786036390883806,-3.59823413726515e-05
0.021318692996892836,-0.00036804972169194884,-3.616900471284659e-05
0.02171567831045606,-0.0003572911288651116,-3.6350339925485854e-05
0.022086566559890438,-0.00034634056764752495,-3.652624784961401e-05
0.02243015033610963,-0.0003352113884235249,-3.6696635838631776e-05
0.022745385177398235,-0.00032391750454514797,-3.686141806187394e-05
0.02303139288997834,-0.0003124733100283038,-3.7020515765517305e-05
0.0232874637761685,-0.0003008935958617671,-3.717385749198982e-05
0.023513057728526316,-0.0002891934654855934,-3.732137925732666e-05
0.0237078041521625,-0.00027738825001542123,-3.746302468620191e-05
0.023871500699209486,-0.0002654934238025782,-3.759874510465641e-05
0.024004110836806248,-0.00025352452091857426,-3.77284995908367e-05
0.02410576031903755,-0.0002414970531296133,-3.785225498434875e-05
0.024176732682888495,-0.0002294264298791318,-3.796998585510093e-05
0.024217463922752126,-0.00021732788072772164,-3.808167443275264e-05
0.024228536505568343,-0.00020521638062064154,-3.8187310498089736e-05
0.024210672872437507,-0.00019310657827614007,-3.828689123781393e-05
0.024164728548048384,-0.0001810127279210186,-3.838042106436322e-05
0.024091684959825253,-0.0001689486245440502,-3.846791140247949e-05
0.023992642054202654,-0.0001569275427905432,-3.854938044431314e-05
0.02386881078185159,-0.00014496217958152966,-3.862485287490616e-05
0.02372150550444927,-0.00013306460050995444,-3.869435956992903e-05
0.023552136352933916,-0.00012124619004560864,-3.8757937267567915e-05
0.023362201542757154,-0.00010951760557168587,-3.881562821647224e-05
0.023153279632081334,-9.788873527797625e-05,-3.8867479801684656e-05
0.0229270217026858,-8.636865994428447e-05,-3.891354415049022e-05
0.02268514345157539,-7.496561865571917e-05,-3.8953877720140226e-05
0.022429417195772777,-6.368697849388212e-05,-3.898854086942763e-05
0.022161663806307182,-5.2539208243362136e-05,-3.901759741611194e-05
0.021883744599147336,-4.1527856141998506e-05,-3.904111418220828e-05
0.021597553219497318,-3.065753168733734e-05,-3.905916052916561e-05
0.021305007556758935,-1.9931891493273276e-05,-3.9071807884960765e-05
0.02100804172115853,-9.353629173793909e-06,-3.907912926512753e-05
0.020708598107778847,1.0755307834404348e-06,-3.908119878972512e-05
0.020408619576357773,1.135483520447459e-05,-3.907809119822814e-05
0.020110041781352627,2.148450054390219e-05,-3.906988136429105e-05
0.019814785685271744,3.1465707410558284e-05,-3.9056643812302434e-05
0.019524750275686408,4.130059140079782e-05,-3.90384522375996e-05
0.01924180549253528,5.0992230342853246e-05,-3.9015379032163686e-05
0.018967785368359576,6.054462805807696e-05,-3.8987494817563454e-05
0.018704481388249154,6.996269474722914e-05,-3.895486798686213e-05
0.018453636080217176,7.925222411434573e-05,-3.891756425714673e-05
0.01821693684592105,8.841986734588028e-05,-3.887564623428167e-05
0.01799601003509755,9.747310406613493e-05,-3.882917299142867e-05
0.017792415257492592,0.00010642021038928247,-3.877819966281481e-05
0.017607639921931106,0.00011527022418413839,-3.8722777054171455e-05
0.01744309399733891,0.0001240329076639559,-3.866295127120943e-05
0.01730010499468399,0.00013271870741196162,-3.859876336744045e-05
0.017179913159750405,0.00014133871195057022,-3.853024901259982e-05
0.01708366684821158,0.00014990460695256071,-3.845743818287403e-05
0.017012418038886364,0.0001584286281743352,-3.8380354874092306e-05
0.01696711793606247,0.0001669235121680724,-3.8299016839006704e-05
0.01694861262127678,0.00017540244480740723,-3.821343534976283e-05
0.016957638741198728,0.0001838790076480261,-3.8123614986648975e-05
0.016994819254572798,0.00019236712214696898,-3.8029553454200226e-05
0.017060659293833966,0.00020088099178407068,-3.7931241425717464e-05
0.01715554222002851,0.0002094350421625363,-3.7828662417230813e-05
0.017279725965005148,0.0002180438592087947,-3.772179269188798e-05
0.017433339759117258,0.00022672212563982531,-3.7610601195675824e-05
0.017616381329192677,0.0002354845559119028,-3.749504952528789e-05
0.017828714626775478,0.00024434582990089484,-3.737509192883469e-05
0.018070068130091342,0.00025332052559011155,-3.7250675339961936e-05
0.01834003376681502,0.00026242305106433816,-3.7121739445798327e-05
0.018638066522061673,0.0002716675761365573,-3.69882167889981e-05
0.0189634848103559,0.0002810679639696617,-3.685003290397155e-05
0.019315471687995644,0.0002906377030942496,-3.670710648720557e-05
0.019693076960642045,0.000300389840256409,-3.65593496013679e-05
0.020095220205909294,0.00031033691454804686,-3.640666791266679e-05
0.020520694689592864,0.0003204908932719224,-3.62489609607118e-05
0.020968172112514616,0.00033086310997244926,-3.6086122459900706e-05
0.021436208087620763,0.00034146420502248313,-3.591804063115197e-05
0.021923248224199197,0.0003523040691004381,-3.574459856262124e-05
0.022427634703087108,0.00036339178983225967,-3.556567459788807e-05
0.022947613270856836,0.00037473560182574566,-3.538114274997357e-05
0.023481340646149814,0.0003863428403049973,-3.519087313944088e-05
0.024026892386216362,0.00039821989856308885,-3.4994732454723864e-05
0.024582271284122242,0.0004103721894806735,-3.4792584432712926e-05
0.025145416357678273,0.00042280411139112363,-3.458429035749498e-05
0.025714212463145855,0.00043551901859632965,-3.436970957499811e-05
0.02628650053042198,0.0004485191968447216,-3.414870002113785e-05
0.02686008837638364,0.00046180584407142303,-3.392111876090881e-05
0.027432762017468797,0.0004753790566698861,-3.368682253572348e-05
0.028002297380461727,0.0004892378215193687,-3.3445668316176166e-05
0.028566472300393237,0.0005033800139395824,-3.3197513857311425e-05
0.029123078687163025,0.0005178024016864716,-3.294221825340491e-05
0.02966993473430884,0.0005325006550418396,-3.267964248922283e-05
0.030204897038611754,0.0005474693629850697,-3.24096499847161e-05
0.03072587250176751,0.0005627020553701645,-3.2132107130127296e-05
0.03123082989519914,0.0005781912309694062,-3.18468838085424e-05
0.03171781098120267,0.0005939283911885066,-3.155385390300293e-05
0.03218494108991913,0.000609904079206287,-3.1252895785404226e-05
0.03263043904955968,0.0006261079242411567,-3.0943892784542365e-05
0.03305262636346268,0.0006425286905944122,-3.062673363083347e-05
0.03344993553175102,0.0006591543310682157,-3.0301312875417814e-05
0.03382091743021888,0.0006759720443087082,-2.9967531281573585e-05
0.03416424767529566,0.0006929683355850868,-2.9625296186600137e-05
0.034478731908810005,0.0007101290804811132,-2.9274521832583588e-05
0.03476330993099451,0.0007274395909410643,-2.8915129664728045e-05
0.03501705861079233,0.000744884683076511,-2.854704859622365e-05
0.03523919351982281,0.0007624487461091648,-2.817021523892723e-05
0.03542906926107127,0.0007801158118043883,-2.778457409944884e-05
0.03558617847771789,0.0007978696237390857,-2.7390077740562974e-05
0.03571014952977686,0.0008156937057409593,-2.6986686908192963e-05
0.03580074283313291,0.0008335714288316867,-2.65743706245498e-05
0.035857845881418896,0.0008514860760103247,-2.6153106248339298e-05
0.03588146701413949,0.0008694209042342143,-2.5722879503278164e-05
0.035871728042829606,0.0008873592029984566,-2.5283684476469998e-05
0.03582885588772117,0.0009052843489810943,-2.483552358847511e-05
0.035753173400986715,0.0009231798563032712,-2.4378407537154017e-05
0.03564508955923384,0.0009410294220433264,-2.3912355217567367e-05
0.035505089208949986,0.0009588169667353723,-2.343739362037269e-05
0.03533372255747009,0.0009765266696769773,-2.2953557711269604e-05
0.03513159462136268,0.0009941429989716855,-2.2460890294107437e-05
0.03489935486228771,0.001011650736342598,-2.1959441860278866e-05
0.034637687241417144,0.0010290349968685242,-2.1449270426976084e-05
0.034347300900333666,0.001046281243903962,-2.0930441366782963e-05
0.03402892163410091,0.0010633752995375706,-2.040302723092258e-05
0.033683284272933774,0.0010803033510143293,-1.9867107568284603e-05
0.03331112604458759,0.0010970519535937096,-1.9322768742132592e-05
0.03291318095681133,0.0011136080303440594,-1.877010374614815e-05
0.03249017521229594,0.0011299588693863363,-1.820921202121555e-05
0.03204282363464384,0.0011460921190980713,-1.764019927409445e-05
0.03157182704069155,0.0011619957817669052,-1.7063177298878205e-05
0.031077870456776693,0.0011776582061412723,-1.647826380190116e-05
0.030561622056007518,0.0011930680792694684,-1.5885582230548477e-05
0.030023732684625076,0.0012082144179546266,-1.5285261606242454e-05
0.029464835836238795,0.0012230865600848426,-1.4677436361732586e-05
0.028885547919852622,0.0012376741560238655,-1.4062246182705408e-05
0.028286468656197074,0.001251967160167878,-1.3439835853657472e-05
0.027668181435260827,0.0012659558226907424,-1.2810355107942816e-05
0.027031253484898283,0.0012796306814207821,-1.2173958481914936e-05
0.026376235735214786,0.0012929825537258105,-1.1530805173128288e-05
0.02570366230301919,0.001306002528235369,-1.0881058902637994e-05
0.025014049557064506,0.0013186819562003899,-1.0224887781529054e-05
0.02430789476561074,0.0013310124422810587,-9.562464181908693e-06
0.023585674378398355,0.001342985834567061,-8.893964612696662e-06
0.022847842045137897,0.001354594213672945,-8.21956960063666e-06
0.022094826507916766,0.0013658298808112087,-7.539463577015622e-06
0.021327029518175514,0.0013766853448177318,-6.8538347706083866e-06
0.020544823919335684,0.0013871533081771096,-6.162875107359676e-06
0.019748552013299423,0.0013972266521602684,-5.466780117275331e-06
0.018938524306482303,0.001406898421240214,-4.765748848925211e-06
0.0181150187144361,0.0014161618069954435,-4.0599837918662964e-06
0.017278280291606465,0.0014250101317469543,-3.3496908071806968e-06
0.01642852154397962,0.0014334368322058508,-2.6350790661924955e-06
0.01556592337284821,0.0014414354434350578,-1.9163609972822685e-06
0.014690636674848004,0.0014489995834469818,-1.1937522405617587e-06
0.013802784583359396,0.0014561229387615336,-4.674716100096298e-07
0.012902465301107667,0.0014627992512326504,2.6225893748891623e-07
0.011989755470588035,0.0014690223064255743,9.952143269034723e-07
0.011064714054351929,0.0014747859238068092,1.7311663844615682e-06
0.010127386721876191,0.0014800839490008663,2.469883852663487e-06
0.009177810744738881,0.00148491024836752,3.2111324020055837e-06
0.008216020392180046,0.0014892587061517497,3.954674640635401e-06
0.007242052805730045,0.0014931232244512272,4.700270123286145e-06
0.006255954320010279,0.0014964977262326622,5.4476753609571175e-06
0.00525778719021258,0.0014993761616102178,6.196643832917838e-06
0.004247636683750743,0.0015017525175787087,6.94692600271507e-06
0.0032256184848866885,0.001503620831370868,7.698269339952464e-06
0.0021918863390538315,0.001504975207576853,8.450418349689394e-06
0.0011466398303566396,0.0015058098391192056,9.203114611363409e-06
9.013214818570356e-05,0.0015061190321138413,9.95609682917167e-06
-0.000977322340266841,0.001505897234565821,1.0709100895841587e-05
-0.0020553409312354795,0.0015051390687479454,1.1461859971670028e-05
