frame_number,force
0,489.26514093189365
1,489.27704656382974
2,489.2903946116709
3,489.30515893590535
4,489.3213131375286
5,489.33883067774406
6,489.3576849990559
7,489.3778496430022
8,489.39929835944776
9,489.42200520288986
10,489.44594461202297
11,489.4710914695077
12,489.4974211392839
13,489.52490947875367
14,489.55353282306334
15,489.58326793904547
16,489.61409194737035
17,489.64598221302015
18,489.6789162059508
19,489.7128713351433
20,489.7478247598144
21,489.7837531817045
22,489.8206326226396
23,489.8584381920259
24,489.8971438491411
25,489.9367221647375
26,489.9771440856331
27,490.01837870483746
28,490.06039303859774
29,490.10315181090795
30,490.1466172459243
31,490.1907488696658
32,490.23550332423906
33,490.28083419985285
34,490.32669189097203
35,490.3730234823873
36,490.4197726690415
37,490.46687971123777
38,490.5142814254474
39,490.56191121065814
40,490.60969911055076
41,490.6575719121731
42,490.70545328207476
43,490.75326394114467
44,490.80092187940056
45,490.8483426113809
46,490.8954394718207
47,490.9421239504712
48,490.9883060643978
49,491.03389476580276
50,491.07879838342484
51,491.122925095725
52,491.1661834339725
53,491.2084828128912
54,491.2497340860235
55,491.2898501225743
56,491.3287464020753
57,491.3663416227978
58,491.4025583196235
59,491.4373234869285
60,491.4705692015625
61,491.5022332400837
62,491.5322596831729
63,491.56059949888964
64,491.5872110956501
65,491.6120608358822
66,491.6351235019152
67,491.6563827062281
68,491.6758312387834
69,491.69347134526635
70,491.7093149316458
71,491.72338369227253
72,491.73570916051847
73,491.7463326823576
74,491.75530531377376
75,491.7626876424017
76,491.76854953314245
77,491.7729697975514
78,491.77603578768054
79,491.7778429160423
80,491.7784941040303
81,491.77809916181474
82,491.7767741036449
83,491.77464040330267
84,491.77182419508193
85,491.7684554265463
86,491.7646669704477
87,491.76059370402476
88,491.75637156406566
89,491.7521365856489
90,491.7480239315657
91,491.74416691848023
92,491.74069604563596
93,491.73773803293693
94,491.7354148771918
95,491.73384293690253
96,491.7331320560065
97,491.7333847355672
98,491.7346953607809
99,491.73714948977437
100,491.7408232105154
101,491.745782572251
102,491.75208309786836
103,491.75976938332474
104,491.76887478964517
105,491.7794212316947
106,491.7914190660019
107,491.804867077615
108,491.8197525637966
109,491.83605151087306
110,491.85372885991524
111,491.87273885662773
112,491.89302548029116
113,491.9145229459102
114,491.93715627333194
115,491.96084191732035
116,491.98548845326235
117,492.01099731369476
118,492.03726357052307
119,492.06417675668433
120,492.09162171985923
121,492.1194795004225
122,492.1476282263633
123,492.175944018957
124,492.2043019036742
125,492.23257672048874
126,492.2606440263803
127,492.28838098094553
128,492.3156672044294
129,492.3423855968505
130,492.36842310759505
131,492.39367144684036
132,492.41802773303164
133,492.4413950737504
134,492.4636830799872
135,492.4848083156437
136,492.50469468511494
137,492.52327376225065
138,492.5404850637475
139,492.5562762689001
140,492.57060338594
141,492.583430863652
142,492.594731646183
143,492.60448716915084
144,492.6126872962493
145,492.61933019742065
146,492.62442217212197
147,492.6279774237028
148,492.6300177926328
149,492.6305724566989
150,492.6296776054784
151,492.6273760951664
152,492.62371708886224
153,492.61875568669274
154,492.6125525493715
155,492.6051735178275
156,492.5966892304035
157,492.5871747379009
158,492.576709115766
159,492.5653750724042
160,492.5532585530215
161,492.54044833911695
162,492.5270356444281
163,492.5131137087197
164,492.4987773912396
165,492.48412276571196
166,492.4692467184178
167,492.4542465506555
168,492.43921958699957
169,492.4242627910866
170,492.40947239058266
171,492.39494351235277
172,492.3807698281657
173,492.36704321106413
174,492.3538534027416
175,492.34128769246223
176,492.32943060802
177,492.31836361890635
178,492.3081648513751
179,492.298908814886
180,492.2906661396661
181,492.2835033253377
182,492.2774825001076
183,492.272661189089
184,492.26909208954396
185,492.26682285058945
186,492.26589585537954
187,492.26634800509675
188,492.2682105059015
189,492.27150866162697
190,492.27626167615585
191,492.2824824701877
192,492.2901775173182
193,492.29934670367606
194,492.30998321412255
195,492.3220734471913
196,492.3355969611256
197,492.3505264542416
198,492.3668277835617
199,492.38446002554565
200,492.4033755816675
201,492.4235203298272
202,492.4448338205281
203,492.46724951466297
204,492.4906950578809
205,492.51509258536686
206,492.5403590512167
207,492.56640657879996
208,492.5931428317688
209,492.6204714081196
210,492.64829226083907
211,492.6765021481903
212,492.7049951152974
213,492.73366300686075
214,492.7623960088351
215,492.7910832151159
216,492.8196132141728
217,492.84787469006596
218,492.87575703191425
219,492.9031509454752
220,492.929949060258
221,492.9560465257193
222,492.98134159058435
223,493.00573615994415
224,493.02913632509234
225,493.0514528609647
226,493.07260168584946
227,493.0925042782483
228,493.11108804651013
229,493.1282866476745
230,493.14404025220347
231,493.15829575101844
232,493.1710069012868
233,493.1821344082735
234,493.1916459418066
235,493.1995160866259
236,493.2057262259974
237,493.210264358323
238,493.2131248477688
239,493.2143081120892
240,493.2138202532458
241,493.2116726384591
242,493.207881440513
243,493.20246714646254
244,493.19545404394773
245,493.18686969475965
246,493.17674440627377
247,493.1651107122743
248,493.1520028747458
249,493.1374564170463
250,493.1215076967645
251,493.1041935240908
252,493.08555082931656
253,493.065616381432
254,493.0444265584452
255,493.02201716834634
256,492.9984233174785
257,492.9736793211838
258,492.9478186505672
259,492.92087390877106
260,492.8928768296842
261,492.8638582913684
262,492.83384833591174
263,492.8028761873391
264,492.7709702600583
265,492.7381581520663
266,492.70446661912433
267,492.6699215279321
268,492.6345477883792
269,492.5983692674838
270,492.56140869013154
271,492.5236875334991
272,492.485225922708
273,492.44604253477735
274,492.4061545167957
275,492.3655774231052
276,492.32432517545817
277,492.2824100494804
278,492.2398426903331
279,492.1966321599886
280,492.15278601738186
281,492.10831043069
282,492.06321031922755
283,492.0174895222823
284,491.97115099349236
285,491.92419702059976
286,491.8766294706664
287,491.8284500603565
288,491.7796606502176
289,491.73026356131095
290,491.68026191221475
291,491.629659974269
292,491.57846354249915
293,491.52668031854694
294,491.4743203002722
295,491.42139617080903
296,491.3679236778995
297,491.3139219925013
298,491.2594140345614
299,491.204426754102
300,491.14899135765944
301,491.09314347343525
302,491.03692325240223
303,490.9803754059937
304,490.92354918346166
305,490.86649829365103
306,490.80928077668284
307,490.751958830578
308,490.6945985964434
309,490.6372699043358
310,490.58004598097443
311,490.52300312019935
312,490.46622031737485
313,490.40977886978
314,490.35376194638053
315,490.2982541322388
316,490.24334095518674
317,490.18910840468214
318,490.13564245381684
319,490.0830285945567
320,490.03135139384705
321,489.98069407520904
322,489.9311381278763
323,489.8827629439232
324,489.8356454831051
325,489.7898599648463
326,489.74547758682496
327,489.7025662699941
328,489.6611904305491
329,489.6214107799051
330,489.5832841536876
331,489.54686336980853
332,489.51219711409436
333,489.4793298502654
334,489.44830175010014
335,489.4191486397999
336,489.39190195978534
337,489.3665887368948
338,489.3432315695525
339,489.3218486274012
340,489.3024536669812
341,489.28505606458504
342,489.26966086699593
343,489.2562688608272
344,489.2448766615525
345,489.2354768235411
346,489.2280579718166
347,489.2226049545802
348,489.21909901341246
349,489.21751796666445
350,489.2178364015288
351,489.2200258712524
352,489.22405509508326
353,489.2298901594385
354,489.2374947195274
355,489.24683020130414
356,489.2578560039502
357,489.2705297029694
358,489.28480725360015
359,489.30064319388987
360,489.317990846601
361,489.33680251918634
362,489.35702970121883
363,489.37862325854417
364,489.40153362293944
365,489.42571097569083
366,489.451105423776
367,489.4776671681061
368,489.5053466638122
369,489.5340947723778
370,489.56386290483806
371,489.594603155078
372,489.6262684227951
373,489.6588125263026
374,489.6921903050117
375,489.7263577098995
376,489.76127187840405
377,489.79689118920595
378,489.8331752928683
379,489.8700851158423
380,489.90758283678394
381,489.9456318348294
382,489.9841966098763
383,490.0232426757727
384,490.06273642868405
385,490.1026449940638
386,490.1429360560713
387,490.18357767343446
388,490.2245380864655
389,490.2657855210954
390,490.3072879964387
391,490.3490131420351
392,490.3909280298383
393,490.43299902468294
394,490.4751916556878
395,490.51747051020675
396,490.5597991515911
397,490.6021400616789
398,490.6444546081284
399,490.686703035666
400,490.7288444795557
401,490.77083699926413
402,490.8126376301387
403,490.85420245096446
404,490.8954866659768
405,490.936444701193
406,490.9770303158699
407,491.01719672986496
408,491.05689676701945
409,491.09608301398845
410,491.13470799342434
411,491.1727243499558
412,491.2100850467117
413,491.2467435693141
414,491.28265413394683
415,491.31777189676313
416,491.35205316325795
417,491.3854555976744
418,491.417938433464
419,491.4494626857893
420,491.4799913658238
421,491.5094896944057
422,491.5379253100385
423,491.5652684640933
424,491.59149219517246
425,491.6165724752643
426,491.6404883220287
427,491.6632218734808
428,491.6847584231717
429,491.7050864157734
430,491.7241974047199
431,491.7420859750184
432,491.758749635413
433,491.77418868484676
434,491.78840605873427
435,491.80140716081894
436,491.81319968611103
437,491.82379343949003
438,491.83320015331077
439,491.8414333063593
440,491.8485079461846
441,491.85444051679434
442,491.8592486929479
443,491.8629512205114
444,491.8655677606034
445,491.8671187348438
446,491.8676251701627
447,491.8671085436165
448,491.8655906294815
449,491.86309335170677
450,491.85963864434575
451,491.85524832138395
452,491.84994395620475
453,491.84374676999056
454,491.8366775273301
455,491.8287564361181
456,491.8200030479573
457,491.81043615527636
458,491.80007368250705
459,491.78893257068694
460,491.77702865716344
461,491.7643765539965
462,491.75098952999673
463,491.7368794023542
464,491.722056444561
465,491.7065293172577
466,491.69030502723626
467,491.67338891750956
468,491.65578468923457
469,491.6374944552497
470,491.6185188249303
471,491.5988570200515
472,491.57850702052525
473,491.55746573731216
474,491.535729208459
475,491.51329281394953
476,491.49015150569056
477,491.4663000494084
478,491.441733274645
479,491.4164463273761
480,491.39043491789016
481,491.3636955556636
482,491.3362257635158
483,491.30802426468745
484,491.2790911379731
485,491.24942793764814
486,491.2190377767607
487,491.18792537424883
488,491.15609706841013
489,491.12356080196497
490,491.0903260870235
491,491.05640396029213
492,491.02180693878495
493,490.9865489844886
494,490.9506454838965
495,490.9141132457414
496,490.8769705178598
497,490.8392370220929
498,490.80093400466194
499,490.7620842986289
500,490.72271239474577
501,490.68284451711287
502,490.64250870073965
503,490.6017348692291
504,490.5605549118484
505,490.51900275975925
506,490.47711446115886
507,490.43492825459543
508,490.3924846387889
509,490.3498264362447
510,490.30699884754597
511,490.26404949398113
512,490.2210284477456
513,490.1779882502602
514,490.13498391937776
515,490.0920729455007
516,490.04931527544016
517,490.00677328179376
518,489.96451171525297
519,489.9225976376246
520,489.8811003339422
521,489.84009120243695
522,489.7996436214154
523,489.75983279239836
524,489.72073555921173
525,489.6824302029336
526,489.6449962125017
527,489.60851403053056
528,489.5730647741005
529,489.5387299312109
530,489.50559103461126
531,489.4737293151835
532,489.44322533707094
533,489.41415861676006
534,489.38660722821805
535,489.360647395621
536,489.3363530745228
537,489.313795522424
538,489.2930428610247
539,489.2741596344273
540,489.2572063692448
541,489.2422391432723
542,489.22930916899986
543,489.2184623971031
544,489.2097391436519
545,489.2031737437159
546,489.1987942338985
547,489.1966220672541
548,489.1966718655657
549,489.19895121542294
550,489.2034605155094
551,489.2101928826203
552,489.2191341228732
553,489.2302627725165
554,489.24355021033307
555,489.25896084137634
556,489.27645234985374
557,489.2959760175112
558,489.3174771027426
559,489.3408952744694
560,489.36616509355116
561,489.3932165334624
562,489.42197553134724
563,489.4523645600361
564,489.48430321103876
565,489.5177087783063
566,489.55249683314213
567,489.5885817819352
568,489.6258773998641
569,489.66429733512354
570,489.7037555797137
571,489.7441669045702
572,489.7854472585516
573,489.8275141321458
574,489.87028688764156
575,489.9136870581759
576,489.95763861858455
577,490.0020682311918
578,490.0469054694361
579,490.09208302149386
580,490.1375368749399
581,490.1832064821179
582,490.2290349042333
583,490.27496893007753
584,490.32095916305065
585,490.36696006864906
586,490.4129299747436
587,490.4588310189536
588,490.50462904034583
589,490.5502934154279
590,490.59579684070263
591,490.6411150662377
592,490.68622658667545
593,490.7311122972529
594,490.775755122764
595,490.82013962784976
596,490.86425161804596
597,490.9080777421142
598,490.9516051065933
599,490.9948209130909
600,491.03771212777286
601,491.0802651908057
602,491.1224657712182
603,491.16429857028163
604,491.20574717463904
605,491.24679395901074
606,491.2874200368356
607,491.32760525541136
608,491.36732823023283
609,491.40656641178055
610,491.44529617748725
611,491.483492942152
612,491.5211312810802
613,491.5581850608013
614,491.5946275722065
615,491.63043166107826
616,491.6655698518451
617,491.70001446181516
618,491.7337377044283
619,491.7667117807731
620,491.79890895903594
621,491.830301642279
622,491.86086242599936
623,491.89056414757596
624,491.9193799295174
625,491.94728321781866
626,491.97424781653575
627,492.0002479200792
628,492.0252581451159
629,492.0492535637503
630,492.0722097388659
631,492.09410276162515
632,492.1149092905527
633,492.1346065915326
634,492.15317257839337
635,492.17058585436996
636,492.18682575538116
637,492.2018723967422
638,492.21570672580464
639,492.2283105840386
640,492.2396667828701
641,492.24975919781673
642,492.2585728851063
643,492.26609422424525
644,492.2723110891201
645,492.27721304897335
646,492.2807915985517
647,492.28304041387383
648,492.2839556271558
649,492.2835361122566
650,492.2817837708399
651,492.27870380892733
652,492.27430499304427
653,492.2685998744791
654,492.2616049698928
655,492.2533408874997
656,492.2438323904078
657,492.2331083917621
658,492.2212018793768
659,492.20814977028203
660,492.1939926979263
661,492.1787747367588
662,492.16254307092646
663,492.1453476161397
664,492.12724060611816
665,492.1082761568998
666,492.0885098233264
667,492.0679981620556
668,492.0467983142591
669,492.02496761861363
670,492.0025632617485
671,491.979641969915
672,491.9562597429911
673,491.93247163007146
674,491.90833154456476
675,491.88389211593574
676,491.85920457521723
677,491.8343186719702
678,491.80928262066976
679,491.7841430739183
680,491.75894511875896
681,491.7337322914376
682,491.7085466054342
683,491.68342858715516
684,491.6584173133366
685,491.63355044441147
686,491.6088642493004
687,491.58439361931744
688,491.5601720715208
689,491.5362317438592
690,491.512603384997
691,491.48931634073665
692,491.46639853749423
693,491.44387646237965
694,491.4217751392098
695,491.40011809973254
696,491.378927349229
697,491.3582233257858
698,491.33802485333047
699,491.31834909019244
700,491.29921147717045
701,491.2806256909986
702,491.2626036098313
703,491.2451552966414
704,491.2282890046189
705,491.2120112063604
706,491.1963266464308
707,491.18123841521066
708,491.1667480408658
709,491.1528555954378
710,491.13955981031586
711,491.1268581960829
712,491.1147471622406
713,491.1032221334362
714,491.09227766010525
715,491.0819075223788
716,491.072104826198
717,491.0628620898398
718,491.054171318267
719,491.0460240627698
720,491.03841146431375
721,491.0313242800491
722,491.0247528929729
723,491.01868730490435
724,491.01311711337655
725,491.0080314742579
726,491.0034190536274
727,490.9992679736782
728,490.99556575737756
729,490.9922992753725
730,490.98945469693604
731,490.9870174452769
732,490.9849721564948
733,490.9833026407967
734,490.9819918443914
735,490.98102181106555
736,490.9803736437523
737,490.98002746787364
738,490.97996239937163
739,490.9801565210096
740,490.98058687061524
741,490.981229444465
742,490.98205921829333
743,490.9830501877557
744,490.9841754295554
745,490.98540718375085
746,490.9867169571426
747,490.98807564752445
748,490.9894536891392
749,490.99082122049083
750,490.99214827607625
751,490.993405003368
752,490.9945619056899
753,490.99559011078577
754,490.99646166399634
755,490.9971498439115
756,490.99762949707474
757,490.99787738686626
758,490.997872550265
759,490.99759665492877
760,490.99703434806685
761,490.9961735881565
762,490.9950059508742
763,490.993526901437
764,490.9917360260447
765,490.98963721476474
766,490.98723878769243
767,490.9845535568781
768,490.98159881888205
769,490.9783962763055
770,490.9749718903891
771,490.9713556699992
772,490.9675814043302
773,490.96368634720324
774,490.95971086045296
775,490.9556980233561
776,490.95169321475015
777,490.94774367415516
778,490.9438980474531
779,490.9402059215018
780,490.93671735076475
781,490.9334823778613
782,490.9305505490933
783,490.92797042574824
784,490.9257890925049
785,490.92405166565203
786,490.92280080580974
787,490.9220762416999
788,490.92191431258163
789,490.9223475372313
790,490.9234042173595
791,490.9251080835948
792,490.92747799260053
793,490.9305276840523
794,490.9342656057658
795,490.9386948143696
796,490.94381295781295
797,490.9496123444755
798,490.95608010124755
799,490.9631984196044
800,490.9709448849913
801,490.9792928816296
802,490.9882120628335
803,490.99766887628243
804,491.0076271340378
805,491.0180486176111
806,491.0288937083275
807,491.0401220323989
808,491.05169310898737
809,491.0635669888148
810,491.075704871058
811,491.0880696874098
812,491.10062664384594
813,491.11334371216816
814,491.1261920645658
815,491.13914644563255
816,491.1521854780216
817,491.1652919003034
818,491.1784527379588
819,491.1916594098778
820,491.2049077728098
821,491.21819810527165
822,491.231535031164
823,491.24492738236574
824,491.2583879991861
825,491.2719334678715
826,491.2855837952603
827,491.29936202185604
828,491.3132937757319
829,491.32740677079227
830,491.34173025438474
831,491.35629441127134
832,491.37112973310946
833,491.38626636412585
834,491.4017334342723
835,491.41755839109317
836,491.43376634128134
837,491.45037941274586
838,491.4674161479689
839,491.4848909392968
840,491.50281351637676
841,491.52118849505916
842,491.54001499566783
843,491.5592863368152
844,491.57898980919845
845,491.59910653195726
846,491.6196113919029
847,491.6404730634307
848,491.66165410493903
849,491.6831111265335
850,491.7047950235512
851,491.72665127059986
852,491.7486202711599
853,491.7706377582594
854,491.79263524213434
855,491.8145405007283
856,491.83627810808076
857,491.85776999429663
858,491.87893602943456
859,491.89969462277736
860,491.91996332884196
861,491.93965945214205
862,491.95870064362754
863,491.97700548224606
864,491.994494035196
865,492.0110883908858
866,492.02671315994894
867,492.04129594148236
868,492.05476775295375
869,492.06706342247344
870,492.07812194187096
871,492.08788677912924
872,492.0963061495158
873,492.10333324594484
874,492.1089264304145
875,492.1130493897509
876,492.11567126019617
877,492.11676672611856
878,492.1163160979868
879,492.1143053739404
880,492.1107262882744
881,492.10557634924027
882,492.0988588677441
883,492.0905829776344
884,492.0807636473826
885,492.0694216823544
886,492.0565837166119
887,492.04228219297795
888,492.02655532968754
889,492.009447071421
890,491.99100702209023
891,491.9712903563694
892,491.9503577062855
893,491.9282750180477
894,491.9051133730328
895,491.88094876601787
896,491.85586183377046
897,491.829937528107
