acceleration,velocity,displacement
-0.04153588008850827,0.0,0.0
-0.04136642743377063,-2.0725576880569724e-05,-5.181394220142431e-09
-0.04115829295463522,-4.135675697767118e-05,-2.0701977684702658e-08
-0.040908358641736864,-6.18734198767642e-05,-4.65095218983115e-08
-0.04061474822223603,-8.225419659275743e-05,-8.25414260156919e-08
-0.04027685441678282,-0.00010247709725251214,-1.287242494770093e-07
-0.03989529473239712,-0.00012252013453980712,-1.849735574250891e-07
-0.0394718088004114,-0.00014236191042300925,-2.511940686657932e-07
-0.03900911177080411,-0.00016198214056581313,-3.272800814129988e-07
-0.03851071707851616,-0.0001813620977781432,-4.1311614099898786e-07
-0.03798073991715076,-0.00020048496202705994,-5.085779059502887e-07
-0.0374236910485822,-0.0002193360697684932,-6.13533163899177e-07
-0.0368442698538027,-0.00023790305999408942,-7.278429463398226e-07
-0.036247166072476494,-0.0002561759189756592,-8.513626910822597e-07
-0.035636880498405764,-0.0002741469306183798,-9.839434034807694e-07
-0.035017574417938666,-0.0002918105443474659,-1.1254327722222307e-06
-0.034392955062451235,-0.0003091631767175634,-1.275676202488488e-06
-0.03376620007753018,-0.0003262029655025587,-1.4345177380435184e-06
-0.03313991916065215,-0.0003429294953121043,-1.6018008532471842e-06
-0.0325161474766057,-0.00035934351197141874,-1.777369105068065e-06
-0.031896364290046206,-0.0003754466399130817,-1.96106664303919e-06
-0.031281530399616723,-0.0003912411135854974,-2.1527385814138347e-06
-0.03067213767003701,-0.0004067295306029108,-2.352231242460937e-06
-0.030068263096562582,-0.00042191463079456075,-2.559392282810305e-06
-0.029469619729193618,-0.0004367991015009998,-2.7740707158841953e-06
-0.02887559835795233,-0.0004513854060227863,-2.9961168427651417e-06
-0.028285296920693787,-0.0004656756298424478,-3.22538210173145e-06
-0.02769753848376453,-0.0004796713386935624,-3.4617188438654526e-06
-0.02711088257747873,-0.0004933734439588732,-3.7049800395285615e-06
-0.02652363753476793,-0.0005067820739869349,-3.955018919015014e-06
-0.0259338819680185,-0.0005198964538626314,-4.211688550977405e-06
-0.0253395006929854,-0.0005327147995278824,-4.474841364325033e-06
-0.02473823462945201,-0.0005452342333584917,-4.744328622546627e-06
-0.024127737806731497,-0.0005574507264675376,-5.019999862503134e-06
-0.023505631034286576,-0.0005693590686777922,-5.301702311289467e-06
-0.022869543246855684,-0.0005809528622480778,-5.589280294020934e-06
-0.022217137115746372,-0.0005922245323387282,-5.882574642667636e-06
-0.02154612185530746,-0.0006031653470814917,-6.181422112522691e-06
-0.020854259867023307,-0.0006137654425120743,-6.4856548099210826e-06
-0.020139373976591712,-0.0006240138509729781,-6.795099633292346e-06
-0.019399360078665474,-0.0006338985344867924,-7.109577729657289e-06
-0.018632207859649506,-0.0006434064264713711,-7.42890396989683e-06
-0.017836030303626252,-0.00065252348601219,-7.75288644801772e-06
-0.01700910067676583,-0.0006612347687572881,-8.08132601171009e-06
-0.01614989444711659,-0.0006695245175382587,-8.414015833283977e-06
-0.01525713415903796,-0.0006773762746897973,-8.750741031340991e-06
-0.014329836941167578,-0.0006847730174648488,-9.091278354379653e-06
-0.013367365478313317,-0.000691697318069719,-9.435395938263294e-06
-0.01236948347456614,-0.0006981315303079389,-9.782853150357708e-06
-0.011336416082727709,-0.0007040580051972624,-1.0133400534234009e-05
-0.010268914306028597,-0.0007094593377944514,-1.0486779869981938e-05
-0.009168320443121993,-0.000714318646481739,-1.0842724366050986e-05
-0.00803663053202409,-0.0007186198842255256,-1.1200958998727802e-05
-0.006876549795461384,-0.000722348179307397,-1.1561201014611032e-05
-0.005691537347263644,-0.0007254902010930782,-1.1923160609711151e-05
-0.004485836425289788,-0.0007280345445362166,-1.2286541796118475e-05
-0.003264486608502194,-0.0007299721252946646,-1.2651043463576194e-05
-0.0020333147601992053,-0.0007312965756368399,-1.301636063880907e-05
-0.0007989012473645993,-0.0007320046296387309,-1.3382185940127963e-05
0.0004314822415450132,-0.0007320964843901857,-1.3748211218635192e-05
0.0016499660403856257,-0.000731576122319703,-1.4114129370312664e-05
0.002848207275617556,-0.0007304515789907022,-1.4479636295640265e-05
0.004017542670689095,-0.0007287351415041256,-1.4844432975763972e-05
0.005149162050868492,-0.0007264434653237362,-1.5208227627470937e-05
0.006234292562044312,-0.000723597601670508,-1.5570737894219497e-05
0.007264383406152501,-0.0007202229326784587,-1.593169302780674e-05
0.008231282119240043,-0.0007163490162971106,-1.6290836015050632e-05
0.009127394307376017,-0.0007120093471904566,-1.6647925605922524e-05
0.009945819562637919,-0.0007072410437229532,-1.7002738203650878e-05
0.010680458407512635,-0.0007020844742304155,-1.735506958313922e-05
0.011326088610824387,-0.0006965828374758313,-1.7704736411065782e-05
0.011878413179489069,-0.0006907817120282529,-1.8051577548441804e-05
0.012334086083893725,-0.0006847285872124072,-1.8395455123251968e-05
0.012690724182021669,-0.0006784723846459283,-1.873625536621655e-05
0.012946913252357176,-0.0006720629752873336,-1.9073889206199865e-05
0.01310221241345854,-0.0006655506938708797,-1.940829262348942e-05
0.01315715690237892,-0.0006589858515419204,-1.973942675984262e-05
0.013113257083502906,-0.0006524182480454499,-2.006727778473946e-05
0.012972991981246683,-0.0006458966857792626,-2.0391856518195638e-05
0.012739796376475496,-0.000639468488689832,-2.0713197811812913e-05
0.012418040281318944,-0.0006331790295253834,-2.1031359691366717e-05
0.012012999482686415,-0.000627071269584382,-2.134642226614416e-05
0.011530816517507148,-0.0006211853155843336,-2.165848641243634e-05
0.010978451886843904,-0.0006155579984832458,-2.1967672240953233e-05
0.010363625338533427,-0.0006102224791769015,-2.227411736036827e-05
0.009694747967569112,-0.0006052078858503759,-2.257797495162509e-05
0.008980847772687272,-0.0006005389869153118,-2.287941166981651e-05
0.008231492466062576,-0.0005962359018556243,-2.3178605392009246e-05
0.0074567126178758025,-0.0005923138505846397,-2.3475742830119313e-05
0.006666925761909628,-0.0005887829409896934,-2.3771017028012897e-05
0.0058728584910083224,-0.0005856479949264639,-2.4064624761991936e-05
0.0050854601214309,-0.0005829084152733542,-2.435676386454189e-05
0.004315800478232971,-0.0005805581001234382,-2.4647630493391087e-05
0.003574947524335445,-0.0005785854131227961,-2.4937416371702645e-05
0.002873826905575245,-0.0005769732195153184,-2.5226306029862173e-05
0.002223070963492083,-0.0005756989950480516,-2.5514474083503015e-05
0.0016328656467218309,-0.0005747350108954981,-2.58020825849889e-05
0.0011128004192071694,-0.0005740485943790158,-2.608927848630753e-05
0.0006717224977645268,-0.0005736024636497729,-2.6376191250814725e-05
0.0003175955072915885,-0.0005733551341485088,-2.6662930650264294e-05
5.7363909195379784e-05,-0.0005732613942943871,-2.694958478237502e-05
-0.00010317322628990398,-0.0005732728466236607,-2.723621834260453e-05
-0.0001594734878755113,-0.000573338508302202,-2.7522871181335996e-05
-0.00010834032611481587,-0.0005734054617556996,-2.780955717385047e-05
5.201727701134864e-05,-0.0005734195425179755,-2.809626342491889e-05
0.0003219606158317398,-0.0005733260480447647,-2.8382949822559573e-05
0.0007004350387657161,-0.0005730704491311153,-2.8669548946853542e-05
0.0011850196523714694,-0.000572599085458331,-2.8955966330500905e-05
0.0017720067468928503,-0.0005718598288585149,-2.9242081059080115e-05
0.0024565026822159467,-0.0005708027015012377,-2.9527746691670053e-05
0.0032325425129152733,-0.0005693804402024549,-2.9812792477095978e-05
0.0040932121307381995,-0.0005675490015415415,-3.0097024837531978e-05
0.005030772383888929,-0.0005652680054128847,-3.0380229089270585e-05
0.006036779679732047,-0.0005625011173969795,-3.066217136997305e-05
0.007102198414252387,-0.0005592163728734834,-3.094260074254066e-05
0.00821750311947018,-0.0005553864474900528,-3.122125144763155e-05
0.009372772014307234,-0.0005509888787066084,-3.149784527918071e-05
0.010557776696919562,-0.0005460062415288018,-3.1772094059239564e-05
0.011762072940305122,-0.0005404262791194956,-3.204370218940164e-05
0.012975095066264096,-0.0005342419871178534,-3.231236925596098e-05
0.014186253542121201,-0.0005274516499657571,-3.257779266523188e-05
0.015385034641439097,-0.000520058827919867,-3.2839670284703286e-05
0.016561102916481222,-0.0005120722935303869,-3.309770306506585e-05
0.017704410470791795,-0.0005035059151835686,-3.335159761724433e-05
0.01880531892931928,-0.0004943784828335408,-3.360106871674861e-05
0.0198547385006035,-0.0004847134684760601,-3.384584170457601e-05
0.020844283533569513,-0.00047453871296751683,-3.408565474993691e-05
0.021766437193642952,-0.0004638860327857137,-3.432026093637522e-05
0.022614711753112225,-0.0004527907455490249,-3.4549430130958904e-05
0.023383787680697047,-0.0004412911206905726,-3.4772950597518803e-05
0.024069615397535545,-0.0004294277699210145,-3.49906303201717e-05
0.024669468100912046,-0.0004172429990464026,-3.5202298012413554e-05
0.025181941200336445,-0.00040478014672109045,-3.5407803798855426e-05
0.02560690174110177,-0.0003920829359857309,-3.560701956953213e-05
0.025945397598747415,-0.0003791948611507686,-3.5799839018816257e-05
0.02619953992330931,-0.0003661586267702544,-3.5986177390796514e-05
0.026372373550333564,-0.0003530156484018437,-3.616597095958954e-05
0.026467749564482092,-0.0003398056176231398,-3.633917627609579e-05
0.026490211552021022,-0.000326566127344014,-3.650576921233758e-05
0.026444901757173303,-0.0003133323490167154,-3.666574383142776e-05
0.026337486348568813,-0.0003001367519902799,-3.681911110667951e-05
0.026174092583360786,-0.0002870088572572975,-3.6965897508991405e-05
0.025961246730933685,-0.00027397502242872384,-3.710614347891291e-05
0.02570580082512264,-0.00026105826053970975,-3.723990179965502e-05
0.02541483845053816,-0.00024827810072079455,-3.7367235889970144e-05
0.02509555449957561,-0.0002356505024832661,-3.748821804077116e-05
0.024755110526921854,-0.00022318783622664174,-3.760292762544863e-05
0.02440047430081216,-0.00021089894001970823,-3.771144931951022e-05
0.024038256904259123,-0.00019878925721844042,-3.7813871368819756e-05
0.0236745614968214,-0.0001868610526181703,-3.791028394627891e-05
0.023314855064320253,-0.00017511369847788487,-3.8000777634052924e-05
0.022963870578034746,-0.00016354401706729612,-3.808544206293922e-05
0.022625544007005133,-0.00015214666342103615,-3.81643647330613e-05
0.022302988570318216,-0.00014091453027670532,-3.8237630031485736e-05
0.021998506505755376,-0.0001298391565076869,-3.8305318453181834e-05
0.02171363607183482,-0.00011891112086328936,-3.8367506022524576e-05
0.02144922851141224,-0.00010812040471747759,-3.842426390391977e-05
0.021205546522358773,-9.745671095903483e-05,-3.84756581828389e-05
0.02098237341567585,-8.690973097452618e-05,-3.852174979332229e-05
0.020779121917045926,-7.646935714134573e-05,-3.856259456535126e-05
0.020594933618314812,-6.612584325750554e-05,-3.859824336545097e-05
0.0204287631250449,-5.586991907166561e-05,-3.862874230603327e-05
0.02027944384580411,-4.569286732895336e-05,-3.865413300263342e-05
0.02014573498611285,-3.558657262097412e-05,-3.867445286262091e-05
0.020026351421721576,-2.554355101901551e-05,-3.86897353935309e-05
0.019919979004392872,-1.5556968412486898e-05,-3.870001052338878e-05
0.0198252775574172,-5.620654272034378e-06,-3.870530492905991e-05
0.019740873647867103,4.270883529286698e-06,-3.8705642371745595e-05
0.019665346204065202,1.4122438492269775e-05,-3.8701044041240206e-05
0.019597209507719773,2.3938077420216017e-05,-3.8691528912262084e-05
0.019534898296764313,3.372110437133704e-05,-3.867711411681419e-05
0.01947675810416247,4.3474018471568734e-05,-3.865781533610347e-05
0.019421042091251187,5.319846852042215e-05,-3.863364721435547e-05
0.019365915194624314,6.289520784189102e-05,-3.860462379526489e-05
0.019309467150455433,7.256405342816096e-05,-3.857075897994738e-05
0.019249736589071732,8.220385436304275e-05,-3.8532067002999574e-05
0.019184748190348648,9.181247555789785e-05,-3.8488562920519336e-05
0.019112563721265033,0.00010138680353580127,-3.844026310074591e-05
0.019031346061849433,0.0001109227809815799,-3.838718570461657e-05
0.018939434376239964,0.00012041547609110224,-3.83293511403484e-05
0.018835429031785866,0.0001298591919431087,-3.826678247333985e-05
0.01871828508895518,0.00013924762047329395,-3.819950577023575e-05
0.018587411325315505,0.00014857404457686163,-3.812755035397321e-05
0.018442768382914004,0.000157831589503919,-3.8050948945453015e-05
0.01828495669120216,0.00016701352077244804,-3.7969737667883925e-05
0.01811528351420657,0.00017611358082380023,-3.7883955892484866e-05
0.017935799421286525,0.0001851263515576735,-3.77936459093895e-05
0.01774929805941,0.00019404762592784762,-3.769885241501812e-05
0.017559278275388283,0.0002028747700115472,-3.759962181603327e-05
0.017369872287305056,0.00021160705765222053,-3.749600135911733e-05
0.017185746812715195,0.0002202459624272256,-3.738803810409747e-05
0.017011986155937905,0.0002287953956693889,-3.727577776457332e-05
0.016853966711742645,0.00023726188388630904,-3.715926344468439e-05
0.016717230126400293,0.0002456546830958448,-3.7038534302938854e-05
0.016607358503534505,0.0002539858302533285,-3.691362417460156e-05
0.01652985256506813,0.0002622701330204792,-3.678456018378311e-05
0.016490014455110363,0.0002705250997755238,-3.6651361375584105e-05
0.016492839908180647,0.00027877081336634657,-3.651403739729864e-05
0.01654292717327014,0.00028702975513670925,-3.637258725517288e-05
0.016644410298710884,0.0002953265895047045,-3.622699816901253e-05
0.016800921713179956,0.0003036879225076772,-3.607724454100943e-05
0.017015584376067986,0.00031214204902998917,-3.592328704812502e-05
0.017291028276955153,0.00032071870219324496,-3.576507186031921e-05
0.017629420572580764,0.00032944881440562896,-3.5602529981169494e-05
0.018032493921716353,0.00033836429302920324,-3.543557670431079e-05
0.018501555167661388,0.00034749780530154767,-3.5264111179728096e-05
0.019037458811774658,0.00035688255879640665,-3.5088016088703605e-05
0.019640537805653707,0.00036655205795076373,-3.4907157434516815e-05
0.02031049558311214,0.0003765398162979552,-3.472138446595463e-05
0.021046273048230466,0.00038687900845579083,-3.4530529759766196e-05
0.021845908968999725,0.00039760205396009837,-3.4334409494162226e-05
0.022706411978533892,0.00040874013419698175,-3.413282394712296e-05
0.0236236592080563,0.0004203226519936293,-3.39255582505753e-05
0.02459233201339625,0.00043237664979899244,-3.3712383425127144e-05
0.025605894045852434,0.00044492620631380464,-3.349305771109895e-05
0.026656612274282433,0.00045799183289383836,-3.326732820129704e-05
0.02773561888869007,0.0004715898906845815,-3.303493277040243e-05
0.028833011073247903,0.000485732048175066,-3.279560228568752e-05
0.029937984945063008,0.0005004247971796438,-3.254906307434884e-05
0.03103899896398612,0.0005156690431569061,-3.2295039614264704e-05
0.03212396146133831,0.0005314597832632372,-3.203325740765967e-05
0.033180437216941576,0.0005477858829328072,-3.176344599111066e-05
0.03419586923484677,0.0005646299595457544,-3.148534203049102e-05
0.035157813223129754,0.0005819683801602485,-3.119869244556452e-05
0.036054182539456636,0.0005997713791008951,-3.090325750574923e-05
0.03687350012018968,0.0006180032997658067,-3.0598813836032556e-05
0.03760515220350804,0.0006366229628467312,-3.028515727037942e-05
0.038239638019457546,0.0006555841604024725,-2.996210548956712e-05
0.03876881048865672,0.0006748362725295011,-2.9629500381334126e-05
0.03918610390407398,0.0006943250011276838,-2.928721006291983e-05
0.03948674363835669,0.0007139932130132915,-2.8935130509384587e-05
0.039667930316485966,0.0007337818815020021,-2.8573186735755764e-05
0.03972898914346507,0.0007536311113669899,-2.8201333487538514e-05
0.03967147590583012,0.0007734812276293137,-2.781955540278944e-05
0.039499233140602684,0.0007932739048909219,-2.742786661965938e-05
0.03921839037440559,0.0008129533107696739,-2.702630981574423e-05
0.03883730093710756,0.0008324672335975523,-2.6614954679652426e-05
0.03836640728383812,0.0008517681606527886,-2.6193895831089842e-05
0.03781802926390656,0.0008708142697897248,-2.5763250223479212e-05
0.037206075104883184,0.0008895702958819222,-2.53231540820613e-05
0.036545681232049945,0.0009080082349661554,-2.487375944934928e-05
0.03585279241353508,0.0009261078533775517,-2.4415230427263353e-05
0.035143696651814896,0.0009438569756438892,-2.3947739220007993e-05
0.03443452977002114,0.0009612515322493482,-2.3471462093034684e-05
0.03374076454013814,0.000978295355826888,-2.2986575371015626e-05
0.03307670055383381,0.0009949997221003811,-2.249325160153381e-05
0.03245497425431634,0.0010113826408024186,-2.199165601080811e-05
0.031886111800053255,0.001027467912316011,-2.1481943372528505e-05
0.031378148224056074,0.0010432839773220383,-2.0964255400118993e-05
0.030936333567918382,0.0010588625977700319,-2.0438718756345975e-05
0.030562941082654473,0.001074237416432675,-1.99054437527953e-05
0.03025718601552745,0.0010894424482072206,-1.9364523786635324e-05
0.030015257808061833,0.0011045105591631179,-1.881603553479274e-05
0.029830464673331926,0.0011194719897834663,-1.8260039897556096e-05
0.029693486602257332,0.0011343529776023636,-1.7696583655709637e-05
0.029592728826239464,0.0011491745314594877,-1.7125701778444174e-05
0.029514762259048418,0.0011639514042308097,-1.65474202945216e-05
0.029444832693747917,0.0011786913029690088,-1.5961759617721645e-05
0.029367418368234758,0.0011933943657345045,-1.5368738200545765e-05
0.029266815019037377,0.0012080529240813226,-1.4768376378091808e-05
0.029127726844143585,0.0012226515595471178,-1.4160700257184698e-05
0.028935840404563897,0.0012371674513592947,-1.3545745504458095e-05
0.028678357166401623,0.0012515710007520362,-1.2923560891430262e-05
0.02834446041683987,0.0012658267051478466,-1.2294211464955292e-05
0.027925695053237613,0.001279894244015366,-1.1657781227664489e-05
0.02741624415446353,0.0012937297288172912,-1.1014375234456325e-05
0.02681309226534761,0.001307287062922244,-1.0364121036521442e-05
0.02611607074274118,0.0013205193536742663,-9.707169432372314e-06
0.025327786543733265,0.001333380317995885,-9.043694514454776e-06
0.024453443327615065,0.001345825625463722,-8.373893028589875e-06
0.023500571111090475,0.0013578141290733984,-7.697983089955595e-06
0.022478685816220655,0.001369308943305226,-7.016202321860939e-06
0.021398901740954292,0.0013802783401945199,-6.328805500986003e-06
0.0202735181901991,0.0013906964451773083,-5.6360618046430455e-06
0.019115597704534373,0.0014005437241509917,-4.93825176231097e-06
0.0179385496948601,0.0014098072610008404,-4.235664016023012e-06
0.016755730683546615,0.001418480831095442,-3.5285919929989417e-06
0.015580070508977646,0.001426564781393573,-2.817330589876688e-06
0.014423732715691246,0.0014340657321997403,-2.1021729614783598e-06
0.013297816237690377,0.0014409961194380857,-1.3834074985689032e-06
0.012212102399011474,0.0014473735990972612,-6.613150689350665e-07
0.011174845642517606,0.0014532203361076435,6.38334148661597e-08
0.010192601655794923,0.0014585621979322217,7.91779048376126e-07
0.009270086883824549,0.0014634278700671266,1.5222765653759632e-06
0.008410068278504317,0.001467847908857709,2.2550955101071724e-06
0.007613286927383859,0.001471853747659181,2.990020924236395e-06
0.006878420968194086,0.0014754766746330756,3.726853529809459e-06
0.006202092688106933,0.0014787468030471509,4.465409399229516e-06
0.00557892358758365,0.0014816920571160735,5.205519114270322e-06
0.0050016402998241715,0.0014843371980879255,5.947026428071322e-06
0.004461234068781277,0.0014867029166800768,6.689786456763322e-06
0.0039471767422654454,0.0014888050193828384,7.433663440779051e-06
0.003447695487899134,0.0014906537374403796,8.178528129984856e-06
0.002950105450658768,0.001492253187675019,8.924254861263705e-06
0.002441194686588044,0.0014936010127093308,9.670718411359792e-06
0.0019076499618048616,0.001494688223871429,1.0417790720504981e-05
0.001336505832305434,0.0014954992628199567,1.1165337592177827e-05
0.0007155934576298499,0.0014960122876424406,1.1913215479793426e-05
3.396168391985249e-05,0.001496199676427828,1.2661268470810993e-05
