acceleration,velocity,displacement
-0.041535880087851466,0.0,0.0
-0.041366427433284114,-2.0725576880283898e-05,-5.181394220070974e-09
-0.04115829295431105,-4.1356756977182693e-05,-2.0701977684437623e-08
-0.04090835864156033,-6.187341987615054e-05,-4.650952189777093e-08
-0.04061474822218898,-8.225419659208787e-05,-8.254142601483052e-08
-0.04027685441684258,-0.00010247709725184575,-1.2872424947581394e-07
-0.039895294732524,-0.0001225201345391874,-1.8497355742357223e-07
-0.03947180880055322,-0.0001423619104224567,-2.5119406866398325e-07
-0.0390091117708996,-0.0001619821405653199,-3.272800814109274e-07
-0.038510717078504064,-0.00018136209777767082,-4.131161409966751e-07
-0.03798073991697776,-0.0002004849620265413,-5.085779059477281e-07
-0.037423691048200654,-0.0002193360697678359,-6.135331638963224e-07
-0.0368442698531797,-0.00023790305999318097,-7.278429463365766e-07
-0.03624716607158482,-0.0002561759189743721,-8.513626910784648e-07
-0.03563688049722045,-0.00027414693061657345,-9.83943403476201e-07
-0.035017574416444965,-0.0002918105443449898,-1.125432772216592e-06
-0.03439295506064802,-0.00030916317671426306,-1.2756762024814052e-06
-0.03376620007543901,-0.00032620296549828483,-1.4345177380345422e-06
-0.033139919158309335,-0.0003429294953067219,-1.601800853235794e-06
-0.032516147474055505,-0.00035934351196481313,-1.7773691050536777e-06
-0.031896364287338545,-0.00037544663990516167,-1.9610666430211716e-06
-0.03128153039680493,-0.00039124111357619756,-2.152738581391511e-06
-0.03067213766718009,-0.0004067295305921938,-2.352231242433609e-06
-0.030068263093722947,-0.0004219146307824196,-2.559392282777262e-06
-0.029469619726426866,-0.00043679910148745703,-2.774070715844731e-06
-0.028875598355299306,-0.00045138540600788855,-2.9961168427185676e-06
-0.028285296918181727,-0.00046567562982625883,-3.2253821016771044e-06
-0.027697538481405912,-0.00047967133867615573,-3.4617188438027082e-06
-0.0271108825752781,-0.0004933734439403267,-3.704980039456829e-06
-0.026523637532718473,-0.0005067820739673259,-3.955018918933742e-06
-0.025933881966102062,-0.000519896453842031,-4.211688550886081e-06
-0.025339500691171347,-0.0005327147995063494,-4.474841364223176e-06
-0.024738234627700625,-0.0005452342333360674,-4.74432862243378e-06
-0.024127737805000805,-0.0005574507264442428,-5.019999862378858e-06
-0.023505631032535723,-0.0005693590686536269,-5.301702311153326e-06
-0.022869543245042697,-0.0005809528622230215,-5.5892802938724875e-06
-0.02221713711383948,-0.0005922245323127421,-5.882574642506429e-06
-0.02154612185328285,-0.0006031653470545227,-6.1814221123482444e-06
-0.020854259864865093,-0.0006137654424840598,-6.48565480973289e-06
-0.020139373974289696,-0.0006240138509438485,-6.795099633089867e-06
-0.01939936007621853,-0.0006338985344564755,-7.109577729439948e-06
-0.018632207857063317,-0.000643406426439796,-7.428903969664016e-06
-0.01783603030091672,-0.000652523485979291,-7.752886447768787e-06
-0.017009100673952258,-0.0006612347687230082,-8.081326011444362e-06
-0.01614989444421942,-0.0006695245175025511,-8.414015833000751e-06
-0.015257134156078763,-0.0006773762746526257,-8.750741031039546e-06
-0.01432983693816793,-0.0006847730174261873,-9.091278354059249e-06
-0.013367365475290256,-0.0006916973180295518,-9.435395937923183e-06
-0.012369483471532163,-0.0006981315302662574,-9.782853149997135e-06
-0.011336416079693042,-0.0007040580051540637,-1.0133400533852215e-05
-0.010268914303001201,-0.0007094593377497373,-1.0486779869578166e-05
-0.009168320440114362,-0.0007143186464355163,-1.084272436562448e-05
-0.008036630529057799,-0.0007186198841778093,-1.120095899827781e-05
-0.006876549792564815,-0.000722348179258215,-1.1561201014136817e-05
-0.00569153734446404,-0.0007254902010424722,-1.192316060921199e-05
-0.004485836422614391,-0.0007280345444842419,-1.2286541795593669e-05
-0.0032644866059816503,-0.0007299721252413909,-1.2651043463025078e-05
-0.0020333147578641565,-0.0007312965755823524,-1.3016360638231013e-05
-0.0007989012452445506,-0.0007320046295831295,-1.3382185939522383e-05
0.00043148224342850355,-0.0007320964843335836,-1.374821121800156e-05
0.0016499660420110026,-0.0007315761222622236,-1.4114129369650513e-05
0.0028482072769700764,-0.0007304515789324784,-1.447963629494919e-05
0.004017542671765368,-0.0007287351414452945,-1.4844432975043633e-05
0.005149162051665129,-0.0007264434652644369,-1.5208227626721065e-05
0.006234292562560198,-0.0007235976016108806,-1.5570737893439895e-05
0.007264383406392199,-0.0007202229326186424,-1.5931693026997274e-05
0.008231282119218331,-0.0007163490162372398,-1.6290836014211243e-05
0.009127394307116758,-0.000712009347130656,-1.6647925605053217e-05
0.009945819562170648,-0.0007072410436633342,-1.7002738202751715e-05
0.010680458406871431,-0.0007020844741710737,-1.7355069582210317e-05
0.01132608861003879,-0.0006965828374168461,-1.7704736410107297e-05
0.01187841317859203,-0.0006907817119696884,-1.805157754745393e-05
0.012334086082921596,-0.00068472858715431,-1.839545512223493e-05
0.012690724181017611,-0.0006784723845883252,-1.8736255365170587e-05
0.012946913251366626,-0.0006720629752302291,-1.9073889205125224e-05
0.01310221241252012,-0.0006655506938142575,-1.9408292622386345e-05
0.013157156901514235,-0.0006589858514857488,-1.9739426758711345e-05
0.013113257082721076,-0.00065241824798969,-2.0067277783580205e-05
0.012972991980545481,-0.0006458966857238734,-2.0391856517008596e-05
0.012739796375843614,-0.0006394684886347761,-2.0713197810598257e-05
0.01241804028074167,-0.0006331790294706298,-2.1031359690124608e-05
0.0120129994821513,-0.0006270712695299065,-2.134642226487474e-05
0.01153081651700288,-0.000621185315530118,-2.1658486411139748e-05
0.01097845188636257,-0.0006155579984292766,-2.1967672239629598e-05
0.010363625338078457,-0.0006102224791231664,-2.227411735901771e-05
0.009694747967150743,-0.0006052078857968591,-2.2577974950247715e-05
0.008980847772316872,-0.0006005389868619923,-2.2879411668412428e-05
0.008231492465758314,-0.0005962359018024735,-2.3178605390578546e-05
0.007456712617655846,-0.00059231385053162,-2.347574282866207e-05
0.006666925761787601,-0.0005887829409367591,-2.3771017026529167e-05
0.005872858490995573,-0.0005856479948735633,-2.4064624760481747e-05
0.005085460121531966,-0.0005829084152204314,-2.4356763863005247e-05
0.004315800478438765,-0.0005805581000704387,-2.4647630491827963e-05
0.0035749475246289347,-0.0005785854130696717,-2.493741637011299e-05
0.002873826905942796,-0.0005769732194620288,-2.5226306028245915e-05
0.0022230709639177873,-0.0005756989949945637,-2.5514474081860063e-05
0.0016328656471943143,-0.0005747350108417856,-2.580208258331915e-05
0.001112800419717324,-0.0005740485943250578,-2.608927848461086e-05
0.0006717224982987016,-0.0005736024635955538,-2.6376191249091013e-05
0.0003175955078349942,-0.0005733551340940203,-2.6662930648513406e-05
5.736390973095465e-05,-0.0005732613942396288,-2.694958478059682e-05
-0.00010317322578376316,-0.000573272846568642,-2.7236218340798886e-05
-0.0001594734874136012,-0.0005733385082469413,-2.7522871179502783e-05
-0.00010834032570853036,-0.0005734054617002219,-2.7809557171989574e-05
5.201727735855814e-05,-0.0005734195424623094,-2.8096263423030205e-05
0.00032196061611415225,-0.0005733260479889411,-2.838294982064302e-05
0.0007004350389708024,-0.0005730704490751699,-2.8669548944909046e-05
0.0011850196524753542,-0.0005725990854023084,-2.8955966328528416e-05
0.0017720067468671207,-0.0005718598288024728,-2.924208105707961e-05
0.0024565026820321917,-0.0005708027014452479,-2.9527746689641538e-05
0.0032325425125507585,-0.0005693804401466022,-2.98127924750395e-05
0.004093212130173598,-0.0005675490014859211,-3.0097024835447633e-05
0.0050307723831105895,-0.0005652680053576001,-3.038022908715851e-05
0.0060367796787342675,-0.0005625011173421388,-3.066217136783345e-05
0.007102198413030603,-0.0005592163728191976,-3.0942600740373784e-05
0.008217503118020966,-0.0005553864474364346,-3.122125144543769e-05
0.009372772012621494,-0.0005509888786537741,-3.149784527696024e-05
0.010557776694983666,-0.0005460062414768728,-3.177209405699291e-05
0.011762072938100906,-0.0005404262790686017,-3.2043702187129275e-05
0.01297509506376886,-0.0005342419870681342,-3.231236925366346e-05
0.01418625353930885,-0.0005274516499173648,-3.2577792662909834e-05
0.015385034638286938,-0.0005200588278729658,-3.283967028235742e-05
0.01656110291297338,-0.0005120722934851507,-3.3097703062696947e-05
0.01770441046692715,-0.0005035059151401756,-3.335159761485328e-05
0.018805318925110334,-0.0004943784827921662,-3.3601068714336364e-05
0.019854738496072968,-0.0004847134684368704,-3.3845841702143624e-05
0.02084428352874579,-0.0004745387129306657,-3.408565474748551e-05
0.021766437188562374,-0.0004638860327513387,-3.432026093390601e-05
0.022614711747820218,-0.00045279074551724305,-3.4549430128473153e-05
0.023383787675248114,-0.00044129112066147594,-3.4772950595017834e-05
0.024069615391989863,-0.00042942776989466643,-3.499063031765687e-05
0.0246694680953366,-0.0004172429990228348,-3.5202298009886245e-05
0.02518194119480617,-0.0004047801467002991,-3.540780379631703e-05
0.025606901735690458,-0.0003920829359676749,-3.5607019566984026e-05
0.02594539759352546,-0.0003791948611353709,-3.579983901625979e-05
0.026199539918338025,-0.00036615862675740504,-3.5986177388232986e-05
0.026372373545666315,-0.00035301564839140397,-3.6165970957020186e-05
0.026467749560167706,-0.00033980561761494545,-3.633917627352177e-05
0.02649021154810606,-0.00032656612733787704,-3.650576920975998e-05
0.026444901753708852,-0.00031333234901242333,-3.666574382884755e-05
0.026337486345605968,-0.00030013675198759464,-3.6819111104097555e-05
0.02617409258093588,-0.0002870088572559592,-3.696589750640844e-05
0.025961246729072837,-0.000273975022428457,-3.7106143476329545e-05
0.02570580082383722,-0.0002610582605402295,-3.723990179707172e-05
0.025414838449828184,-0.00024827810072181316,-3.736723588738723e-05
0.02509555449943087,-0.00023565050248449838,-3.7488218038188806e-05
0.024755110527320805,-0.00022318783622781046,-3.760292762286688e-05
0.024400474301719627,-0.00021089894002055036,-3.771144931692897e-05
0.024038256905627456,-0.00019878925721871358,-3.7813871366238786e-05
0.023674561498593857,-0.00018686105261765825,-3.791028394369788e-05
0.02331485506643783,-0.00017511369847640032,-3.80007776314714e-05
0.022963870580433893,-0.00016354401706468238,-3.808544206035667e-05
0.02262554400962343,-0.00015214666341716805,-3.816436473047713e-05
0.022302988573100056,-0.00014091453027148716,-3.82376300288993e-05
0.021998506508655362,-0.00012983915650104831,-3.8305318450592434e-05
0.02171363607481663,-0.00011891112085518032,-3.836750601993149e-05
0.021449228514448634,-0.000108120404707864,-3.842426390132225e-05
0.021205546525422506,-9.745671094789621e-05,-3.847565818023619e-05
0.020982373418734,-8.690973096185709e-05,-3.8521749790713627e-05
0.020779121920066722,-7.646935712715691e-05,-3.856259456273588e-05
0.020594933621275548,-6.612584324182135e-05,-3.8598243362828125e-05
0.020428763127929676,-5.5869919054520045e-05,-3.862874230340221e-05
0.020279443848608383,-4.5692867310385534e-05,-3.865413299999344e-05
0.020145734988841153,-3.558657260102315e-05,-3.8674452859971287e-05
0.02002635142438525,-2.5543550997716548e-05,-3.868973539087097e-05
0.01991997900701461,-1.555696838986658e-05,-3.870001052071787e-05
0.019825277560024224,-5.620654248106873e-06,-3.8705304926377364e-05
0.01974087365049005,4.270883554521696e-06,-3.8705642369050763e-05
0.01966534620673357,1.4122438518827602e-05,-3.8701044038532425e-05
0.019597209510459658,2.393807744812591e-05,-3.869152890954069e-05
0.019534898299595007,3.372110440063957e-05,-3.86771141140785e-05
0.019476758107098723,4.3474018502313e-05,-3.865781533335276e-05
0.019421042094303207,5.319846855266349e-05,-3.863364721158902e-05
0.01936591519779891,6.289520787568902e-05,-3.860462379248193e-05
0.01930946715375374,7.256405346357718e-05,-3.857075897714711e-05
0.019249736592479,8.220385440013537e-05,-3.8532067000181183e-05
0.01918474819384559,9.181247559671652e-05,-3.848856291768197e-05
0.019112563724823284,0.00010138680357638373,-3.8440263097888695e-05
0.019031346065436085,0.00011092278102394858,-3.838718570173861e-05
0.018939434379819847,0.00012041547613526256,-3.832935113744881e-05
0.018835429035330618,0.00012985919198905016,-3.8266782470417726e-05
0.018718285092443245,0.00013924762052099364,-3.8199505767290216e-05
0.018587411328733275,0.00014857404462628778,-3.812755035100339e-05
0.018442768386254672,0.00015783158955503477,-3.805094894245806e-05
0.018284956694461195,0.00016701352082521375,-3.7969737664863e-05
0.018115283517377165,0.00017611358087817335,-3.7883955889437153e-05
0.01793579942436188,0.0001851263516136081,-3.779364590631421e-05
0.017749298062382176,0.00019404762598529413,-3.769885241191448e-05
0.017559278278253872,0.00020287477007045315,-3.7599621812900544e-05
0.017369872290057254,0.00021160705771253093,-3.74960013559548e-05
0.01718574681534719,0.00022024596248888204,-3.7388038100904446e-05
0.01701198615844288,0.00022879539573232956,-3.7275777761349144e-05
0.016853966714104714,0.00023726188395046646,-3.715926344142844e-05
0.016717230128588806,0.00024565468316113984,-3.7038534299650544e-05
0.016607358505513137,0.0002539858303196653,-3.6913624171280346e-05
0.016529852566786938,0.00026227013308774037,-3.678456018042849e-05
0.016490014456515996,0.0002705250998435661,-3.665136137219566e-05
0.016492839909229975,0.0002787708134350026,-3.651403739387602e-05
0.016542927173933627,0.00028702975520579347,-3.637258725171582e-05
0.016644410298971495,0.00029532658957401976,-3.622699816552087e-05
0.016800921713029722,0.00030368792257702006,-3.607724453748311e-05
0.017015584375510286,0.0003121420490991551,-3.592328704456407e-05
0.017291028275997905,0.0003207187022620321,-3.576507185672377e-05
0.01762942057123642,0.0003294488144738407,-3.56025299775398e-05
0.018032493919996236,0.00033836429309664885,-3.543557670064718e-05
0.01850155516558135,0.00034749780536804325,-3.526411117603101e-05
0.019037458809355104,0.0003568825588617774,-3.508801608497355e-05
0.01964053780292524,0.00036655205801484745,-3.4907157430754396e-05
0.02031049558011672,0.0003765398163606079,-3.4721384462160535e-05
0.02104627304500664,0.00038687900851688877,-3.453052975594116e-05
0.02184590896558492,0.00039760205401953667,-3.4334409490307053e-05
0.022706411974960986,0.0004087401342546731,-3.41328239432385e-05
0.023623659204355905,0.00042032265204950233,-3.3925558246662456e-05
0.02459233200960239,0.0004323766498529919,-3.3712383421186834e-05
0.02560589404200026,0.00044492620636589253,-3.3493057707132116e-05
0.02665661227041392,0.0004579918329439961,-3.3267328197304645e-05
0.027735618884850596,0.00047158989073281223,-3.303493276638544e-05
0.02883301106947944,0.00048573204822139476,-3.279560228164689e-05
0.029937984941401874,0.0005004247972241151,-3.2549063070285515e-05
0.031038998960461812,0.000515669043199581,-3.229503961017959e-05
0.032123961457974665,0.0005314597833041901,-3.203325740355365e-05
0.0331804372137545,0.0005477858829721225,-3.176344598698457e-05
0.03419586923184308,0.0005646299595835219,-3.1485342026345655e-05
0.035157813220311744,0.0005819683801965606,-3.1198692441400634e-05
0.036054182536827746,0.0005997713791358455,-3.090325750156753e-05
0.036873500117756745,0.0006180032997994915,-3.05988138318337e-05
0.03760515220128472,0.0006366229628792519,-3.0285157266164012e-05
0.03823963801746657,0.0006555841604339398,-2.9962105485335712e-05
0.038768810486925376,0.0006748362725600377,-2.9629500377087218e-05
0.03918610390262614,0.0006943250011574256,-2.9287210058657852e-05
0.0394867436372083,0.0007139932130423842,-2.89351305051079e-05
0.03966793031565182,0.0007337818815305992,-2.8573186731464654e-05
0.0397289891429577,0.0007536311113952516,-2.820133348323319e-05
0.039671475905660926,0.0007734812276574063,-2.781955539847003e-05
0.03949923314077513,0.0007932739049190153,-2.742786661532592e-05
0.03921839037491063,0.0008129533107979368,-2.7026309811396682e-05
0.03883730093791461,0.0008324672336261431,-2.6614954675290664e-05
0.038366407284897285,0.0008517681606818461,-2.6193895826713667e-05
0.03781802926515773,0.0008708142698193599,-2.5763250219088366e-05
0.03720607510626058,0.0008895702959122144,-2.532315407765547e-05
0.036545681233486636,0.0009080082349971513,-2.4873759444928132e-05
0.0358527924149698,0.0009261078534092654,-2.4415230422826526e-05
0.03514369665319886,0.0009438569756763075,-2.3947739215555134e-05
0.03443452977131236,0.0009612515322824353,-2.347146208856545e-05
0.033740764541295765,0.0009782953558605874,-2.2986575366529696e-05
0.033076700554813564,0.0009949997221346148,-2.2493251597030895e-05
0.03245497425507395,0.0010113826408370866,-2.199165600628797e-05
0.031886111800542176,0.0010274679123509908,-2.1481943367990953e-05
0.03137814822423429,0.0010432839773571849,-2.0964255395563907e-05
0.030936333567750697,0.001058862597805181,-2.0438718751773315e-05
0.03056294108211248,0.0010742374164676468,-1.990544374820511e-05
0.030257186014589564,0.0010894424482418223,-1.9364523782027743e-05
0.03001525780671554,0.0011045105591971486,-1.8816035530168e-05
0.02983046467156586,0.001119471989816719,-1.8260039892914535e-05
0.029693486600053318,0.0011343529776346238,-1.7696583651051698e-05
0.029592728823574783,0.0011491745314905308,-1.712570177377041e-05
0.02951476225591058,0.0011639514042604022,-1.6547420289832674e-05
0.029444832690130117,0.0011786913029969122,-1.5961759613018345e-05
0.029367418364135856,0.0011933943657604787,-1.5368738195828998e-05
0.029266815014469868,0.0012080529241051301,-1.4768376373362596e-05
0.02912772683914153,0.001222651559568533,-1.416070025244418e-05
0.028935840399179517,0.0012371674513781132,-1.3545745499707519e-05
0.028678357160697356,0.0012515710007680824,-1.292356088667097e-05
0.028344460410891777,0.0012658267051609796,-1.2294211460188704e-05
0.027925695047135372,0.0012798942440254864,-1.1657781222892087e-05
0.027416244148307047,0.001293729728824347,-1.1014375229679629e-05
0.026813092259232237,0.0013072870629262318,-1.0364121031741984e-05
0.026116070736752064,0.0013205193536752278,-9.70716942759162e-06
0.025327786537946474,0.0013333803179939024,-9.043694509674337e-06
0.024453443322095314,0.0013458256254589129,-8.373893023811133e-06
0.023500571105895676,0.0013578141290659107,-7.697983085179927e-06
0.022478685811396223,0.0013693089432952337,-7.016202317089641e-06
0.021398901736532028,0.0013802783401822157,-6.328805496220279e-06
0.020273518186194908,0.0013906964451628975,-5.636061799884001e-06
0.01911559770095621,0.0014005437241346853,-4.938251757559605e-06
0.01793854969171478,0.001409807260982853,-4.2356640112802205e-06
0.016755730680834146,0.0014184808310759903,-3.52859198826551e-06
0.015580070506694618,0.0014265647813728726,-2.817330585153294e-06
0.01442373271383765,0.0014340657321780057,-2.1021729567655743e-06
0.013297816236266202,0.0014409961194155317,-1.38340749386719e-06
0.012212102398017836,0.0014473735990741027,-6.613150642447814e-07
0.011174845641952215,0.001453220336084095,6.3833419544768e-08
0.010192601655650946,0.0014585621979084959,7.917790530429158e-07
0.009270086884088344,0.0014634278700434307,1.5222765700308974e-06
0.008410068279156567,0.001467847908834242,2.2550955147503156e-06
0.007613286928390494,0.0014718537476361288,2.9900209288679084e-06
0.006878420969504016,0.0014754766746106023,3.726853534429591e-06
0.006202092689653181,0.0014787468030253916,4.46540940383859e-06
0.005578923589289031,0.0014816920570951272,5.205519118868719e-06
0.005001640301603561,0.0014843371980678504,5.947026432659464e-06
0.0044612340705484175,0.0014867029166608884,6.689786461341648e-06
0.003947176743942029,0.001488805019364511,7.4336634453479975e-06
0.0034476954894136643,0.00149065373742285,8.178528134544837e-06
0.0029501054519476986,0.0014922531876581902,8.924254865815098e-06
0.0024411946875889695,0.0014936010126930745,9.670718415902914e-06
0.0019076499624599203,0.0014946882238555867,1.0417790725040079e-05
0.0013365058325635786,0.0014954992628043427,1.1165337596705061e-05
0.0007155934574479816,0.0014960122876268456,1.1913215484312859e-05
