frame_number,force
0,489.2606959600541
1,489.2720368261239
2,489.28495175673964
3,489.29942171609895
4,489.3154260418564
5,489.3329425031771
6,489.3519473621826
7,489.37241543661463
8,489.39432016139324
9,489.41763364700154
10,489.44232673300047
11,489.4683690353082
12,489.49572898606436
13,489.5243738648974
14,489.5542698203757
15,489.58538188057537
16,489.61767395216
17,489.65110880808663
18,489.68564806486575
19,489.72125215091467
20,489.75788026780447
21,489.7954903462618
22,489.83403899891005
23,489.87348147193643
24,489.91377159795553
25,489.95486175216695
26,489.9967028135002
27,490.03924413190157
28,490.0824335023641
29,490.1262171458899
30,490.17053969750594
31,490.21534420186634
32,490.2605721178062
33,490.30616333412627
34,490.3520561993592
35,490.3981875679787
36,490.4444928645883
37,490.4909061665747
38,490.53736030503296
39,490.58378698361355
40,490.6301169150738
41,490.67627997546884
42,490.7222053760244
43,490.7678218528396
44,490.8130578745483
45,490.85784186777124
46,490.9021024597236
47,490.9457687369464
48,490.9887705188761
49,491.0310386448213
50,491.07250527291086
51,491.11310418964734
52,491.15277112865544
53,491.1914440970069
54,491.2290637072796
55,491.2655735133377
56,491.30092034763874
57,491.3350546576999
58,491.36793083928313
59,491.39950756380915
60,491.4297480973266
61,491.4586206079687
62,491.48609845829986
63,491.5121604784097
64,491.5367912153011
65,491.5599811541964
66,491.5817269077209
67,491.60203136923485
68,491.62090382692276
69,491.63836003580934
70,491.6544222456704
71,491.6691191836987
72,491.6824859916737
73,491.6945641180884
74,491.70540116597385
75,491.7150506969995
76,491.72357199218027
77,491.73102976960416
78,491.73749386005943
79,491.7430388419472
80,491.7477436372255
81,491.75169107049123
82,491.7549673937755
83,491.75766178003516
84,491.75986578865763
85,491.7616728067227
86,491.76317747031777
87,491.764475070605
88,491.76566094942916
89,491.7668298890473
90,491.76807550013694
91,491.769489611803
92,491.7711616671745
93,491.77317812864015
94,491.77562189765365
95,491.7785717547481
96,491.78210182537725
97,491.7862810765101
98,491.7911728481062
99,491.79683442313717
100,491.8033166396956
101,491.81066354871507
102,491.8189121207552
103,491.82809200512173
104,491.83822534422455
105,491.84932664540617
106,491.8614027115076
107,491.87445263030094
108,491.8884678218353
109,491.90343214197657
110,491.9193220400478
111,491.93610676826097
112,491.9537486403088
113,491.97220333608993
114,491.99142024928955
115,492.01134287456694
116,492.0319092313552
117,492.05305232144985
118,492.0747006173565
119,492.0967785777936
120,492.11920718616597
121,492.1419045075828
122,492.164786260206
123,492.1877663971617
124,492.21075769554324
125,492.2336723488597
126,492.25642255863215
127,492.27892111995726
128,492.30108199511125
129,492.3228208689692
130,492.3440556803449
131,492.36470712428417
132,492.384699121684
133,492.403959254071
134,492.42241916263754
135,492.44001491150135
136,492.4566873156673
137,492.47238223441775
138,492.4870508307914
139,492.5006497973388
140,492.5131415476107
141,492.52449437218354
142,492.5346825577234
143,492.5436864677452
144,492.55149258428753
145,492.5580935106579
146,492.5634879366043
147,492.56768056848716
148,492.5706820278909
149,492.5725087223575
150,492.57318269161874
151,492.5727314321998
152,492.57118770288605
153,492.5685893132718
154,492.56497889731463
155,492.5604036734315
156,492.55491519220755
157,492.5485690722817
158,492.5414247245692
159,492.53354506489086
160,492.5249962153156
161,492.5158471948989
162,492.5061696008567
163,492.49603728151664
164,492.48552600262565
165,492.4747131086381
166,492.4636771804857
167,492.45249769122955
168,492.44125466106857
169,492.43002831333274
170,492.41889873305973
171,492.4079455294651
172,492.39724750329384
173,492.38688231994206
174,492.3769261893252
175,492.36745355354407
176,492.3585367833628
177,492.35024588434027
178,492.3426482132087
179,492.33580820496763
180,492.3297871112495
181,492.3246427505721
182,492.3204292708476
183,492.3171969240481
184,492.31499185252204
185,492.3138558862974
186,492.3138263508769
187,492.3149358855898
188,492.3172122733546
189,492.32067828340996
190,492.3253515290527
191,492.33124434272014
192,492.3383636707993
193,492.3467109901788
194,492.3562822479315
195,492.3670678250779
196,492.37905252540963
197,492.3922155907046
198,492.40653074394106
199,492.4219662620163
200,492.43848507892733
201,492.456044919512
202,492.474598462853
203,492.4940935334391
204,492.51447331727695
205,492.53567659958054
206,492.5576380207973
207,492.5802883487177
208,492.6035547659019
209,492.62736117290234
210,492.6516285082619
211,492.67627508603323
212,492.70121695090427
213,492.72636825016815
214,492.75164162084207
215,492.7769485894182
216,492.8021999812198
217,492.82730633611413
218,492.85217832717285
219,492.87672717869856
220,492.9008650799469
221,492.92450559095323
222,492.9475640371288
223,492.9699578896005
224,492.9916071284459
225,493.012434585965
226,493.03236626707593
227,493.0513316440586
228,493.06926392325926
229,493.0861002817842
230,493.10178207237084
231,493.1162549945471
232,493.1294692302503
233,493.14137954252703
234,493.15194533654983
235,493.16113068256925
236,493.16890430051706
237,493.17523950618244
238,493.18011411952534
239,493.18351033672855
240,493.185414568752
241,493.18581725013274
242,493.184712622358
243,493.18209849632626
244,493.17797599846614
245,493.1723493053165
246,493.16522537184585
247,493.1566136592311
248,493.1465258678605
249,493.13497568080305
250,493.121978522025
251,493.1075513324998
252,493.0917123663393
253,493.0744810083201
254,493.05587761355076
255,493.0359233692414
256,493.01464017752687
257,492.99205055741413
258,492.9681775634332
259,492.94304471835073
260,492.9166759570699
261,492.88909557852196
262,492.86032820206987
263,492.8303987248813
264,492.79933227709495
265,492.7671541723808
266,492.7338898523864
267,492.6995648243695
268,492.6642045922335
269,492.62783458232127
270,492.59048006644446
271,492.5521660854139
272,492.51291737660756
273,492.47275830886116
274,492.43171282739985
275,492.38980441098107
276,492.3470560429995
277,492.3034901979876
278,492.25912884471285
279,492.2139934668232
280,492.1681051014363
281,492.12148439511435
282,492.0741516758296
283,492.0261270394314
284,491.97743044969695
285,491.928081851607
286,491.8781012975872
287,491.8275090862266
288,491.77632591266615
289,491.7245730295772
290,491.67227241749606
291,491.6194469632131
292,491.56612064471517
293,491.5123187206764
294,491.4580679217314
295,491.4033966399073
296,491.34833511169774
297,491.2929155894348
298,491.23717249512174
299,491.18114255102654
300,491.1248648822348
301,491.0683810879158
302,491.0117352798779
303,490.9549740885786
304,490.8981466379165
305,490.84130449092976
306,490.7845015688969
307,490.7277940461521
308,490.6712402223019
309,490.614900372865
310,490.5588365789435
311,490.5031125364373
312,490.4477933454779
313,490.3929452811743
314,490.33863554740947
315,490.28493201630914
316,490.2319029571226
317,490.1796167593308
318,490.1281416553031
319,490.077545447423
320,490.02789524348884
321,489.9792572028159
322,489.93169629428104
323,489.8852760668196
324,489.84005843255295
325,489.79610346259125
326,489.75346919556364
327,489.7122114591059
328,489.6723837048401
329,489.6340368576298
330,489.5972191798572
331,489.56197615102997
332,489.5283503622661
333,489.49638142442507
334,489.4661058881903
335,489.4375571744754
336,489.4107655140688
337,489.38575789621893
338,489.36255802657865
339,489.3411862953381
340,489.32165975639094
341,489.3039921181512
342,489.2881937464212
343,489.2742716796934
344,489.2622296574196
345,489.25206816186346
346,489.2437844738582
347,489.23737274199414
348,489.23282406375705
349,489.23012657647473
350,489.2292655558998
351,489.23022352068915
352,489.2329803415502
353,489.23751335422014
354,489.24379747577893
355,489.251805324082
356,489.26150734023713
357,489.27287191398904
358,489.2858655116926
359,489.30045280638296
360,489.3165968093682
361,489.33425900279565
362,489.3533994727132
363,489.3739770420899
364,489.3959494030403
365,489.4192732473268
366,489.4439043943464
367,489.4697979161643
368,489.49690825941417
369,489.52518936380204
370,489.55459477669314
371,489.5850777631823
372,489.61659141130303
373,489.64908873232383
374,489.682522755934
375,489.7168466194235
376,489.7520136491105
377,489.78797743182594
378,489.82469187451477
379,489.86211125073055
380,489.90019023347634
381,489.9388839141792
382,489.9781478077817
383,490.017937844335
384,490.05821034811873
385,490.09892200585693
386,490.1400298257972
387,490.18149108949785
388,490.22326329850097
389,490.26530411860995
390,490.3075713247896
391,490.35002274954314
392,490.3926162371213
393,490.43530960530313
394,490.47806061589756
395,490.52082695472393
396,490.5635662216647
397,490.60623593122415
398,490.6487935236506
399,490.6911963861932
400,490.733401883709
401,490.7753673976765
402,490.81705037259565
403,490.8584083687685
404,490.8993991207831
405,490.9399806016088
406,490.9801110926456
407,491.01974926004885
408,491.05885423734577
409,491.0973857140312
410,491.13530402959003
411,491.17257027217534
412,491.20914638084923
413,491.2449952499097
414,491.28008083368184
415,491.3143682504521
416,491.34782388485735
417,491.3804154887095
418,491.4121122806778
419,491.4428850452413
420,491.4727062307577
421,491.5015500454841
422,491.5293925492086
423,491.5562117371683
424,491.5819876125245
425,491.6067022439846
426,491.63033980596134
427,491.6528865995577
428,491.6743310535266
429,491.69466370519956
430,491.71387716219556
431,491.73196604640964
432,491.7489269222869
433,491.76475821175023
434,491.7794600984237
435,491.7930344239279
436,491.8054845789027
437,491.8168153910045
438,491.8270330115581
439,491.8361448020929
440,491.84415922185786
441,491.85108571739323
442,491.8569346149011
443,491.86171701534164
444,491.86544469138573
445,491.868129985165
446,491.86978570629304
447,491.8704250305522
448,491.8700614004835
449,491.8687084294903
450,491.86637981085096
451,491.86308923247594
452,491.85885029769804
453,491.85367645193907
454,491.8475809146156
455,491.84057661509036
456,491.8326761310603
457,491.8238916277642
458,491.8142347969
459,491.8037167950663
460,491.7923481825964
461,491.78013886452413
462,491.7670980360255
463,491.75323413513354
464,491.73855480585416
465,491.7230668747576
466,491.70677634345725
467,491.6896883982953
468,491.6718074375546
469,491.6531371160256
470,491.6336804067095
471,491.6134396794159
472,491.59241679561455
473,491.5706132181604
474,491.54803013386777
475,491.5246685867756
476,491.5005296202194
477,491.4756144260229
478,491.4499244988366
479,491.42346179286915
480,491.39622887737244
481,491.3682290868157
482,491.33946666192816
483,491.3099468784081
484,491.27967616077973
485,491.2486621796175
486,491.21691393119966
487,491.1844417995237
488,491.15125760157235
489,491.11737461797276
490,491.0828076126134
491,491.0475728457226
492,491.01168808488654
493,490.97517261765074
494,490.9380472681861
495,490.9003344193181
496,490.8620580401178
497,490.8232437183299
498,490.78391869624954
499,490.74411190829335
500,490.70385401838104
501,490.6631774553214
502,490.6221164447216
503,490.580707036484
504,490.53898712745297
505,490.4969964790359
506,490.45477672963364
507,490.41237140151406
508,490.36982590135364
509,490.32718751321715
510,490.2845053825822
511,490.24183049039874
512,490.1992156169282
513,490.15671529573706
514,490.1143857583487
515,490.07228486973656
516,490.0304720543156
517,489.98900821162454
518,489.94795562074563
519,489.907377832705
520,489.8673395503877
521,489.8279064957064
522,489.7891452639057
523,489.7511231650491
524,489.71390805289866
525,489.67756814151625
526,489.6421718098762
527,489.6077873946742
528,489.5744829716211
529,489.54232612594626
530,489.51138371331007
531,489.481721612539
532,489.4534044716055
533,489.42649544827543
534,489.4010559467892
535,489.37714535167623
536,489.3548207594705
537,489.33413670913245
538,489.31514491257906
539,489.2978939876233
540,489.2824291963809
541,489.2687921925079
542,489.2570207804296
543,489.2471486891693
544,489.2392053627095
545,489.2332157683023
546,489.22920022404156
547,489.22717424740836
548,489.2271484271696
549,489.22912832165383
550,489.23311438684163
551,489.239101937726
552,489.24708114587514
553,489.25703707514504
554,489.2689497563436
555,489.2827943005717
556,489.29854105004654
557,489.31615576450616
558,489.33559984074714
559,489.3568305622722
560,489.3798013754077
561,489.4044621877558
562,489.4307596845362
563,489.4586376581107
564,489.4880373457062
565,489.51889777023587
566,489.5511560793817
567,489.58474787868914
568,489.6196075551057
569,489.65566858804027
570,489.6928638457105
571,489.7311258653532
572,489.77038711668155
573,489.81058024860755
574,489.8516383196657
575,489.89349501289666
576,489.93608483620574
577,489.9793433093268
578,490.0232071384294
579,490.0676143790935
580,490.1125045878781
581,490.1578189621058
582,490.20350046674366
583,490.24949394631443
584,490.2957462187655
585,490.34220614755617
586,490.388824688327
587,490.435554907458
588,490.4823519711999
589,490.52917310536066
590,490.57597752661536
591,490.6227263475437
592,490.66938245843886
593,490.7159103894813
594,490.76227615706034
595,490.8084470982587
596,490.85439169801293
597,490.90007941399136
598,490.94548050443063
599,490.990565863997
600,491.03530687225543
601,491.07967525855287
602,491.1236429860708
603,491.1671821567124
604,491.2102649376297
605,491.2528635095475
606,491.2949500363602
607,491.3364966546457
608,491.37747548087435
609,491.4178586334131
610,491.45761826617667
611,491.49672661101675
612,491.5351560263958
613,491.57287905014465
614,491.60986845408496
615,491.6460972983421
616,491.68153898355735
617,491.7161672998488
618,491.74995647194714
619,491.7828812002421
620,491.81491669765154
621,491.8460387225448
622,491.8762236084223
623,491.90544829133813
624,491.9336903359421
625,491.96092796072537
626,491.9871400629394
627,492.01230624382737
628,492.03640683496786
629,492.0594229264153
630,492.08133639694285
631,492.10212994626926
632,492.12178712887817
633,492.140292388979
634,492.15763109631115
635,492.17378958276515
636,492.18875518008855
637,492.2025162592535
638,492.21506227246005
639,492.22638379921784
640,492.23647259831836
641,492.24532166761236
642,492.2529253133445
643,492.25927923046595
644,492.2643805949416
645,492.2682281685
646,492.270822415334
647,492.27216562895296
648,492.2722620660479
649,492.2711180832388
650,492.268742272042
651,492.26514558717054
652,492.2603414630713
653,492.25434591330315
654,492.2471776072436
655,492.238857919081
656,492.2294109451603
657,492.21886348717584
658,492.2072450001306
659,492.19458750526053
660,492.18092546920997
661,492.16629565167693
662,492.1507369246924
663,492.1342900677833
664,492.1169975443746
665,492.0989032656644
666,492.0800523486943
667,492.06049087536866
668,492.0402656586344
669,492.019424020867
670,491.99801358792365
671,491.976082100764
672,491.9536772453195
673,491.930846500437
674,491.907637003114
675,491.88409542988427
676,491.86026789320914
677,491.836199851989
678,491.81193603544705
679,491.78752037937085
680,491.76299597317603
681,491.738405015825
682,491.7137887783883
683,491.6891875708337
684,491.66464071046585
685,491.6401864895269
686,491.6158621400227
687,491.59170379486125
688,491.56774644560534
689,491.5440238980675
690,491.520568727213
691,491.49741223238243
692,491.4745843931618
693,491.45211382580163
694,491.43002773997205
695,491.40835189561176
696,491.3871105595671
697,491.36632646176554
698,491.34602075102913
699,491.32621295139626
700,491.3069209208363
701,491.28816081511593
702,491.26994705990256
703,491.25229233384886
704,491.2352075645544
705,491.21870193823514
706,491.20278292289646
707,491.18745630403225
708,491.17272623136387
709,491.1585952747377
710,491.1450644869535
711,491.1321334711639
712,491.1198004507153
713,491.1080623398103
714,491.09691481396436
715,491.08635237965393
716,491.0763684425911
717,491.0669553737137
718,491.0581045716073
719,491.049806520099
720,491.0420508401914
721,491.0348263359858
722,491.0281210344849
723,491.02192221923815
724,491.016216457997
725,491.0109896250992
726,491.0062269200897
727,491.00191288466004
728,490.998031419964
729,490.9945658057893
730,490.9914987222811
731,490.98881227422766
732,490.9864880174366
733,490.98450698641767
734,490.9828497224963
735,490.9814963017493
736,490.98042636275613
737,490.97961913484073
738,490.979053467999
739,490.9787078660156
740,490.97856052431615
741,490.9785893738806
742,490.978772132217
743,490.9790863620927
744,490.9795095384355
745,490.9800191235002
746,490.98059265011517
747,490.981207812772
748,490.9818425665895
749,490.98247523455694
750,490.9830846236653
751,490.98365015043055
752,490.984151976006
753,490.98457115070056
754,490.9848897673187
755,490.9850911222667
756,490.98515988278416
757,490.98508225800225
758,490.98484617088184
759,490.98444142751794
760,490.9838598798641
761,490.9830955777468
762,490.98214490620506
763,490.98100670458393
764,490.97968236405507
765,490.97817590009254
766,490.97649399620735
767,490.97464601556476
768,490.97264397821795
769,490.97050250331415
770,490.96823871737223
771,490.9658721312351
772,490.96342448923673
773,490.96091959438843
774,490.9583831132159
775,490.9558423636381
776,490.95332608913986
777,490.9508642223405
778,490.94848764070963
779,490.9462279166376
780,490.9441170634682
781,490.94218727855184
782,490.9404706839826
783,490.9389990655553
784,490.93780361071515
785,490.93691464690187
786,490.9363613825956
787,490.936171654215
788,490.93637168250115
789,490.9369858421286
790,490.9380364482751
791,490.93954356397603
792,490.94152483227447
793,490.94399533723794
794,490.9469674976921
795,490.9504509970937
796,490.95445275243776
797,490.95897692437666
798,490.9640249696043
799,490.9695957350007
800,490.9756855913074
801,490.98228860261065
802,490.9893967269667
803,490.997000043199
804,491.0050869990518
805,491.0136446761177
806,491.02265906693026
807,491.03211535922753
808,491.0419982218709
809,491.05229208657573
810,491.0629814197006
811,491.0740509788779
812,491.08548605004773
813,491.0972726611749
814,491.1093977694855
815,491.1218494196285
816,491.1346168709901
817,491.14769069350797
818,491.1610628324448
819,491.1747266432655
820,491.18867689781524
821,491.20290976258144
822,491.21742274926254
823,491.23221463742925
824,491.2472853689046
825,491.26263591365057
826,491.27826810737946
827,491.2941844616664
828,491.3103879478795
829,491.32688175676964
830,491.3436690362474
831,491.3607526108112
832,491.3781346870853
833,491.39581655063466
834,491.4137982595002
835,491.43207833986816
836,491.45065348915995
837,491.4695182917494
838,491.4886649524782
839,491.50808305306225
840,491.5277593362653
841,491.5476775222803
842,491.5678181610811
843,491.58815852368383
844,491.60867253442393
845,491.62933074546953
846,491.65010035370995
847,491.6709452589718
848,491.69182616156263
849,491.71270069662717
850,491.73352360265295
851,491.7542469215027
852,491.7748202274819
853,491.7951908831284
854,491.81530431956645
855,491.83510433921066
856,491.85453343820205
857,491.8735331453066
858,491.89204437335303
859,491.9100077788609
860,491.9273641254408
861,491.9440546468334
862,491.96002140586154
863,491.97520764579883
864,491.9895581307061
865,492.00301947148984
866,492.01554043505143
867,492.02707223473834
868,492.0375688009053
869,492.046987030517
870,492.05528701461856
871,492.06243224256946
872,492.068389782317
873,492.07313043656166
874,492.0766288752959
875,492.07886374587014
876,492.07981776237244
877,492.0794777764846
878,492.0778348319509
879,492.07488420445895
880,492.07062542830437
881,492.0650623108278
882,492.0582029352766
883,492.0500596523769
884,492.04064906053526
885,492.02999197435435
886,492.0181133810727
887,492.005042384489
888,491.9908121357859
889,491.97545975046773
890,491.95902621047486
891,491.94155625040173
892,491.9230982264743
893,491.9037039664537
894,491.88342859808614
895,491.86233035337034
896,491.8404703459519
