frame_number,force
0,489.2606959683301
1,489.2720368344143
2,489.28495176505015
3,489.29942172443486
4,489.31542605022264
5,489.3329425115784
6,489.3519473706237
7,489.37241544510033
8,489.394320169928
9,489.4176336555893
10,489.442326741645
11,489.4683690440127
12,489.49572899483144
13,489.5243738737293
14,489.55426982927423
15,489.58538188954213
16,489.61767396119586
17,489.65110881719175
18,489.68564807403936
19,489.72125216015513
20,489.75788027710956
21,489.7954903556289
22,489.8340390083362
23,489.87348148141865
24,489.9137716074908
25,489.95486176175245
26,489.99670282313343
27,490.0392441415806
28,490.0824335120877
29,490.12621715565723
30,490.17053970731683
31,490.2153442117209
32,490.2605721277044
33,490.3061633440676
34,490.3520562093429
35,490.3981875780037
36,490.4444928746532
37,490.4909061766778
38,490.5373603151726
39,490.5837869937878
40,490.630116925281
41,490.67627998570777
42,490.7222053862938
43,490.7678218631382
44,490.8130578848746
45,490.8578418781235
46,490.9021024700996
47,490.94576874734344
48,490.98877052929134
49,491.031038655252
50,491.07250528335464
51,491.1131042001022
52,491.15277113911947
53,491.1914441074782
54,491.2290637177566
55,491.265573523819
56,491.3009203581228
57,491.33505466818525
58,491.367930849768
59,491.3995075742916
60,491.42974810780413
61,491.4586206184386
62,491.48609846875905
63,491.51216048885533
64,491.5367912257304
65,491.5599811646066
66,491.5817269181091
67,491.6020313795986
68,491.62090383725985
69,491.63836004611767
70,491.65442225594796
71,491.669119193944
72,491.6824860018858
73,491.694564128267
74,491.70540117611887
75,491.71505070711106
76,491.7235720022586
77,491.7310297796494
78,491.73749387007155
79,491.7430388519261
80,491.747743647171
81,491.7516910804033
82,491.75496740365384
83,491.7576617898796
84,491.75986579846796
85,491.7616728164991
86,491.76317748006096
87,491.76447508031663
88,491.7656609591122
89,491.7668298987056
90,491.76807550977543
91,491.76948962142717
92,491.7711616767905
93,491.7731781382546
94,491.7756219072736
95,491.77857176438084
96,491.78210183503023
97,491.78628108619085
98,491.79117285782246
99,491.7968344328971
100,491.8033166495077
101,491.81066355858815
102,491.81891213069844
103,491.82809201514453
104,491.83822535433626
105,491.84932665561587
106,491.8614027218238
107,491.87445264073153
108,491.88846783238733
109,491.903432152656
110,491.9193220508595
111,491.9361067792084
112,491.95374865139416
113,491.9722033473142
114,491.9914202606524
115,492.0113428860671
116,492.0319092429905
117,492.0530523332173
118,492.0747006292524
119,492.096778589814
120,492.1192071983065
121,492.14190451983876
122,492.16478627257203
123,492.18776640963193
124,492.21075770811115
125,492.23367236151813
126,492.25642257137315
127,492.2789211327722
128,492.30108200799094
129,492.3228208819041
130,492.3440556933251
131,492.36470713729966
132,492.3846991347244
133,492.40395926712614
134,492.42241917569737
135,492.44001492455624
136,492.45668732870814
137,492.4723822474364
138,492.48705084378093
139,492.500649810293
140,492.51314156052433
141,492.5244943850518
142,492.53468257054226
143,492.54368648051144
144,492.5514925969989
145,492.55809352331306
146,492.56348794920245
147,492.5676805810277
148,492.57068204037296
149,492.57250873478046
150,492.5731827039818
151,492.57273144450227
152,492.5711877151275
153,492.5685893254528
154,492.5649789094368
155,492.5604036854967
156,492.55491520421805
157,492.5485690842401
158,492.54142473647835
159,492.5335450767538
160,492.5249962271352
161,492.5158472066782
162,492.5061696125984
163,492.4960372932235
164,492.4855260143003
165,492.474713120283
166,492.4636771921027
167,492.4524977028199
168,492.4412546726331
169,492.43002832487144
170,492.4188987445723
171,492.4079455409506
172,492.3972475147507
173,492.38688233136867
174,492.3769262007201
175,492.36745356490565
176,492.35853679468914
177,492.3502458956292
178,492.3426482244579
179,492.33580821617466
180,492.3297871224118
181,492.3246427616874
182,492.32042928191436
183,492.3171969350653
184,492.3149918634895
185,492.31385589721583
186,492.31382636174743
187,492.3149358964137
188,492.3172122841332
189,492.3206782941449
190,492.3253515397461
191,492.3312443533741
192,492.3383636814156
193,492.34671100075917
194,492.3562822584772
195,492.36706783558975
196,492.37905253588826
197,492.3922156011506
198,492.4065307543549
199,492.42196627239827
200,492.43848508927783
201,492.45604492983153
202,492.47459847314195
203,492.49409354369766
204,492.51447332750513
205,492.53567660977825
206,492.55763803096426
207,492.5802883588537
208,492.60355477600706
209,492.62736118297715
210,492.65162851830746
211,492.676275096051
212,492.7012169608959
213,492.7263682601353
214,492.75164163078597
215,492.7769485993396
216,492.8021999911197
217,492.82730634599375
218,492.8521783370333
219,492.8767271885415
220,492.9008650897746
221,492.9245056007686
222,492.9475640469355
223,492.96995789940246
224,492.9916071382479
225,493.01243459577233
226,493.0323662768937
227,493.0513316538919
228,493.0692639331127
229,493.0861002916621
230,493.10178208227705
231,493.11625500448525
232,493.1294692402246
233,493.141379552542
234,493.1519453466103
235,493.1611306926804
236,493.1689043106843
237,493.17523951641147
238,493.1801141298217
239,493.1835103470973
240,493.18541457919764
241,493.1858172606587
242,493.18471263296686
243,493.18209850701976
244,493.1779760092451
245,493.17234931618094
246,493.1652253827947
247,493.1566136702628
248,493.146525878973
249,493.13497569199393
250,493.12197853329104
251,493.10755134383686
252,493.0917123777424
253,493.07448101978315
254,493.05587762506667
255,493.0359233808018
256,493.01464018912264
257,492.9920505690353
258,492.9681775750691
259,492.94304472999005
260,492.9166759687006
261,492.8890955901312
262,492.8603282136445
263,492.8303987364083
264,492.79933228856123
265,492.76715418377364
266,492.7338898636936
267,492.6995648355794
268,492.6642046033353
269,492.62783459330507
270,492.5904800773018
271,492.5521660961377
272,492.51291738719254
273,492.47275831930347
274,492.431712837697
275,492.3898044211317
276,492.3470560530036
277,492.3034902078468
278,492.25912885443034
279,492.2139934764039
280,492.16810511088676
281,492.12148440444224
282,492.0741516850436
283,492.02612704854073
284,491.97743045871186
285,491.9280818605386
286,491.8781013064472
287,491.82750909502727
288,491.77632592142027
289,491.7245730382978
290,491.67227242619657
291,491.61944697190694
292,491.5661206534159
293,491.5123187293974
294,491.4580679304861
295,491.4033966487092
296,491.3483351205608
297,491.29291559837367
298,491.23717250415143
299,491.18114256016236
300,491.1248648914916
301,491.0683810973081
302,491.0117352894198
303,490.95497409828334
304,490.8981466477959
305,490.84130450099354
306,490.78450157915296
307,490.72779405660657
308,490.67124023295963
309,490.6149003837292
310,490.55883659001523
311,490.5031125477155
312,490.44779335696
313,490.3929452928566
314,490.33863555928707
315,490.28493202837626
316,490.2319029693727
317,490.179616771757
318,490.1281416678979
319,490.0775454601779
320,490.02789525639497
321,489.9792572158644
322,489.9316963074624
323,489.88527608012447
324,489.8400584459721
325,489.79610347611543
326,489.7534692091837
327,489.71221147281307
328,489.67238371862584
329,489.63403687148593
330,489.59721919377614
331,489.5619761650041
332,489.5283503762878
333,489.4963814384866
334,489.46610590228454
335,489.43755718859535
336,489.4107655282078
337,489.3857579103707
338,489.3625580407379
339,489.3411863095
340,489.3216597705513
341,489.30399213230635
342,489.28819376056794
343,489.27427169382906
344,489.2622296715417
345,489.25206817596984
346,489.24378448794664
347,489.23737275606186
348,489.23282407780084
349,489.23012659049107
350,489.22926556988483
351,489.2302235346393
352,489.232980355462
353,489.2375133680902
354,489.2437974896044
355,489.25180533786045
356,489.2615073539665
357,489.27287192766767
358,489.28586552531885
359,489.3004528199551
360,489.3165968228843
361,489.3342590162536
362,489.3533994861102
363,489.3739770554226
364,489.39594941630486
365,489.4192732605196
366,489.4439044074638
367,489.4697979292029
368,489.49690827237066
369,489.5251893766726
370,489.5545947894736
371,489.58507777586846
372,489.6165914238909
373,489.64908874480955
374,489.68252276831385
375,489.71684663169384
376,489.75201366126777
377,489.78797744386696
378,489.82469188643665
379,489.86211126253005
380,489.9001902451498
381,489.9388839257232
382,489.97814781919305
383,490.0179378556108
384,490.0582103592561
385,490.09892201685324
386,490.14002983664994
387,490.18149110020437
388,490.2232633090587
389,490.2653041290165
390,490.3075713350432
391,490.3500227596425
392,490.39261624706603
393,490.43530961509333
394,490.47806062553417
395,490.5208269642087
396,490.5635662310011
397,490.60623594041743
398,490.6487935327072
399,490.69119639512076
400,490.7334018925163
401,490.77536740637385
402,490.817050381194
403,490.8584083772799
404,490.8993991292202
405,490.9399806099851
406,490.9801111009753
407,491.0197492683471
408,491.05885424562825
409,491.097385722314
410,491.1353040378895
411,491.17257028050756
412,491.20914638922966
413,491.24499525835336
414,491.28008084220284
415,491.31436825906354
416,491.3478238935717
417,491.3804154975383
418,491.4121122896317
419,491.4428850543295
420,491.47270623998776
421,491.50155005486204
422,491.5293925587387
423,491.55621174685297
424,491.58198762236407
425,491.60670225397786
426,491.6303398161053
427,491.6528866098478
428,491.6743310639573
429,491.69466371576414
430,491.71387717288616
431,491.7319660572178
432,491.7489269332036
433,491.7647582227662
434,491.7794601095294
435,491.7930344351135
436,491.8054845901585
437,491.8168154023214
438,491.82703302292714
439,491.83614481350594
440,491.8441592333073
441,491.8510857288726
442,491.8569346264048
443,491.8617170268647
444,491.86544470292375
445,491.8681299967139
446,491.8697857178492
447,491.87042504211263
448,491.87006141204563
449,491.868708441052
450,491.8663798224102
451,491.863089244031
452,491.85885030924754
453,491.85367646348175
454,491.8475809261504
455,491.84057662661655
456,491.83267614257784
457,491.8238916392732
458,491.8142348084005
459,491.80371680655884
460,491.79234819408185
461,491.7801388760037
462,491.7670980475007
463,491.75323414660636
464,491.7385548173268
465,491.7230668862324
466,491.7067763549364
467,491.6896884097804
468,491.67180744904687
469,491.6531371275256
470,491.63368041821735
471,491.6134396909314
472,491.5924168071373
473,491.57061322968974
474,491.54803014540306
475,491.5246685983162
476,491.50052963176466
477,491.4756144375719
478,491.44992451038837
479,491.42346180442246
480,491.39622888892563
481,491.3682290983671
482,491.3394666734759
483,491.3099468899501
484,491.2796761723139
485,491.24866219114165
486,491.2169139427115
487,491.18444181102103
488,491.151257613053
489,491.1173746294349
490,491.082807624055
491,491.0475728571418
492,491.01168809628143
493,490.97517262901914
494,490.9380472795262
495,490.9003344306286
496,490.86205805139787
497,490.8232437295791
498,490.7839187074677
499,490.74411191948
500,490.70385402953565
501,490.6631774664432
502,490.62211645580976
503,490.58070704753726
504,490.53898713846957
505,490.49699649001394
506,490.45477674057133
507,490.41237141240936
508,490.3698259122042
509,490.3271875240202
510,490.2845053933348
511,490.2418305010979
512,490.19921562757145
513,490.1567153063224
514,490.11438576887434
515,490.07228488020087
516,490.0304720647166
517,489.98900822196003
518,489.947955631014
519,489.9073778429054
520,489.8673395605202
521,489.8279065057717
522,489.7891452739059
523,489.7511231749869
524,489.7139080627774
525,489.6775681513395
526,489.6421718196477
527,489.6077874043973
528,489.5744829812987
529,489.5423261355804
530,489.511383722902
531,489.4817216220895
532,489.453404481115
533,489.42649545774367
534,489.40105595621577
535,489.3771453610606
536,489.3548207688119
537,489.33413671842976
538,489.31514492183135
539,489.29789399682994
540,489.28242920554203
541,489.2687922016246
542,489.25702078950394
543,489.24714869820406
544,489.2392053717082
545,489.2332157772688
546,489.22920023298013
547,489.2271742563234
548,489.2271484360656
549,489.22912833053533
550,489.233114395713
551,489.23910194659135
552,489.2470811547383
553,489.2570370840093
554,489.2689497652122
555,489.28279430944775
556,489.2985410589327
557,489.31615577340506
558,489.3355998496612
559,489.3568305712032
560,489.37980138435705
561,489.40446219672464
562,489.4307596935251
563,489.4586376671198
564,489.4880373547353
565,489.518897779285
566,489.55115608845125
567,489.5847478877798
568,489.6196075642187
569,489.65566859717717
570,489.69286385487334
571,489.7311258745442
572,489.77038712590354
573,489.8105802578639
574,489.85163832896006
575,489.8934950222329
576,489.9360848455877
577,489.97934331875786
578,490.02320714791244
579,490.0676143886308
580,490.1125045974712
581,490.15781897175566
582,490.20350047645064
583,490.2494939560784
584,490.29574622858564
585,490.342206157431
586,490.3888246982552
587,490.4355549174383
588,490.4823519812314
589,490.52917311544303
590,490.57597753674855
591,490.62272635772837
592,490.6693824686767
593,490.7159103997748
594,490.76227616741284
595,490.80844710867365
596,490.854391708494
597,490.9000794245418
598,490.94548051505325
599,490.9905658746941
600,491.0353068830285
601,491.0796752694028
602,491.12364299699743
603,491.16718216771454
604,491.21026494870523
605,491.2528635206929
606,491.2949500475707
607,491.33649666591583
608,491.3774754921983
609,491.4178586447848
610,491.45761827759003
611,491.4967266224656
612,491.5351560378743
613,491.5728790616471
614,491.6098684656059
615,491.64609730987627
616,491.6815389950995
617,491.7161673113938
618,491.7499564834897
619,491.7828812117768
620,491.8149167091721
621,491.8460387340448
622,491.87622361989537
623,491.90544830277787
624,491.9336903473423
625,491.9609279720794
626,491.98714007424076
627,492.0123062550699
628,492.036406846146
629,492.0594229375243
630,492.08133640797854
631,492.10212995722816
632,492.12178713975743
633,492.1402923997766
634,492.1576311070258
635,492.173789593396
636,492.1887551906357
637,492.20251626971765
638,492.2150622828421
639,492.22638380951867
640,492.23647260853875
641,492.2453216777531
642,492.25292532340643
643,492.25927924045004
644,492.2643806048493
645,492.2682281783334
646,492.270822425096
647,492.2721656386468
648,492.272262075677
649,492.2711180928066
650,492.26874228155197
651,492.26514559662627
652,492.2603414724766
653,492.25434592266197
654,492.2471776165598
655,492.2388579283586
656,492.22941095440325
657,492.21886349638834
658,492.20724500931664
659,492.19458751442346
660,492.18092547835244
661,492.1662956608006
662,492.15073693379793
663,492.1342900768708
664,492.1169975534441
665,492.0989032747159
666,492.08005235772794
667,492.0604908843845
668,492.0402656676321
669,492.019424029846
670,491.99801359688325
671,491.97608210970384
672,491.9536772542399
673,491.93084650933906
674,491.90763701199955
675,491.8840954387557
676,491.86026790206967
677,491.8361998608423
678,491.8119360442969
679,491.787520388221
680,491.7629959820304
681,491.7384050246876
682,491.7137887872633
683,491.68918757972546
684,491.66464071937884
685,491.6401864984656
686,491.6158621489912
687,491.5917038038629
688,491.5677464546429
689,491.5440239071429
690,491.52056873632733
691,491.497412241536
692,491.4745844023543
693,491.4521138350319
694,491.4300277492382
695,491.4083519049114
696,491.3871105688976
697,491.36632647112424
698,491.3460207604137
699,491.3262129608046
700,491.30692093026653
701,491.28816082456626
702,491.2699470693717
703,491.25229234333574
704,491.2352075740583
705,491.21870194775505
706,491.20278293243143
707,491.1874563135814
708,491.1727262409264
709,491.1585952843129
710,491.14506449654067
711,491.1321334807621
712,491.11980046032306
713,491.1080623494259
714,491.0969148235863
715,491.08635238928105
716,491.0763684522221
717,491.0669553833469
718,491.05810458124085
719,491.0498065297305
720,491.0420508498179
721,491.034826345604
722,491.02812104409117
723,491.0219222288284
724,491.0162164675669
725,491.01098963464403
726,491.0062269296047
727,491.0019128941407
728,490.99803142940635
729,490.99456581519024
730,490.99149873163793
731,490.98881228353827
732,490.9864880266995
733,490.9845069956321
734,490.9828497316625
735,490.98149631086784
736,490.98042637182834
737,490.97961914386843
738,490.97905347698435
739,490.9787078749613
740,490.9785605332248
741,490.9785893827546
742,490.9787721410589
743,490.9790863709056
744,490.9795095472227
745,490.9800191322654
746,490.98059265886195
747,490.98120782150386
748,490.98184257530977
749,490.9824752432694
750,490.9830846323739
751,490.98365015914
752,490.9841519847218
753,490.9845711594287
754,490.984889776065
755,490.9850911310365
756,490.98515989158204
757,490.98508226683185
758,490.98484617974594
759,490.9844414364189
760,490.9838598888038
761,490.9830955867269
762,490.9821449152266
763,490.9810067136473
764,490.97968237316013
765,490.97817590923853
766,490.9764940053925
767,490.974646024787
768,490.9726439874748
769,490.97050251260276
770,490.9682387266898
771,490.9658721405789
772,490.96342449860396
773,490.9609196037761
774,490.9583831226209
775,490.9558423730571
776,490.95332609856985
777,490.9508642317787
778,490.94848765015377
779,490.94622792608595
780,490.9441170729195
781,490.9421872880053
782,490.940470693438
783,490.938999075013
784,490.9378036201761
785,490.9369146563681
786,490.93636139206967
787,490.93617166369955
788,490.9363716919988
789,490.93698585164185
790,490.9380364578065
791,490.9395435735282
792,490.9415248418504
793,490.94399534684067
794,490.9469675073243
795,490.95045100675765
796,490.95445276213553
797,490.95897693411007
798,490.9640249793747
799,490.96959574480934
800,490.97568560115513
801,490.9822886124978
802,490.989396736893
803,490.99700005316384
804,491.00508700905385
805,491.01364468615503
806,491.02265907700036
807,491.03211536932736
808,491.04199823199724
809,491.05229209672575
810,491.0629814298723
811,491.0740509890705
812,491.08548606026136
813,491.0972726714103
814,491.1093977797442
815,491.12184942991286
816,491.13461688130326
817,491.147690703854
818,491.16106284282864
819,491.1747266536928
820,491.188676908292
821,491.2029097731139
822,491.2174227598567
823,491.23221464809046
824,491.2472853796375
825,491.2626359244588
826,491.27826811826554
827,491.29418447263185
828,491.310387958925
829,491.32688176789515
830,491.34366904745235
831,491.3607526220948
832,491.3781346984467
833,491.3958165620725
834,491.41379827101326
835,491.43207835145483
836,491.45065350081865
837,491.46951830347825
838,491.48866496427473
839,491.50808306492354
840,491.5277593481881
841,491.54767753426114
842,491.5678181731162
843,491.5881585357692
844,491.6086725465551
845,491.629330757642
846,491.65010036591866
847,491.6709452712111
848,491.6918261738264
849,491.71270070890915
850,491.73352361494653
851,491.7542469338013
852,491.77482023977876
853,491.7951908954164
854,491.8153043318386
855,491.83510435145996
856,491.85453345042174
857,491.87353315749004
858,491.8920443854938
859,491.9100077909529
860,491.92736413747815
861,491.9440546588107
862,491.960021417774
863,491.97520765764204
864,491.98955814247637
865,492.0030194831842
866,492.0155404466678
867,492.0270722462756
868,492.03756881236313
869,492.0469870418954
870,492.0552870259182
871,492.0624322537915
872,492.06838979346327
873,492.0731304476342
874,492.07662888629693
875,492.07886375680243
876,492.07981777323926
877,492.0794777872897
878,492.07783484269845
879,492.07488421515393
880,492.07062543895256
881,492.0650623214356
882,492.05820294585067
883,492.0500596629241
884,492.0406490710629
885,492.0299919848698
886,492.0181133915836
887,492.0050423950031
888,491.9908121463106
889,491.97545976101003
890,491.9590262210415
891,491.94155626099933
892,491.92309823710923
893,491.903703977132
894,491.8834286088135
895,491.86233036415166
896,491.8404703567914
897,491.8179123303471
