acceleration,velocity,displacement
-0.04304726429898389,0.0,0.0
-0.042820870264190146,-2.146703364079351e-05,-5.366758410198378e-09
-0.04256305368880435,-4.281301462904213e-05,-2.1436770477657286e-08
-0.042274194578390246,-6.402232669584078e-05,-4.8145605808878014e-08
-0.04195470540866122,-8.507955169260365e-05,-8.542107540598913e-08
-0.04160502996657478,-0.00010596948553641264,-1.331833347132432e-07
-0.04122564212370538,-0.00012667715355898268,-1.9134499448709204e-07
-0.04081704458531434,-0.0001471878252362376,-2.598112391858971e-07
-0.04037976766149176,-0.00016748702829793912,-3.384799525694413e-07
-0.03991436810163538,-0.0001875605622387209,-4.272418502036063e-07
-0.03942142802614673,-0.00020739451127066644,-5.259806185809531e-07
-0.03890155398261454,-0.00022697525677285675,-6.345730605918339e-07
-0.03835537615002027,-0.0002462894893060154,-7.52889247111552e-07
-0.03778354771454456,-0.00026532422027215663,-8.80792674506095e-07
-0.03718674444135695,-0.000284066793311132,-1.0181404279019171e-06
-0.03656566446364597,-0.00030250489553738274,-1.1647833501140458e-06
-0.035921028301005485,-0.0003206265687285456,-1.3205662161805279e-06
-0.035253579104845265,-0.0003384202205800083,-1.4853279135076664e-06
-0.034564083112347495,-0.0003558746361343065,-1.6589016276862451e-06
-0.03385333027821213,-0.0003729789894819464,-1.8411150340903083e-06
-0.03312213504826701,-0.0003897228558135662,-2.0317904954141865e-06
-0.032371337237792584,-0.0004060962238850811,-2.230745265338848e-06
-0.03160180297493437,-0.00042208950893826285,-2.437791698544684e-06
-0.030814425665557775,-0.0004376935660983859,-2.652737467303846e-06
-0.03001012693421749,-0.0004528997042483297,-2.875385784890525e-06
-0.029189857499367273,-0.0004676997003567259,-3.1055356360417886e-06
-0.02835459794901493,-0.0004820858142188215,-3.3429820146856755e-06
-0.027505359393758883,-0.000496050803554515,-3.5875161691290095e-06
-0.02664318398522215,-0.0005095879393992602,-3.838925854867453e-06
-0.025769145296105175,-0.0005226910217195921,-4.096995595147166e-06
-0.024884348559411976,-0.0005353543951834714,-4.361506949372932e-06
-0.023989930756251176,-0.0005475729650123871,-4.632238789421896e-06
-0.023087060524930317,-0.0005593422128326825,-4.908967583883164e-06
-0.022176937845851435,-0.0005706582124253779,-5.1914676901976785e-06
-0.02126079344728617,-0.0005815176452486623,-5.4795116546161885e-06
-0.0203398878829197,-0.0005919178155812137,-5.772870519823657e-06
-0.019415510250473163,-0.000601856665114562,-6.071314139997601e-06
-0.018488976541720596,-0.0006113327868126104,-6.374611502979394e-06
-0.017561627627747208,-0.0006203454378549773,-6.682531059146291e-06
-0.016634826886451525,-0.000628894551483527,-6.9948410564809176e-06
-0.015709957476602258,-0.0006369807475742904,-7.311309881245372e-06
-0.014788419259781017,-0.0006446053417583863,-7.631706403578541e-06
-0.013871625369349539,-0.0006517703529156689,-7.955800327247055e-06
-0.012960998423470713,-0.000658478508863874,-8.283362542691941e-06
-0.01205796637963132,-0.0006647332500646495,-8.614165482424072e-06
-0.011163958034013996,-0.0006705387311680608,-8.947983477732249e-06
-0.010280398178406057,-0.0006758998202211658,-9.284593115579555e-06
-0.009408702435218083,-0.0006808220953745718,-9.623773594478489e-06
-0.008550271796302994,-0.0006853118389324521,-9.965307078055245e-06
-0.007706486894130328,-0.0006893760286050605,-1.0308979044939623e-05
-0.006878702033984005,-0.000693022325837089,-1.065457863355016e-05
-0.0060682390144492435,-0.0006962590610991974,-1.100189898028423e-05
-0.005276380764350788,-0.0006990952160438973,-1.1350737549570003e-05
-0.004504364828425999,-0.0007015404024420915,-1.17008964541915e-05
-0.003753376738533759,-0.0007036048378338314,-1.2052182764260481e-05
-0.003024543310589665,-0.0007052993178461123,-1.2404408803180467e-05
-0.002318925911017389,-0.0007066351851515141,-1.2757392428929874e-05
-0.0016375137399750005,-0.0007076242950642622,-1.3110957298983817e-05
-0.0009812171800936153,-0.0007082789777942794,-1.3464933117198452e-05
-0.0003508612604144081,-0.0007086119974044064,-1.3819155860998123e-05
0.00025282071108505424,-0.0007086365075417388,-1.417346798723466e-05
0.0008291932851578357,-0.0007083660040426781,-1.4527718615130763e-05
0.0013777247073015217,-0.0007078142745445633,-1.4881763684777573e-05
0.0018979923694594826,-0.000706995345275373,-1.5235466089732557e-05
0.0023896877884589853,-0.0007059234252358934,-1.5588695782360374e-05
0.0028526210238776,-0.0007046128480328092,-1.594132985067755e-05
0.0032867244546483303,-0.0007030780116631777,-1.6293252565601545e-05
0.003692055839993588,-0.0007013333165895172,-1.664435539766472e-05
0.004068800596935677,-0.000699393102480285,-1.699453700243217e-05
0.004417273237930155,-0.0006972715840215685,-1.7343703174057633e-05
0.004737917928043501,-0.0006949827862300751,-1.7691766766620544e-05
0.005031308138926851,-0.0006925404797133325,-1.8038647583106397e-05
0.00529814539454637,-0.0006899581163299642,-1.8384272232117222e-05
0.005539257117750513,-0.0006872487657018899,-1.8728573952625184e-05
0.00575559359242701,-0.0006844250530243456,-1.9071492407306743e-05
0.005948224052831952,-0.0006814990986130308,-1.9412973445216087e-05
0.006118331906658867,-0.0006784824596231581,-1.9752968834775135e-05
0.00626720910012579,-0.0006753860743714619,-2.009143596827379e-05
0.0063962496426268915,-0.0006722202096857738,-2.0428337539288097e-05
0.006506942318617218,-0.0006689944116954628,-2.0763641194633407e-05
0.006600862621569515,-0.0006657174604604161,-2.1097319162672377e-05
0.006679663952077301,-0.0006623973288170044,-2.142934785999173e-05
0.006745068131482084,-0.0006590411457961146,-2.175970747864501e-05
0.006798855290629607,-0.0006556551649405867,-2.2088381556329185e-05
0.006842853199901741,-0.0006522447378179538,-2.241535653201882e-05
0.006878926115318614,-0.0006488142929891487,-2.2740621289720597e-05
0.00690896322643994,-0.0006453673206537091,-2.306416669313131e-05
0.006934866799875088,-0.0006419063631471303,-2.3385985114081523e-05
0.00695854011400426,-0.0006384330114186605,-2.370606995772297e-05
0.00698187527632944,-0.0006349479075710771,-2.4024415187470405e-05
0.0070067410064935534,-0.0006314507535003713,-2.4341014852738268e-05
0.007034970459174645,-0.0006279403256339543,-2.465586262252185e-05
0.007068349158586931,-0.0006244144957295139,-2.4968951327862717e-05
0.007108603125389507,-0.0006208702576585198,-2.5280272516209724e-05
0.007157387294447681,-0.0006173037600535605,-2.5589816020637745e-05
0.007216274336020595,-0.0006137103446459435,-2.589756954681262e-05
0.007286743992525577,-0.000610084590063807,-2.6203518280490058e-05
0.007370173029218643,-0.0006064203608083709,-2.6507644518208103e-05
0.007467825881191912,-0.0006027108610807682,-2.680992732368039e-05
0.007580846069855281,-0.0005989486930930065,-2.7110342212223832e-05
0.007710248459582324,-0.0005951259194606471,-2.7408860865362247e-05
0.007856912424895139,-0.0005912341292395278,-2.770545087753729e-05
0.008021575997101309,-0.0005872645071340287,-2.800007553663068e-05
0.00820483105568881,-0.0005832079053708311,-2.8292693639756896e-05
0.008407119622409918,-0.0005790549177013064,-2.858325934552493e-05
0.008628731302637221,-0.0005747959549700446,-2.8871722063692768e-05
0.008869801899270455,-0.0005704213216695676,-2.915802638285267e-05
0.00913031320178595,-0.0005659212928943035,-2.944211203649364e-05
0.009410093931388766,-0.0005612861911110098,-2.9723913907494966e-05
0.00970882180793914,-0.0005565064621761778,-3.0003362070816763e-05
0.010026026696880975,-0.0005515727500499727,-3.02803818738733e-05
0.010361094790059651,-0.0005464759696782376,-3.0554894053805354e-05
0.010713273767908543,-0.0005412073775387455,-3.08268148906096e-05
0.011081678882580112,-0.0005357586393761233,-3.109605639483832e-05
0.011465299896585278,-0.000530121894681332,-3.136252652835268e-05
0.011863008812098208,-0.0005242898175041611,-3.162612945639905e-05
0.01227356833112655,-0.0005182556732183549,-3.1886765829079676e-05
0.012695640990209162,-0.000512013370888021,-3.214433309010627e-05
0.013127798909137789,-0.0005055575109131843,-3.239872581055657e-05
0.013568534081782447,-0.0004988834276654543,-3.2649836045201234e-05
0.014016269125449815,-0.0004919872268636462,-3.289755370883351e-05
0.014469368400456149,-0.0004848658174821697,-3.314176696991997e-05
0.014926149415766454,-0.00047751693802811405,-3.338236265879754e-05
0.015384894445509322,-0.0004699391770627951,-3.361922668757026e-05
0.015843862287049152,-0.0004621319878796555,-3.385224447880587e-05
0.016301300087847862,-0.0004540956972859312,-3.408130140009727e-05
0.016755455155304234,-0.00044583150847514317,-3.430628320153754e-05
0.017204586646177397,-0.0004373414980247728,-3.4527076453162516e-05
0.017646977017254994,-0.0004286286071089147,-3.474356897944594e-05
0.018080943113012483,-0.0004196966270763478,-3.495565028799226e-05
0.018504846772574444,-0.0004105501796049511,-3.516321198966258e-05
0.018917104856833882,-0.00040119469169759905,-3.536614820748822e-05
0.01931619862330435,-0.0003916363658275645,-3.556435597186951e-05
0.019700682405469922,-0.0003818821455703709,-3.575773559971899e-05
0.020069191578608658,-0.0003719396770743513,-3.594619105538017e-05
0.020420449811428036,-0.0003618172667268421,-3.612963029133047e-05
0.02075327561305895,-0.00035152383537072037,-3.630796556685486e-05
0.021066588189918304,-0.00034106886941997604,-3.648111374305253e-05
0.021359412625595327,-0.00033046236921609765,-3.664899655271155e-05
0.021630884387525494,-0.00031971479496281744,-3.681154084375628e-05
0.021880253149621023,-0.0003088370105785308,-3.696867879514162e-05
0.022106885906943024,-0.00029784022581438976,-3.712034810423985e-05
0.0223102693525534,-0.00028673593699951567,-3.726649214494333e-05
0.022490011489680207,-0.00027553586678895727,-3.7407060095890445e-05
0.022645842463659478,-0.00026425190330062236,-3.754200703841284e-05
0.0227776146167333,-0.00025289603903052416,-3.767129402399563e-05
0.022885301792776855,-0.00024148030992814662,-3.7794888111235294e-05
0.022968997943341472,-0.00023001673499411704,-3.791276237246586e-05
0.02302891510367152,-0.0002185172567323638,-3.802489587039748e-05
0.023065380812214265,-0.00020699368275339236,-3.813127360526892e-05
0.023078835040990352,-0.0001954576287900912,-3.823188643315479e-05
0.023069826694224888,-0.0001839204633562874,-3.8326730956191386e-05
0.023039009724939937,-0.0001723932542514962,-3.8415809385593335e-05
0.022987138913835064,-0.00016088671709180245,-3.849912937842916e-05
0.022915065348810316,-0.0001494111660261411,-3.8576703849208644e-05
0.022823731635829948,-0.000137976466779981,-3.864855075741018e-05
0.022714166862528282,-0.00012659199215539146,-3.871469287214402e-05
0.02258748132577799,-0.00011526658010831489,-3.877515751520995e-05
0.022444861026433324,-0.00010400849452026206,-3.8829976283867094e-05
0.02228756193264288,-9.282538878049301e-05,-3.887918475469228e-05
0.0221169040178391,-8.172427229287251e-05,-3.892282216996062e-05
0.021934265087064607,-7.071148001664658e-05,-3.8960931108038e-05
0.021741074412335394,-5.9792645141796585e-05,-3.899355713932761e-05
0.021538806203886745,-4.897267498774105e-05,-3.902074846935999e-05
0.02132897294877293,-3.825573019957614e-05,-3.9042555570656825e-05
0.02111311864926875,-2.7645207300065714e-05,-3.9059030805031736e-05
0.020892811991039345,-1.7143724639988688e-05,-3.907022803801675e-05
0.0206696394690407,-6.7531117749686765e-06,-3.907620224712049e-05
0.020445198500563425,3.5255977174323534e-06,-3.907700912563487e-05
0.02022109055793496,1.3692169982056949e-05,-3.907270468371e-05
0.01999891435280388,2.3747171209741657e-05,-3.906334484841205e-05
0.019780259098132857,3.369196457247584e-05,-3.9048985064466496e-05
0.019566697867645918,4.3528703813920536e-05,-3.90296798973699e-05
0.01935978107047972,5.326032354845195e-05,-3.9005482640529305e-05
0.019161030060483905,6.289052633119285e-05,-3.8976444928059396e-05
0.018971930901191657,7.242376657161175e-05,-3.8942616354833695e-05
0.018793928306711203,8.186523137358746e-05,-3.89040441053474e-05
0.018628419775324534,9.12208183940964e-05,-3.8860772592905474e-05
0.01847674992764808,0.00010049711081983955,-3.881284311060199e-05
0.018340205058696508,0.00010970134956642569,-3.876029349550543e-05
0.018220007914957773,0.00011884140280983926,-3.870315780741136e-05
0.018117312708773186,0.00012792573296577199,-3.864146602346746e-05
0.01803320037738137,0.00013696336123731064,-3.857524374991669e-05
0.017968674084628954,0.00014596382985281321,-3.850451195214416e-05
0.017924654955283916,0.00015493716211279144,-3.8429286704152756e-05
0.017901978028655757,0.00016389382035877635,-3.834957895853486e-05
0.017901388421670637,0.00017284466197135795,-3.826539433795233e-05
0.017923537702684865,0.00018180089350244684,-3.8176732949083874e-05
0.017968980493097676,0.00019077402305139247,-3.808358921994541e-05
0.0180381713278508,0.0001997758110066296,-3.798595176143091e-05
0.018131461815489813,0.00020881821929246477,-3.788380325385613e-05
0.018249098144462836,0.00021791335928245294,-3.7777120359212405e-05
0.018391218983239907,0.00022707343856437863,-3.76658736597507e-05
0.018557853814466157,0.00023631070676380516,-3.755002762341865e-05
0.018748921730862747,0.0002456374006501374,-3.742954059656517e-05
0.01896423071184851,0.0002550656887608152,-3.730436482421243e-05
0.01920347740043739,0.00026460761578888666,-3.7174446498075004e-05
0.019466247406967025,0.0002742750469907378,-3.7039725832380096e-05
0.01975201617176387,0.0002840796128854205,-3.690013716741106e-05
0.02006015041680543,0.0002940326545325628,-3.675560910055656e-05
0.02038991020548644,0.0003041451696881358,-3.660606464450139e-05
0.020740451612445383,0.00031442776014261876,-3.64514214120437e-05
0.021110829985541518,0.0003248905805421155,-3.629159182687252e-05
0.021500003761946936,0.0003355432889789876,-3.612648335949224e-05
0.021906838782318683,0.000346394999615054,-3.595599878734373e-05
0.022330113035717324,0.00035745423756956303,-3.578003647804757e-05
0.022768521770569854,0.0003687288962711348,-3.55984906945874e-05
0.023220682926712637,0.00038022619744545544,-3.5411251921158254e-05
0.02368514287319633,0.0003919526538954327,-3.521820720832303e-05
0.02416038246141544,0.0004039140352290856,-3.50192405360419e-05
0.02464482341313224,0.00041611533669772254,-3.48142331930602e-05
0.025136835058255744,0.0004285607513155695,-3.4603064171056876e-05
0.025634741424101687,0.0004412536454361589,-3.438561057186895e-05
0.02613682866089952,0.0004541965379574092,-3.4161748026020554e-05
0.02664135276972531,0.00046739108331506546,-3.3931351120702437e-05
0.02714654758260146,0.00048083805840314715,-3.3694293835272885e-05
0.02765063293435613,0.0004945373535323865,-3.3450449982289e-05
0.02815182296135193,0.0005084879675063135,-3.319969365202932e-05
0.028648334459062532,0.0005226880068614171,-3.294189965843739e-05
0.029138395227017323,0.0005371346892829371,-3.2676943984401305e-05
0.029620252327792338,0.0005518243511716395,-3.240470422428766e-05
0.030092180188397426,0.000566752459300687,-3.2125060021669575e-05
0.030552488477468033,0.0005819136264671534,-3.1837893500227616e-05
0.03099952969785913,0.0005973016310109852,-3.1543089685858084e-05
0.03143170643780518,0.0006129094400449013,-3.124053691809411e-05
0.0318474782235264,0.0006287292362102342,-3.093012724903033e-05
0.03224536791517664,0.0006447524477449099,-3.0611756828041544e-05
0.03262396759073337,0.0006609697816213874,-3.028532627069997e-05
0.03298194387012049,0.0006773712594866008,-2.9950741010422974e-05
0.03331804264026092,0.0006939462561141961,-2.9607911631522776e-05
0.033631093144847975,0.0007106835400604734,-2.9256754182479108e-05
0.03392001140114729,0.0007275713161969722,-2.8897190468414747e-05
0.0341838029073278,0.000744597269774091,-2.8529148321921982e-05
0.03442156461275432,0.0007617486116541116,-2.815256185156493e-05
0.034632486136046234,0.0007790121243413117,-2.7767371667566075e-05
0.034815850223263306,0.0007963742084311391,-2.7373525084372962e-05
0.03497103244054588,0.0008138209290970914,-2.6970976299990905e-05
0.03509750009964475,0.0008313380622321391,-2.6559686552158597e-05
0.03519481042760415,0.0008489111398639513,-2.6139624251634575e-05
0.03526260801258187,0.0008665254944739978,-2.571076509305009e-05
0.03530062158096192,0.0008841663018723838,-2.5273092143963494e-05
0.035308660180486354,0.0009018186223127458,-2.482659591291721e-05
0.035286608855812536,0.0009194674395718206,-2.4371274397446067e-05
0.035234423906600525,0.0009370976977624238,-2.3907133113112506e-05
0.035152127819361875,0.0009546943356939144,-2.343418510474842e-05
0.03503980396897074,0.0009722423186409975,-2.2952450941164692e-05
0.03489759119518945,0.0009897266674320376,-2.2461958694646432e-05
0.03472567836841736,0.0010071324848229394,-2.1962743906582687e-05
0.034524299059703695,0.0010244449791799698,-2.145484954058196e-05
0.03429372641971257,0.0010416494855498238,-2.093832592439951e-05
0.03403426835206978,0.0010587314842427694,-2.0413230681951364e-05
0.03374626304391987,0.0010756766170917668,-1.987962865661773e-05
0.033430074896166,0.0010924707015767883,-1.933759182695059e-05
0.033086090880800084,0.0011090997430210298,-1.8787199215801134e-05
0.03271471734023839,0.0011255499450762894,-1.8228536793776806e-05
0.03231637722786595,0.0011418077187183154,-1.7661697377828156e-05
0.03189150776888775,0.001157859689967504,-1.70867805256567e-05
0.03144055850292692,0.0011736927065354576,-1.650389242653096e-05
0.030963989660080696,0.0011892938435762094,-1.5913145789003044e-05
0.030462270817705927,0.0012046504086956561,-1.5314659725935078e-05
0.029935879780503497,0.0012197499463452086,-1.4708559637174862e-05
0.029385301620149212,0.0012345802416953717,-1.4094977090164718e-05
0.028811027805000933,0.0012491293240516593,-1.347404969872796e-05
0.02821355534915311,0.001263385469840198,-1.2845921000254995e-05
0.0275933859174189,0.0012773372051568409,-1.2210740331505735e-05
0.026951024838397807,0.001290973307845795,-1.1568662703255077e-05
0.026286979995466107,0.001304282809054261,-1.0919848674030062e-05
0.02560176058175542,0.0013172549941985665,-1.0264464223216856e-05
0.024895875723442765,0.001329879403274866,-9.602680623848498e-06
0.024169832998389745,0.001342145830455324,-8.93467431541595e-06
0.023424136899611477,0.0013540443229298244,-8.260626777069664e-06
0.022659287308729008,0.0013655651789819096,-7.58072440159173e-06
0.021875778050038704,0.0013766989453216016,-6.8951583705158516e-06
0.021074095590739285,0.0013874364137317961,-6.204124530752502e-06
0.020254717941628864,0.0013977686171148882,-5.5078232730408304e-06
0.019418113801558123,0.001407686825050685,-4.806459412499437e-06
0.018564741980612417,0.0014171825389962275,-4.100242071487709e-06
0.017695051130634402,0.0014262474872740393,-3.389384564920142e-06
0.01680947980704276,0.0014348736200084586,-2.6741042880995177e-06
0.015908456880973355,0.0014430531041804626,-1.9546226070522876e-06
0.014992402309621355,0.0014507783189781113,-1.231164751262644e-06
0.014061728253641109,0.0014580418516189268,-5.039597086133845e-07
0.01311684051377526,0.0014648364938107809,2.2675987774404235e-07
0.012158140256963402,0.0014711552390034655,9.60757810947604e-07
0.011186026013641626,0.0014769912805711167,1.6977944408412496e-06
0.010200895939014774,0.0014823380110592808,2.437626763748849e-06
0.00920315033317011,0.001487189022627327,3.180008522170501e-06
0.00819319441027471,0.0014915381088131882,3.92469030503063e-06
0.007171441300731827,0.00149537926774094,4.671419649169162e-06
0.006138315264738297,0.0014987067068823075,5.419941142824974e-06
0.005094255092624671,0.0015015148494716482,6.169996531913463e-06
0.004039717665971932,0.0015037983426612973,6.921324829946699e-06
0.002975181649564529,0.0015055520674901815,7.673662432484569e-06
0.0019011512741254003,0.0015067711507211038,8.42674323703739e-06
0.0008181601546525584,0.0015074509785782983,9.18029876936224e-06
-0.0002732249280146704,0.0015075872123849578,9.934058317103054e-06
-0.0013724003725417461,0.0015071758060598186,1.0687749071714248e-05
-0.00247872233606214,0.0015062130253826677,1.144109627957487e-05
-0.0035915036632700723,0.0015046954688828346,1.2193823403141245e-05
