acceleration,velocity,displacement
-0.04304726424692273,0.0,0.0
-0.04282087021241104,-2.146703361483344e-05,-5.36675840370836e-09
-0.04256305363742121,-4.281301457729151e-05,-2.1436770451739596e-08
-0.04227419452750791,-6.402232661852379e-05,-4.814560575069342e-08
-0.041954705358376594,-8.507955158999491e-05,-8.542107530282311e-08
-0.04160502991698251,-0.00010596948540883468,-1.331833345525305e-07
-0.041225642074899,-0.00012667715340680506,-1.9134499425644044e-07
-0.04081704453738965,-0.00014718782505987723,-2.59811238873111e-07
-0.04037976761453663,-0.0001674870280978588,-3.38479952162545e-07
-0.039914368055728615,-0.0001875605620154251,-4.27241849690866e-07
-0.03942142798136147,-0.00020739451102469764,-5.259806179508967e-07
-0.03890155393901487,-0.00022697525650479172,-6.34573059833269e-07
-0.03835537610765781,-0.0002462894890164599,-7.528892462135819e-07
-0.037783547673463,-0.00026532421996174006,-8.807926734581318e-07
-0.03718674440159316,-0.0002840667929805041,-1.0181404266936928e-06
-0.03656566442523006,-0.0003025048951872099,-1.1647833487356212e-06
-0.03592102826395509,-0.0003206265683595062,-1.3205662146223002e-06
-0.03525357906916214,-0.0003384202201927855,-1.4853279117603731e-06
-0.03456408307801641,-0.0003558746357295801,-1.6589016257409645e-06
-0.03385333024519969,-0.0003729789890603841,-1.8411150319384556e-06
-0.03312213501652852,-0.00038972285537581614,-2.0317904930475057e-06
-0.03237133720727539,-0.0004060962234317671,-2.2307452627494016e-06
-0.031601802945579065,-0.00042208950846998075,-2.4377916957248385e-06
-0.030814425637303813,-0.0004376935656157015,-2.652737464246259e-06
-0.030010126907004355,-0.0004528997037517785,-2.8753857815881293e-06
-0.029189857473139007,-0.00046769969984681437,-3.1055356324877777e-06
-0.028354597923721272,-0.00048208581369602944,-3.3429820108734885e-06
-0.0275053593693598,-0.0004960508030192998,-3.587516165052321e-06
-0.02664318396169353,-0.0005095879388520631,-3.838925850520161e-06
-0.02576914527343087,-0.0005226910211608442,-4.096995590523388e-06
-0.0248843485375872,-0.0005353543946135987,-4.361506944466998e-06
-0.023989930735277987,-0.000547572964431815,-4.632238784228352e-06
-0.02308706050480853,-0.0005593422122418366,-4.9089675783967645e-06
-0.022176937826570677,-0.0005706582118246814,-5.191467684413394e-06
-0.021260793428830416,-0.0005815176446385317,-5.479511648529197e-06
-0.02033988786526729,-0.0005919178149620561,-5.772870513429344e-06
-0.01941551023359678,-0.0006018566644867721,-6.071314133291551e-06
-0.018488976525587286,-0.0006113327861765682,-6.374611495957387e-06
-0.017561627612321776,-0.0006203454372110455,-6.68253105180429e-06
-0.016634826871696536,-0.0006288945508320501,-6.9948410488150636e-06
-0.01570995746248485,-0.0006369807469155954,-7.311309873251975e-06
-0.014788419246276295,-0.0006446053410927858,-7.63170639525407e-06
-0.013871625356432648,-0.000651770352243463,-7.955800318588132e-06
-0.012960998411116824,-0.0006584785081853503,-8.283362533695335e-06
-0.012057966367809965,-0.000664733249380082,-8.614165473086694e-06
-0.011163958022691333,-0.0006705387304777073,-8.947983468051142e-06
-0.010280398167536927,-0.0006758998195252644,-9.284593105551884e-06
-0.009408702424750552,-0.0006808220946733362,-9.623773584101534e-06
-0.008550271786179486,-0.0006853118382260687,-9.965307067326385e-06
-0.007706486884296701,-0.0006893760278936878,-1.0308979033856324e-05
-0.006878702024392956,-0.0006930223251208602,-1.0654578622109961e-05
-0.0060682390050614396,-0.0006962590603782238,-1.1001898968484733e-05
-0.005276380755128063,-0.0006990952153182711,-1.1350737537408857e-05
-0.004504364819331349,-0.0007015404017118859,-1.1700896441666397e-05
-0.0037533767295370116,-0.0007036048370991031,-1.2052182751369143e-05
-0.00302454330166181,-0.0007052993171069027,-1.2404408789920644e-05
-0.00231892590212944,-0.0007066351844078506,-1.2757392415299333e-05
-0.0016375137310968575,-0.0007076242943161572,-1.3110957284980335e-05
-0.0009812171711917946,-0.0007082789770417293,-1.3464933102819806e-05
-0.0003508612514497706,-0.0007086119966473897,-1.3819155846242084e-05
0.0002528207201607091,-0.0007086365067802119,-1.4173467972098985e-05
0.0008291932943995032,-0.0007083660032765718,-1.452771859961318e-05
0.001377724716768724,-0.0007078142737737798,-1.4881763668875768e-05
0.001897992379209463,-0.0007069953444997852,-1.5235466073444159e-05
0.002389687798545576,-0.0007059234244553464,-1.5588695765682942e-05
0.002852621034355764,-0.0007046128472471211,-1.5941329833608558e-05
0.0032867244655752983,-0.0007030780108721383,-1.6293252548138372e-05
0.0036920558514175134,-0.00070133331579289,-1.664435537980463e-05
0.00406880060890018,-0.0006993931016778107,-1.6994536984172304e-05
0.004417273250476592,-0.0006972715832129665,-1.7343703155394997e-05
0.004737917941210968,-0.0006949827854150445,-1.7691766747552e-05
0.005031308152744247,-0.0006925404788915557,-1.803864756362865e-05
0.0052981454090323945,-0.0006899581155011116,-1.838427221222682e-05
0.005539257132911401,-0.0006872487648656256,-1.8728573932318504e-05
0.005755593608263346,-0.0006844250521803319,-1.9071492386579993e-05
0.005948224069340939,-0.0006814990977609309,-1.941297342406531e-05
0.00611833192383433,-0.000678482458762637,-1.97529688131962e-05
0.006267209117964987,-0.0006753860735021872,-2.0091435946262408e-05
0.006396249661130516,-0.0006722202088074134,-2.042833751683981e-05
0.006506942337787132,-0.000668994410807684,-2.0763641171743585e-05
0.006600862641407616,-0.0006657174595628853,-2.1097319139336226e-05
0.006679663972584385,-0.0006623973279093873,-2.1429347836204295e-05
0.006745068152663528,-0.0006590411448780753,-2.1759707454401162e-05
0.006798855312489692,-0.000655655164011787,-2.208838153162363e-05
0.006842853222443652,-0.0006522447368780537,-2.241535650684609e-05
0.006878926138538771,-0.000648814292037808,-2.2740621264075055e-05
0.006908963250323459,-0.0006453673196905925,-2.3064166667007155e-05
0.006934866824388966,-0.0006419063621719143,-2.3385985087472782e-05
0.006958540139089443,-0.0006384330104310447,-2.3706069930623524e-05
0.006981875301908756,-0.0006349479065707952,-2.4024415159873983e-05
0.007006741032469449,-0.0006314507524872007,-2.434101482463848e-05
0.007034970485437126,-0.0006279403246077241,-2.4655862593912213e-05
0.007068349185013557,-0.0006244144946901114,-2.4968951298736672e-05
0.007108603151847667,-0.0006208702566058961,-2.5280272486560674e-05
0.007157387320796856,-0.0006173037589877349,-2.5589815990459083e-05
0.007216274362115762,-0.0006137103435670067,-2.5897569516097767e-05
0.007286744018218342,-0.0006100845889719232,-2.62035182492325e-05
0.007370173054358373,-0.000606420359703779,-2.6507644486401423e-05
0.0074678259056257315,-0.000602710859963783,-2.6809927291318313e-05
0.007580846093418995,-0.0005989486919640219,-2.7110342179300265e-05
0.007710248482108354,-0.00059512591832014,-2.7408860831871307e-05
0.007856912446206848,-0.0005912341280880613,-2.7705450843473357e-05
0.008021576017016403,-0.0005872645059722554,-2.8000075501988436e-05
0.008204831074019335,-0.0005832079041994965,-2.8292693604531374e-05
0.0084071196389702,-0.0005790549165212492,-2.858325930971156e-05
0.008628731317246131,-0.0005747959537821951,-2.887172202728742e-05
0.00886980191175821,-0.000570421320474944,-2.9158026345851706e-05
0.009130313211996392,-0.0005659212916940054,-2.9442111998893944e-05
0.009410093939181612,-0.0005612861899062109,-2.9723913869293997e-05
0.009708821813194528,-0.0005565064609681169,-3.0003362032012578e-05
0.010026026699503999,-0.0005515727488399423,-3.028038183446459e-05
0.010361094789980353,-0.0005464759684675712,-3.055489401379147e-05
0.01071327376508305,-0.0005412073763288053,-3.082681484999056e-05
0.011081678876990629,-0.0005357586381682869,-3.109605635361484e-05
0.011465299888237815,-0.0005301218934769797,-3.136252648652615e-05
0.011863008801018043,-0.0005242898163046657,-3.162612941397156e-05
0.012273568317358227,-0.0005182556720250717,-3.1886765786053994e-05
0.01269564097381194,-0.0005120133697022792,-3.214433304648583e-05
0.013127798890185654,-0.0005055575097362798,-3.239872576634547e-05
0.013568534060355021,-0.0004988834264986447,-3.26498360004042e-05
0.014016269101633496,-0.0004919872257081475,-3.28975536634559e-05
0.014469368374346371,-0.00048486581633915254,-3.3141766923967725e-05
0.014926149387468833,-0.00047751693689869875,-3.338236261227719e-05
0.015384894415141915,-0.00046993917594804606,-3.361922664048887e-05
0.015843862254742463,-0.00046213198678057496,-3.385224443117103e-05
0.01630130005374483,-0.00045409569620345313,-3.408130135191704e-05
0.01675545511956252,-0.0004458315074101263,-3.430628315282044e-05
0.01720458660896937,-0.0004373414969779933,-3.452707640391747e-05
0.017646976978764328,-0.00042862860608105987,-3.474356892968223e-05
0.018080943073429633,-0.0004196966260680114,-3.4955650237719496e-05
0.01850484673209663,-0.0004105501786166298,-3.5163211938890654e-05
0.01891710481566056,-0.0004011946907296905,-3.5366148156227236e-05
0.019316198581641752,-0.00039163636488036497,-3.556435592012975e-05
0.01970068236352311,-0.00038188214464407374,-3.5757735547510856e-05
0.020069191536575864,-0.000371939676169049,-3.594619100271414e-05
0.02042044976950178,-0.0003618172658425296,-3.6129630238217035e-05
0.020753275571420378,-0.00035152383450729905,-3.630796551330449e-05
0.021066588148729255,-0.00034106886857726164,-3.648111368907563e-05
0.021359412584994915,-0.0003304623683938306,-3.6648996498318404e-05
0.0216308843476358,-0.0003197147941606729,-3.681154078895703e-05
0.021880253110547084,-0.0003088370097961272,-3.696867873994623e-05
0.022106885868779656,-0.0002978402250512955,-3.712034804865808e-05
0.022310269315380653,-0.0002867359362552554,-3.726649208898472e-05
0.022490011453562234,-0.0002755358660630197,-3.7407060039564286e-05
0.02264584242864,-0.0002642519025924691,-3.754200698172816e-05
0.022777614582839018,-0.00025289603833959936,-3.767129396696117e-05
0.02288530176002312,-0.0002414803092538838,-3.7794888053859546e-05
0.022968997911740233,-0.00023001673433594298,-3.7912762314757e-05
0.02302891507323813,-0.00021851725608969838,-3.802489581236341e-05
0.023065380782961827,-0.00020699368212564838,-3.8131273546917246e-05
0.023078835012934236,-0.00019545762817667437,-3.8231886374492826e-05
0.02306982666737821,-0.00018392046275659627,-3.832673089722614e-05
0.023039009699310158,-0.00017239325366492418,-3.841580932633152e-05
0.02298713888941037,-0.00016088671651774404,-3.8499129318877186e-05
0.022915065325559612,-0.00014941116546400153,-3.8576703789372624e-05
0.02282373161371423,-0.00013797646622918308,-3.864855069729592e-05
0.02271416684150175,-0.0001265919916153791,-3.8714692811757056e-05
0.02258748130578807,-0.00011526657957855663,-3.877515745455554e-05
0.022444861007424058,-0.0001040084940002536,-3.882997622295024e-05
0.022287561914552664,-9.282538826975941e-05,-3.887918469351774e-05
0.022116904000609765,-8.17242717909688e-05,-3.8922822108532926e-05
0.021934265070636876,-7.071147952315715e-05,-3.896093104636146e-05
0.021741074396653435,-5.979264465633457e-05,-3.899355707740633e-05
0.021538806188895886,-4.897267450994724e-05,-3.90207484071979e-05
0.021328972934419668,-3.825572972911835e-05,-3.904255550825766e-05
0.021113118635505294,-2.764520683663711e-05,-3.9059030742399105e-05
0.02089281197782815,-1.7143724183303746e-05,-3.907022797515409e-05
0.0206696394563556,-6.753111324757809e-06,-3.9076202184031104e-05
0.020445198488389646,3.5255981614285014e-06,-3.9077009062321937e-05
0.02022109054627137,1.3692170420093756e-05,-3.907270462017656e-05
0.01999891434165733,2.3747171642075934e-05,-3.9063344784661015e-05
0.01978025908752158,3.369196499937066e-05,-3.9048985000500655e-05
0.019566697857601803,4.3528704235651505e-05,-3.90296798331919e-05
0.019359781061034687,5.326032396531063e-05,-3.900548257614166e-05
0.01916103005166764,6.28905267434862e-05,-3.897644486346446e-05
0.018971930893036146,7.242376697966215e-05,-3.8942616290033676e-05
0.018793928299255275,8.1865231777735e-05,-3.890404404034433e-05
0.01862841976861159,9.122081879470172e-05,-3.886077252770122e-05
0.01847674992172495,0.00010049711121728585,-3.881284304519822e-05
0.01834020505361232,0.00010970134996112017,-3.876029342990362e-05
0.01822000791076396,0.00011884140320221423,-3.8703157741612787e-05
0.018117312705514386,0.00012792573335628383,-3.8641465957473165e-05
0.01803320037509091,0.00013696336162643516,-3.857524368372748e-05
0.017968674083326558,0.00014596383024103953,-3.8504511885760615e-05
0.01792465495497231,0.00015493716250061424,-3.84292866375752e-05
0.017901978029322932,0.00016389382074668806,-3.834957889176338e-05
0.01790138842329439,0.0001728446623598424,-3.826539427098674e-05
0.017923537705239603,0.00018180089389197588,-3.817673288192379e-05
0.017968980496557818,0.00019077402344242522,-3.808358915259019e-05
0.01803817133218397,0.00019977581139961066,-3.7985951693879685e-05
0.01813146182065342,0.00020881821968782,-3.788380318610783e-05
0.01824909815041771,0.0002179133596805878,-3.7777120291265726e-05
0.018391218989949144,0.0002270734389656795,-3.766587359160416e-05
0.018557853821896262,0.00023631070716864086,-3.755002755507058e-05
0.0187489217389893,0.0002456374010588623,-3.742954052801371e-05
0.01896423072065616,0.0002550656891737736,-3.730436475545555e-05
0.019203477409913055,0.0002646076162064159,-3.71744464291105e-05
0.019466247417099878,0.00027427504741316913,-3.7039725763205605e-05
0.01975201618254535,0.00028407961331308046,-3.6900137098024044e-05
0.020060150428230353,0.0002940326549657744,-3.675560903095433e-05
0.020389910217546214,0.00030414517012721854,-3.660606457468108e-05
0.02074045162513139,0.00031442776058788796,-3.6451421342002304e-05
0.02111082999884626,0.0003248905809938824,-3.629159175660686e-05
0.021500003775867426,0.00033554328943756083,-3.6126483288998996e-05
0.021906838796854178,0.00034639500008074123,-3.595599871661942e-05
0.02233011305087046,0.0003574542380426724,-3.5780036407088566e-05
0.02276852178634664,0.00036872889675197663,-3.5598490623389904e-05
0.023220682943117917,0.00038022619793434275,-3.541125184971832e-05
0.023685142890226978,0.000391952654392679,-3.5218207136636565e-05
0.024160382479062614,0.0004039140357350014,-3.501924046410465e-05
0.024644823431374585,0.0004161153372126107,-3.4814233120867746e-05
0.025136835077063924,0.00042856075183972034,-3.4603064098604666e-05
0.025634741443441793,0.0004412536459698468,-3.438561049915227e-05
0.02613682868073987,0.00045419653850089223,-3.416174795303459e-05
0.026641352790040998,0.0004673910838685875,-3.393135104744222e-05
0.027146547603377744,0.00048083805896694215,-3.3694293761733336e-05
0.02765063295557256,0.0004945373541066797,-3.345044990846493e-05
0.028151822982984614,0.000508487968091319,-3.319969357791543e-05
0.028648334481088673,0.0005226880074573373,-3.294189958402826e-05
0.029138395249403867,0.0005371346898899604,-3.267694390969144e-05
0.029620252350494848,0.000551824351789935,-3.240470414927147e-05
0.03009218021135554,0.0005667524599303976,-3.212505994634138e-05
0.030552488500610004,0.000581913627108389,-3.1837893424581685e-05
0.03099952972110523,0.0005973016316638178,-3.1543089609888634e-05
0.03143170646105976,0.000612909440709359,-3.124053684179534e-05
0.03184747824668469,0.0006287292368862952,-3.093012717239643e-05
0.03224536793813499,0.0006447524484325001,-3.0611756751066734e-05
0.032623967613390356,0.0006609697823203814,-3.0285326193378514e-05
0.032981943892382605,0.0006773712601968247,-2.9950740932749213e-05
0.03331804266204257,0.0006939462568354309,-2.960791155349115e-05
0.03363109316607149,0.0007106835407924595,-2.9256754104084176e-05
0.033920011421739504,0.0007275713169394122,-2.8897190389651206e-05
0.03418380292720532,0.0007445972705266484,-2.852914824278469e-05
0.03442156463182465,0.0007617486124164059,-2.8152561772048927e-05
0.03463248615421232,0.0007790121251129152,-2.77673715876666e-05
0.034815850240422413,0.0007963742092115738,-2.7373525004085477e-05
0.03497103245658844,0.0008138209298858266,-2.6970976219311125e-05
0.035097500114456656,0.0008313380630285878,-2.655968647108252e-05
0.035194810441074684,0.0008489111406674707,-2.6139624170158506e-05
0.03526260802460824,0.0008665254952838914,-2.5710765011170666e-05
0.03530062159145383,0.0008841663026879069,-2.5273092061677716e-05
0.03530866018937504,0.0009018186231331141,-2.482659583022246e-05
0.03528660886304628,0.0009194674403962195,-2.4371274314340127e-05
0.035234423912143466,0.0009370976985900169,-2.390713302959357e-05
0.03515212782319632,0.0009546943365238518,-2.3434185020815102e-05
0.03503980397109716,0.0009722423194724252,-2.2952450856816033e-05
0.03489759119562761,0.0009897266682641064,-2.24619586098819e-05
0.03472567836719724,0.0010071324856548126,-2.196274382140217e-05
0.03452429905686548,0.0010244449800108284,-2.145484945498576e-05
0.034293726415305543,0.0010416494863788712,-2.0938325838388336e-05
0.03403426834615685,0.0010587314850692368,-2.041323059552631e-05
0.033746263036582104,0.0010756766179149215,-1.9879628569780268e-05
0.033430074887503755,0.001092470702395943,-1.933759173970255e-05
0.03308609087093303,0.001109099743835552,-1.8787199128144676e-05
0.03271471732930776,0.0011255499458856122,-1.8228536705714386e-05
0.032316377216037945,0.0011418077195219486,-1.7661697289362497e-05
0.03189150775634449,0.0011578596907650444,-1.708678043679075e-05
0.0314405584898664,0.001173692707326597,-1.650389233726784e-05
0.030963989646715668,0.0011892938443607427,-1.5913145699346005e-05
0.030462270804261657,0.001204650409473487,-1.531465963588745e-05
0.029935879767219998,0.0012197499471163576,-1.4708559546739989e-05
0.029385301607281266,0.001234580242459983,-1.4094976999345904e-05
0.02881102779281127,0.001249129324810006,-1.3474049607528407e-05
0.028213555337901073,0.001263385470592684,-1.2845920908677735e-05
0.027593385907364976,0.0012773372059040006,-1.2210740239553563e-05
0.026951024829795688,0.0012909733085882907,-1.156866261093049e-05
0.026286979988559278,0.0013042828097928794,-1.0919848581335198e-05
0.0256017605767749,0.0013172549949342128,-1.0264464130153425e-05
0.02489587572060483,0.0013298794040085577,-9.602680530417733e-06
0.024169832997891393,0.0013421458311881818,-8.934674221618547e-06
0.02342413690162135,0.0013540443236630599,-8.260626682905738e-06
0.022659287313387382,0.001365565179716812,-7.58072430706077e-06
0.021875778057450702,0.0013766989460595215,-6.895158275616687e-06
0.02107409560098166,0.0013874364144741296,-6.204124435483274e-06
0.02025471795475116,0.0013977686178630628,-5.507823177398976e-06
0.019418113817586048,0.001407686825806147,-4.806459316481674e-06
0.018564741999546736,0.0014171825397604303,-4.100241975090029e-06
0.01769505115244298,0.0014262474880484277,-3.3893844681378145e-06
0.016809479831659428,0.0014348736207944533,-2.674104190927094e-06
0.01590845690830018,0.0014430531049794432,-1.95462250948362e-06
0.014992402339528638,0.0014507783197914004,-1.231164653290909e-06
0.014061728285974203,0.0014580418524477762,-5.039596102311148e-07
0.013116840548361366,0.00146483649465636,2.2675997654491934e-07
0.012158140293617252,0.0014711552398668547,9.60757910175723e-07
0.011186026052158666,0.0014769912814532986,1.6977945405057614e-06
0.010200895979172302,0.0014823380119611312,2.437626863859369e-06
0.009203150374735222,0.001487189023549608,3.180008622737054e-06
0.00819319445300203,0.0014915381097565423,3.924690406063592e-06
0.007171441344365777,0.0014953792687058844,4.671419750679198e-06
0.006138315309017631,0.0014987067078692303,5.419941244822977e-06
0.005094255137282479,0.0015015148504808054,6.169996634410485e-06
0.004039717710739047,0.0015037983436928107,6.921324932953889e-06
0.002975181694170658,0.0015055520685440381,7.673662536013101e-06
0.0019011513183025328,0.0015067711517971565,8.4267433410984e-06
0.000818160198133829,0.0015074509796762657,9.180298873966756e-06
-0.0002732248854995182,0.0015075872135044243,9.934058422261928e-06
-0.001372400331273168,0.001507175807200231,1.0687749177438092e-05
-0.00247872229633079,0.00150621302654333,1.1441096385873983e-05
-0.003591503625376802,0.001504695470062903,1.219382351002554e-05
