frame_number,force
0,489.2600679524669
1,489.27147862744084
2,489.28443250587486
3,489.2989090669688
4,489.31488653467807
5,489.33234195067786
6,489.35125124982136
7,489.3715893352542
8,489.39333015015745
9,489.4164467434225
10,489.4409113270435
11,489.4666953234443
12,489.493769401199
13,489.52210349760753
14,489.55166682653436
15,489.5824278701246
16,489.61435435361125
17,489.64741320336617
18,489.6815704894043
19,489.7167913543492
20,489.75303993121213
21,489.79027925241996
22,489.8284711526943
23,489.86757616865214
24,489.9075534381159
25,489.9483606019015
26,489.98995371033766
27,490.0322871360797
28,490.0753134940716
29,490.11898356898456
30,490.16324625038254
31,490.2080484764095
32,490.2533351878825
33,490.299049295872
34,490.34513166647315
35,490.3915211261044
36,490.4381544894847
37,490.48496661108163
38,490.5318904599577
39,490.5788572177448
40,490.62579639966015
41,490.6726359986789
42,490.71930265313154
43,490.76572183813425
44,490.8118180812457
45,490.85751520235726
46,490.90273657722724
47,490.94740542355805
48,490.99144510818354
49,491.03477947374887
50,491.0773331832573
51,491.11903208094566
52,491.15980356789
53,491.19957699046614
54,491.2382840394935
55,491.27585915765883
56,491.31223995257255
57,491.34736761257625
58,491.3811873223039
59,491.41364867492945
60,491.44470607777345
61,491.47431914741327
62,491.5024530897343
63,491.52907905963446
64,491.5541744946652
65,491.57772341697546
66,491.59971669833095
67,491.62015228336304
68,491.63903536661593
69,491.6563785196625
70,491.6722017655685
71,491.68653259911565
72,491.69940595232146
73,491.71086410568313
74,491.72095654591715
75,491.72973977073383
76,491.7372770408366
77,491.7436380794238
78,491.7488987200488
79,491.7531405043348
80,491.75645023148314
81,491.75891946196776
82,491.7606439783965
83,491.76172320703927
84,491.762259603937
85,491.76235801005754
86,491.7621249806644
87,491.7616680945861
88,491.76109524918706
89,491.760513946566
90,491.7600305759672
91,491.75974969681835
92,491.7597733266548
93,491.76020023878897
94,491.76112527574145
95,491.7626386853837
96,491.76482548673124
97,491.76776487144554
98,491.7715296460899
99,491.7761857196068
100,491.7817916403482
101,491.78839818699413
102,491.79604801763236
103,491.804775381065
104,491.8146058939603
105,491.8255563866318
106,491.8376348190062
107,491.8508402669
108,491.8651629773528
109,491.88058449080756
110,491.89707782747524
111,491.91460773497636
112,491.93313099396806
113,491.95259677798464
114,491.97294706342404
115,491.99411708568607
116,492.01603583782367
117,492.0386266083208
118,492.0618075543692
119,492.0854923062954
120,492.10959059805896
121,492.1340089184524
122,492.1586511779252
123,492.18341938655004
124,492.2082143390479
125,492.2329363025738
126,492.2574857021268
127,492.2817637973114
128,492.3056733432099
129,492.3291192277414
130,492.35200907830983
131,492.3742538317419
132,492.3957682632481
133,492.4164714720273
134,492.4362873227632
135,492.4551448433751
136,492.47297858003253
137,492.48972891074914
138,492.5053423187615
139,492.5197716262683
140,492.53297618813116
141,492.5449220442638
142,492.55558202902336
143,492.5649358360844
144,492.5729700379847
145,492.5796780607126
146,492.58506011523167
147,492.5891230893922
148,492.59188040476903
149,492.5933518432497
150,492.59356334776555
151,492.59254680088026
152,492.5903397844194
153,492.58698532294386
154,492.5825316134542
155,492.57703174318596
156,492.57054339672175
157,492.5631285529613
158,492.5548531719434
159,492.5457868713694
160,492.5360025929641
161,492.5255762592797
162,492.51458642198475
163,492.50311390306285
164,492.49124143063165
165,492.47905327113904
166,492.4666348595241
167,492.4540724287854
168,492.44145264048996
169,492.4288622179466
170,492.4163875837283
171,492.4041145028481
172,492.39212773247624
173,492.38051067896197
174,492.36934506303356
175,492.35871059416047
176,492.3486846550166
177,492.33934199676963
178,492.33075444561126
179,492.3229906207929
180,492.31611566455956
181,492.3101909844669
182,492.3052740082644
183,492.3014179509383
184,492.298671593001
185,492.29707906892753
186,492.29667966488205
187,492.2975076256275
188,492.299591971558
189,492.30295632773095
190,492.3076187674221
191,492.31359167314537
192,492.32088161815886
193,492.3294892710299
194,492.33940932504214
195,492.35063045368554
196,492.3631352935344
197,492.3769004562986
198,492.39189657221544
199,492.40808836684465
200,492.4254347726364
201,492.4438890755521
202,492.46339909574556
203,492.48390740002696
204,492.50535154267845
205,492.5276643304742
206,492.550774107945
207,492.5746050602263
208,492.5990775327653
209,492.624108368797
210,492.64961126615316
211,492.67549715467493
212,492.70167459465165
213,492.7280501956079
214,492.75452905356013
215,492.78101520379397
216,492.80741208555355
217,492.83362301474034
218,492.859551660513
219,492.88510252144636
220,492.9101813967829
221,492.93469584840767
222,492.9585556494971
223,492.98167321618155
224,493.00396401878004
225,493.02534696913295
226,493.0457447804779
227,493.06508429647175
228,493.08329678644805
229,493.10031820452156
230,493.11608941033666
231,493.1305563491392
232,493.1436701889083
233,493.1553874128465
234,493.1656698663071
235,493.1744847577099
236,493.18180461310317
237,493.1876071842778
238,493.19187531115176
239,493.19459674047175
240,493.1957639043645
241,493.1953736635282
242,493.19342702059083
243,493.18992880939317
244,493.1848873660071
245,493.1783141875925
246,493.1702235857967
247,493.1606323419654
248,493.14955937147664
249,493.13702540382906
250,493.1230526838576
251,493.1076646979712
252,493.0908859279849
253,493.0727416341326
254,493.0532576680345
255,493.03246031537157
256,493.0103761667145
257,492.9870320138088
258,492.9624547679886
259,492.93667139710954
260,492.90970887709017
261,492.8815941537483
262,492.8523541102554
263,492.82201553545895
264,492.79060508880923
265,492.75814925864853
266,492.7246743117822
267,492.69020623331875
268,492.6547706569629
269,492.6183927874378
270,492.5810973181818
271,492.54290834850093
272,492.50384930472467
273,492.4639428695967
274,492.4232109234164
275,492.38167449974196
276,492.3393537579406
277,492.2962679744694
278,492.25243555448077
279,492.2078740650382
280,492.16260029051244
281,492.1166303095045
282,492.0699795915655
283,492.0226631118697
284,491.97469548274614
285,491.9260911017052
286,491.8768643157344
287,491.82702960134486
288,491.77660175943714
289,491.7255961237078
290,491.67402878112006
291,491.6219168028697
292,491.5692784840252
293,491.5161335893606
294,491.4625036019128
295,491.40841196967574
296,491.35388434468405
297,491.29894880765613
298,491.24363607072365
299,491.1879796509433
300,491.13201600844434
301,491.07578464507725
302,491.0193281617803
303,490.96269227493576
304,490.9059257934828
305,490.8490805595807
306,490.7922113560844
307,490.73537578384503
308,490.67863411102707
309,490.6220490957556
310,490.5656857828669
311,490.50961127539375
312,490.45389448162
313,490.39860583907017
314,490.34381701762726
315,490.28960060511054
316,490.23602978008313
317,490.18317797805094
318,490.13111855785934
319,490.07992447457076
320,490.0296679636523
321,489.9804202395064
322,489.9322512098387
323,489.8852292064033
324,489.8394207322299
325,489.7948902252663
326,489.7516998383784
327,489.7099092358786
328,489.66957540715
329,489.63075249825937
330,489.5934916624073
331,489.5578409294924
332,489.52384509409535
333,489.49154562017213
334,489.46098056015273
335,489.43218448623537
336,489.40518843237857
337,489.3800198465179
338,489.3567025534753
339,489.3352567295642
340,489.31569888992874
341,489.29804188936396
342,489.28229493709046
343,489.2684636259455
344,489.2565499766556
345,489.2465524979695
346,489.23846626305954
347,489.2322830015716
348,489.2279912054134
349,489.2255762455125
350,489.22502049674915
351,489.22630346883625
352,489.229401941585
353,489.2342901035189
354,489.24093969323707
355,489.2493201433035
356,489.259398726624
357,489.2711407051978
358,489.28450948089915
359,489.29946674772316
360,489.31597264482485
361,489.333985909718
362,489.3534640310922
363,489.3743634006346
364,489.39663946295803
365,489.42024686251625
366,489.4451395865584
367,489.4712711036397
368,489.4985944975321
369,489.52706259627666
370,489.55662809577774
371,489.5872436772367
372,489.61886211805256
373,489.6514363961915
374,489.68491978783766
375,489.7192659572287
376,489.7544290364697
377,489.7903636925425
378,489.82702517904613
379,489.86436937113285
380,489.9023527829772
381,489.9409325675482
382,489.9800664987004
383,490.0197129361217
384,490.05983077450384
385,490.10037937900165
386,490.14131850930414
387,490.1826082347348
388,490.22420884323344
389,490.2660807477669
390,490.3081843941049
391,490.3504801736816
392,490.3929283446179
393,490.43548896317463
394,490.478121827144
395,490.5207864321768
396,490.5634419418301
397,490.60604717190705
398,490.64856058918076
399,490.69094032395867
400,490.7331441954818
401,490.77512974894927
402,490.81685430285467
403,490.85827500535027
404,490.89934889876906
405,490.94003299220316
406,490.98028434259646
407,491.02006014478656
408,491.0593178305288
409,491.0980151761157
410,491.13611041788835
411,491.1735623746548
412,491.21033057560953
413,491.246375391853
414,491.2816581694167
415,491.31614136209066
416,491.34978866317
417,491.38256513610014
418,491.41443734457323
419,491.44537348261315
420,491.47534350444874
421,491.5043192526601
422,491.53227458155067
423,491.559185471423
424,491.5850301289028
425,491.60978906886936
426,491.6334451745796
427,491.65598373374144
428,491.67739244939787
429,491.697661425579
430,491.71678312873274
431,491.7347523268372
432,491.75156600874374
433,491.7672232867724
434,491.7817252859292
435,491.7950750232837
436,491.80727728088834
437,491.81833847508483
438,491.82826652430305
439,491.8370707168758
440,491.84476158020755
441,491.85135075261826
442,491.8568508587411
443,491.86127538829624
444,491.8646385770279
445,491.8669552883476
446,491.8682408949137
447,491.868511160577
448,491.8677821242128
449,491.866069987451
450,491.86339100803394
451,491.8597613998109
452,491.8551972396693
453,491.849714381132
454,491.84332837372875
455,491.83605438653336
456,491.82790713372384
457,491.8189008000181
458,491.8090489645048
459,491.79836452259127
460,491.786859607165
461,491.77454551120485
462,491.76143261486703
463,491.7475303206714
464,491.7328470008449
465,491.71738996082286
466,491.70116542205307
467,491.68417852584105
468,491.6664333586862
469,491.6479329989266
470,491.6286795844607
471,491.60867440128925
472,491.5879179921127
473,491.56641028326635
474,491.5441507274479
475,491.52113845952294
476,491.49737246305915
477,491.47285174550115
478,491.4475755195311
479,491.42154338715176
480,491.39475552188674
481,491.36721284394287
482,491.3389171835004
483,491.3098714281028
484,491.2800796510042
485,491.24954721829494
486,491.21828087371716
487,491.18628880121406
488,491.15358066649327
489,491.120167640515
490,491.08606240965315
491,491.05127917850115
492,491.0158336712484
493,490.9797431364734
494,490.94302635868564
495,490.9057036784036
496,490.86779702112955
497,490.82932993437277
498,490.79032763100713
499,490.7508170367623
500,490.7108268394795
501,490.67038753784396
502,490.6295314877286
503,490.58829294497366
504,490.54670810407
505,490.5048151325383
506,490.4626542008002
507,490.42026750706697
508,490.3776992962295
509,490.334995871131
510,490.29220559438136
511,490.24937887935556
512,490.20656816999065
513,490.1638279097977
514,490.1212145006654
515,490.07878625160066
516,490.03660331686154
517,489.99472762232523
518,489.95322277873254
519,489.9121539806949
520,489.8715878907223
521,489.83159250778573
522,489.792237020107
523,489.75359164207237
524,489.71572743537837
525,489.6787161146605
526,489.6426298378061
527,489.60754098100676
528,489.57352189874337
529,489.5406446694575
530,489.5089808282811
531,489.47860108847146
532,489.44957505321156
533,489.4219709194404
534,489.3958551753098
535,489.37129229251843
536,489.34834441435106
537,489.32707104030686
538,489.3075287089813
539,489.2897706820417
540,489.27384663312773
541,489.25980234591344
542,489.2476794253194
543,489.2375150251527
544,489.22934159459527
545,489.2231866452968
546,489.21907254071357
547,489.2170163098619
548,489.21702948853795
549,489.2191179919069
550,489.22328202291277
551,489.22951602100034
552,489.2378086549757
553,489.24814286256895
554,489.26049593778987
555,489.27483966578495
556,489.29114050372345
557,489.30935980533684
558,489.32945408603695
559,489.35137532480616
560,489.3750712982619
561,489.4004859416634
562,489.4275597312378
563,489.45623008187044
564,489.4864317538506
565,489.5180972622188
566,489.55115728260836
567,489.5855410482407
568,489.62117673362087
569,489.65799182131354
570,489.69591344908105
571,489.73486873570704
572,489.7747850848807
573,489.8155904673327
574,489.8572136819546
575,489.89958459704445
576,489.94263437315084
577,489.9862956691253
578,490.03050283286956
579,490.0751920778457
580,490.1203016457621
581,490.165771955055
582,490.2115457338117
583,490.25756813454313
584,490.3037868268957
585,490.35015206351653
586,490.39661671440723
587,490.4431362663133
588,490.4896687854741
589,490.5361748437291
590,490.5826174093719
591,490.6289617054831
592,490.67517503967446
593,490.72122660988344
594,490.76708729109555
595,490.812729408159
596,490.8581265004996
597,490.9032530852149
598,490.948084425286
599,490.99259630940867
600,491.0367648493109
601,491.08056629941603
602,491.1239769023404
603,491.1669727622985
604,491.20952974736866
605,491.2516234207327
606,491.29322900011596
607,491.33432134357895
608,491.37487495868294
609,491.4148640311813
610,491.4542624690628
611,491.49304395809025
612,491.5311820255704
613,491.568650109424
614,491.60542162960667
615,491.6414700589932
616,491.6767689913433
617,491.71129220480003
618,491.74501372012986
619,491.77790785332184
620,491.80994926239737
621,491.84111298870545
622,491.87137449359415
623,491.90070969172416
624,491.9290949821604
625,491.9565072779988
626,491.9829240351488
627,492.008323281114
628,492.03268364483375
629,492.0559843885012
630,492.0782054417894
631,492.0993274383743
632,492.11933175428976
633,492.138200547583
634,492.15591679893737
635,492.1724643532892
636,492.18782796284813
637,492.201993332337
638,492.21494716778153
639,492.2266772307958
640,492.23717240078383
641,492.24642274761493
642,492.2544196171187
643,492.26115573131625
644,492.26662530477716
645,492.2708241777538
646,492.27374996552265
647,492.27540222166255
648,492.2757826112597
649,492.2748950887369
650,492.27274607431355
651,492.2693446228018
652,492.2647025781717
653,492.2588347069233
654,492.2517588031458
655,492.24349575874663
656,492.2340695937691
657,492.22350744356083
658,492.21183950139755
659,492.1990989168207
660,492.1853216513527
661,492.1705462944541
662,492.15481384380956
663,492.13816745543164
664,492.12065217049724
665,492.1023146269671
666,492.08320276466674
667,492.06336553254056
668,492.0428526060863
669,492.02171412145424
670,492.0000004306388
671,491.97776188015666
672,491.9550486140241
673,491.93191040073214
674,491.90839648312397
675,491.88455544961386
676,491.86043512517847
677,491.8360824808862
678,491.81154356090883
679,491.7868634256128
680,491.7620861086505
681,491.73725458541304
682,491.71241074988717
683,491.68759539669816
684,491.6628482049101
685,491.63820772027225
686,491.61371133331926
687,491.5893952520632
688,491.5652944695928
689,491.5414427281016
690,491.5178724811759
691,491.49461485559226
692,491.47169961298323
693,491.4491551111865
694,491.4270082649489
695,491.40528450561743
696,491.38400773937593
697,491.3632003036544
698,491.34288292181014
699,491.32307465717344
700,491.3037928688746
701,491.2850531730055
702,491.2668694131019
703,491.24925364348854
704,491.23221612793844
705,491.21576535471524
706,491.1999080677355
707,491.1846493125819
708,491.169992495446
709,491.1559394525729
710,491.14249052732936
711,491.1296446518557
712,491.11739943055875
713,491.10575122337445
714,491.0946952274955
715,491.0842255568172
716,491.0743353184065
717,491.06501668485225
718,491.05626096087855
719,491.04805864263
720,491.04039946860456
721,491.03327246182965
722,491.0266659631939
723,491.02056765594915
724,491.0149645816579
725,491.00984314858295
726,491.00518913454147
727,491.00098768699144
728,490.99722332308926
729,490.9938799317109
730,490.99094077841
731,490.9883885134009
732,490.9862051820291
733,490.9843722367892
734,490.9828705498289
735,490.9816804252255
736,490.9807816111088
737,490.98015331257864
738,490.9797742070486
739,490.97962246404285
740,490.9796757715297
741,490.9799113705896
742,490.9803060997879
743,490.98083645022945
744,490.98147863190417
745,490.9822086515174
746,490.98300240163195
747,490.9838357608818
748,490.98468470535676
749,490.98552543174657
750,490.9863344930875
751,490.9870889478197
752,490.9877665224575
753,490.9883457876781
754,490.9888063471116
755,490.98912903749556
756,490.98929613809315
757,490.98929158641545
758,490.9891011964443
759,490.98871287480597
760,490.98811682977947
761,490.98730576778445
762,490.9862750721946
763,490.98502295983167
764,490.9835506108059
765,490.9818622671686
766,490.97996529555434
767,490.9778702093949
768,490.97559064772065
769,490.9731433096673
770,490.9705478460612
771,490.9678267114031
772,490.96500498078274
773,490.9621101365953
774,490.9591718297041
775,490.956221619376
776,490.95329269613717
777,490.9504195914976
778,490.94763787803834
779,490.94498386264894
780,490.9424942749234
781,490.940205952011
782,490.93815552070794
783,490.9363790774123
784,490.93491186687356
785,490.9337879614882
786,490.9330399440675
787,490.93269859810755
788,490.9327926102184
789,490.93334828951356
790,490.93438930875254
791,490.935936472161
792,490.93800751509303
793,490.940616940785
794,490.9437758991711
795,490.9474921121783
796,490.95176984924046
797,490.9566099558456
798,490.96200993647415
799,490.96796409127086
800,490.97446370355686
801,490.9814972733561
802,490.9890507908897
803,490.997108043598
804,491.00565095045334
805,491.01465991762956
806,491.0241142095608
807,491.0339923289219
808,491.0442723983856
809,491.0549325365857
810,491.0659512208273
811,491.0773076297814
812,491.0889819604068
813,491.10095571427144
814,491.11321194916286
815,491.1257354926091
816,491.13851311499644
817,491.1515336614147
818,491.16478814280083
819,491.1782697878323
820,491.1919740570886
821,491.20589862045193
822,491.22004329798807
823,491.2344099639767
824,491.249002413548
825,491.2638261915877
826,491.27888838412775
827,491.2941973731602
828,491.3097625565124
829,491.3255940350979
830,491.34170227075015
831,491.35809771905963
832,491.37479044292417
833,491.3917897134485
834,491.4091036051859
835,491.42673859268245
836,491.4446991551224
837,491.46298739577736
838,491.48160268292156
839,491.50054131878204
840,491.51979624281995
841,491.53935677508196
842,491.55920840449403
843,491.5793326259112
844,491.5997068286666
845,491.62030423822733
846,491.6410939111708
847,491.6620407821746
848,491.6831057604831
849,491.7042458726636
850,491.72541444828175
851,491.7465613451959
852,491.7676332113484
853,491.7885737801789
854,491.809324196996
855,491.82982337358004
856,491.85000836778147
857,491.8698147840363
858,491.8891771898872
859,491.9080295430501
860,491.9263056234826
861,491.94393946528936
862,491.9608657838273
863,491.97702039367766
864,491.99234061321425
865,492.00676565175945
866,492.02023697611855
867,492.0326986543699
868,492.0440976755607
869,492.0543842441136
870,492.0635120476056
871,492.0714384966605
872,492.0781249361831
873,492.0835368278986
874,492.0876439049679
875,492.0904203003033
876,492.0918446510224
877,492.0919001819458
878,492.0905747709968
879,492.08786099890887
880,492.0837561850677
881,492.0782624108088
882,492.07138653102976
883,492.063140174486
884,492.0535397326426
885,492.0426063366294
886,492.03036582173627
887,492.0168486787962
888,492.0020899915987
889,491.98612935920124
890,491.96901080178526
891,491.9507826485166
892,491.931497405496
893,491.91121160124
894,491.88998560640704
895,491.8678834240181
