frame_number,force
0,489.2600679527632
1,489.27147862768305
2,489.2844325060584
3,489.29890906708954
4,489.31488653473235
5,489.3323419506624
6,489.35125124973314
7,489.3715893350905
8,489.393330149916
9,489.41644674310146
10,489.4409113266417
11,489.46669532296124
12,489.4937694006351
13,489.52210349696367
14,489.5516668258118
15,489.5824278693252
16,489.6143543527375
17,489.64741320242143
18,489.6815704883926
19,489.7167913532751
20,489.75303993008043
21,489.79027925123586
22,489.82847115146325
23,489.8675761673798
24,489.9075534368079
25,489.9483606005633
26,489.98995370897427
27,490.03228713469593
28,490.07531349267197
29,490.1189835675731
30,490.1632462489632
31,490.20804847498596
32,490.2533351864583
33,490.2990492944508
34,490.3451316650587
35,490.39152112470055
36,490.43815448809454
37,490.48496660970795
38,490.53189045860313
39,490.578857216412
40,490.6257963983517
41,490.67263599739726
42,490.7193026518787
43,490.7657218369122
44,490.81181808005596
45,490.85751520120107
46,490.9027365761056
47,490.947405422472
48,490.9914451071344
49,491.034779472738
50,491.07733318228634
51,491.1190320800164
52,491.15980356700396
53,491.1995769896245
54,491.2382840386971
55,491.2758591569081
56,491.312239951868
57,491.34736761191795
58,491.3811873216917
59,491.4136486743633
60,491.44470607725316
61,491.4743191469385
62,491.5024530893042
63,491.529079059248
64,491.55417449432133
65,491.5777234166731
66,491.599716698068
67,491.6201522831365
68,491.63903536642226
69,491.6563785194976
70,491.6722017654278
71,491.6865325989946
72,491.69940595221567
73,491.7108641055886
74,491.72095654583006
75,491.7297397706502
76,491.7372770407521
77,491.7436380793336
78,491.74889871994816
79,491.75314050421883
80,491.7564502313469
81,491.7589194618063
82,491.76064397820477
83,491.7617232068122
84,491.7622596036695
85,491.76235800974445
86,491.76212498030037
87,491.7616680941659
88,491.7610952487054
89,491.7605139460178
90,491.7600305753476
91,491.75974969612287
92,491.75977332587905
93,491.760200237929
94,491.7611252747934
95,491.76263868434404
96,491.76482548559653
97,491.76776487021266
98,491.7715296447562
99,491.7761857181705
100,491.7817916388081
101,491.78839818534976
102,491.7960480158841
103,491.80477537921433
104,491.8146058920095
105,491.8255563845838
106,491.8376348168647
107,491.85084026466905
108,491.86516297503715
109,491.8805844884121
110,491.89707782500466
111,491.914607732435
112,491.9331309913602
113,491.95259677531413
114,491.97294706069437
115,491.99411708290086
116,492.0160358349868
117,492.0386266054362
118,492.0618075514406
119,492.085492303326
120,492.10959059505103
121,492.13400891540766
122,492.158651174845
123,492.1834193834354
124,492.20821433590004
125,492.2329362993938
126,492.2574856989157
127,492.28176379406995
128,492.3056733399387
129,492.3291192244414
130,492.3520090749822
131,492.374253828388
132,492.39576825986956
133,492.4164714686262
134,492.43628731934217
135,492.4551448399373
136,492.47297857658145
137,492.48972890728845
138,492.50534231529525
139,492.5197716228007
140,492.5329761846667
141,492.5449220408071
142,492.5555820255789
143,492.5649358326566
144,492.57297003457813
145,492.57967805733165
146,492.5850601118804
147,492.58912308607444
148,492.5918804014884
149,492.59335184000986
150,492.5935633445703
151,492.59254679773403
152,492.5903397813269
153,492.5869853199102
154,492.5825316104847
155,492.57703174028615
156,492.57054339389737
157,492.5631285502183
158,492.55485316928775
159,492.54578686880694
160,492.5360025905007
161,492.5255762569209
162,492.5145864197354
163,492.50311390092696
164,492.4912414286118
165,492.47905326923654
166,492.46663485773956
167,492.4540724271187
168,492.4414526389403
169,492.4288622165124
170,492.4163875824072
171,492.4041145016366
172,492.3921277313704
173,492.3805106779572
174,492.36934506212503
175,492.3587105933429
176,492.3486846542841
177,492.3393419961159
178,492.3307544450296
179,492.32299062027664
180,492.316115664102
181,492.3101909840613
182,492.30527400790425
183,492.3014179506174
184,492.2986715927135
185,492.29707906866764
186,492.2966796646443
187,492.2975076254069
188,492.29959197135014
189,492.30295632753166
190,492.3076187672279
191,492.3135916729531
192,492.3208816179657
193,492.32948927083316
194,492.3394093248392
195,492.35063045347385
196,492.3631352933118
197,492.37690045606325
198,492.3918965719664
199,492.4080883665816
200,492.4254347723594
201,492.44388907526127
202,492.46339909544105
203,492.48390739970904
204,492.50535154234734
205,492.5276643301302
206,492.5507741075885
207,492.5746050598575
208,492.59907753238474
209,492.6241083684053
210,492.64961126575116
211,492.6754971542638
212,492.70167459423277
213,492.728050195183
214,492.75452905313136
215,492.78101520336367
216,492.80741208512393
217,492.83362301431373
218,492.8595516600919
219,492.8851025210337
220,492.9101813963821
221,492.9346958480226
222,492.95855564913194
223,492.98167321584066
224,493.0039640184678
225,493.02534696885374
226,493.0457447802359
227,493.0650842962708
228,493.0832967862918
229,493.1003182044131
230,493.11608941027856
231,493.1305563491335
232,493.14367018895683
233,493.15538741295114
234,493.1656698664696
235,493.1744847579316
236,493.1818046133852
237,493.1876071846212
238,493.19187531155757
239,493.1945967409409
240,493.1957639048974
241,493.1953736641246
242,493.1934270212503
243,493.1899288101147
244,493.1848873667894
245,493.1783141884341
246,493.1702235866967
247,493.16063234292324
248,493.14955937249186
249,493.13702540490146
250,493.12305268498693
251,493.10766469915706
252,493.0908859292271
253,493.07274163543076
254,493.05325766938785
255,493.03246031677895
256,493.0103761681741
257,492.98703201531805
258,492.9624547695445
259,492.9366713987085
260,492.909708878728
261,492.8815941554201
262,492.8523541119556
263,492.8220155371814
264,492.79060509054744
265,492.7581492603957
266,492.72467431353147
267,492.6902062350632
268,492.65477065869595
269,492.61839278915295
270,492.58109731987275
271,492.5429083501619
272,492.50384930635
273,492.46394287118096
274,492.4232109249543
275,492.38167450122825
276,492.33935375937017
277,492.2962679758373
278,492.2524355557825
279,492.20787406626977
280,492.16260029167023
281,492.11663031058526
282,492.0699795925669
283,492.02266311279
284,491.97469548358436
285,491.92609110246093
286,491.87686431640805
287,491.82702960193734
288,491.77660175995004
289,491.72559612414346
290,491.67402878148135
291,491.6219168031599
292,491.56927848424766
293,491.51613358951886
294,491.46250360201014
295,491.4084119697155
296,491.35388434466955
297,491.2989488075912
298,491.24363607061247
299,491.1879796507901
300,491.1320160082536
301,491.07578464485346
302,491.0193281615283
303,490.9626922746598
304,490.90592579318695
305,490.8490805592689
306,490.79221135576046
307,490.7353757835124
308,490.6786341106882
309,490.6220490954125
310,490.56568578252086
311,490.50961127504553
312,490.4538944812703
313,490.39860583871985
314,490.3438170172773
315,490.2896006047619
316,490.2360297797368
317,490.1831779777079
318,490.1311185575205
319,490.079924474237
320,490.02966796332447
321,489.9804202391856
322,489.9322512095258
323,489.885229206099
324,489.83942073193447
325,489.7948902249797
326,489.7516998381003
327,489.70990923560805
328,489.66957540688566
329,489.6307524979996
330,489.59349166215
331,489.5578409292352
332,489.5238450938361
333,489.49154561990855
334,489.4609805598829
335,489.43218448595763
336,489.4051884320915
337,489.3800198462203
338,489.3567025531661
339,489.33525672924253
340,489.31569888959393
341,489.29804188901517
342,489.2822949367269
343,489.26846362556637
344,489.2565499762595
345,489.24655249755466
346,489.23846626262355
347,489.2322830011115
348,489.2279912049261
349,489.2255762449952
350,489.22502049619914
351,489.22630346825105
352,489.2294019409622
353,489.2342901028563
354,489.2409396925329
355,489.24932014255677
356,489.2593987258341
357,489.27114070436477
358,489.28450948002353
359,489.2994667468057
360,489.3159726438664
361,489.33398590871974
362,489.3534640300557
363,489.3743633995622
364,489.3966394618526
365,489.4202468613814
366,489.4451395853982
367,489.4712711024589
368,489.49859449633607
369,489.5270625950708
370,489.55662809456715
371,489.58724367602605
372,489.61886211684583
373,489.65143639499223
374,489.6849197866489
375,489.71926595605305
376,489.7544290353095
377,489.7903636914001
378,489.82702517792404
379,489.8643693700335
380,489.9023527819033
381,489.94093256650257
382,489.9800664976855
383,490.0197129351396
384,490.0598307735561
385,490.10037937808994
386,490.14131850843
387,490.18260823389977
388,490.22420884243934
389,490.2660807470158
390,490.308184393399
391,490.3504801730232
392,490.39292834400885
393,490.4354889626166
394,490.4781218266387
395,490.5207864317259
396,490.56344194143475
397,490.6060471715678
398,490.6485605888976
399,490.69094032373096
400,490.7331441953083
401,490.7751297488279
402,490.81685430278304
403,490.85827500532565
404,490.89934889878805
405,490.9400329922615
406,490.9802843426892
407,491.02006014490803
408,491.0593178306731
409,491.0980151762768
410,491.13611041806087
411,491.1735623748337
412,491.21033057579024
413,491.24637539203155
414,491.28165816958943
415,491.31614136225426
416,491.3497886633212
417,491.3825651362355
418,491.414437344689
419,491.44537348270586
420,491.475343504515
421,491.5043192526968
422,491.53227458155476
423,491.55918547139146
424,491.5850301288325
425,491.60978906875687
426,491.63344517442107
427,491.6559837335326
428,491.6773924491342
429,491.69766142525526
430,491.7167831283437
431,491.7347523263775
432,491.75156600820804
433,491.76722328615597
434,491.78172528522805
435,491.7950750224949
436,491.80727728001017
437,491.818338474116
438,491.82826652324286
439,491.83707071572434
440,491.8447615789654
441,491.8513507512867
442,491.85685085732194
443,491.8612753867915
444,491.8646385754401
445,491.86695528667957
446,491.868240893169
447,491.8685111587599
448,491.8677821223281
449,491.866069985504
450,491.86339100603067
451,491.859761397758
452,491.855197237574
453,491.8497143790018
454,491.84332837157126
455,491.8360543843564
456,491.8279071315351
457,491.8189007978252
458,491.8090489623154
459,491.7983645204129
460,491.786859605005
461,491.7745455090699
462,491.7614326127636
463,491.74753031860547
464,491.73284699882197
465,491.71738995884743
466,491.70116542012875
467,491.68417852397056
468,491.66643335687166
469,491.64793299716956
470,491.6286795827624
471,491.60867439965057
472,491.5879179905344
473,491.566410281749
474,491.5441507259917
475,491.5211384581276
476,491.49737246172396
477,491.47285174422507
478,491.4475755183129
479,491.4215433859898
480,491.3947555207792
481,491.367212842888
482,491.33891718249686
483,491.30987142714935
484,491.28007965010005
485,491.24954721743967
486,491.2182808729107
487,491.1862888004565
488,491.1535806657846
489,491.1201676398547
490,491.08606240904066
491,491.0512791779357
492,491.0158336707292
493,490.97974313599946
494,490.94302635825574
495,490.90570367801644
496,490.86779702078337
497,490.8293299340658
498,490.7903276307377
499,490.7508170365293
500,490.71082683928233
501,490.67038753768236
502,490.6295314876028
503,490.5882929448844
504,490.54670810401876
505,490.50481513252686
506,490.46265420083046
507,490.4202675071408
508,490.3776992963489
509,490.3349958712983
510,490.29220559459867
511,490.2493788796246
512,490.20656817031266
513,490.1638279101734
514,490.1212145010943
515,490.0787862520813
516,490.03660331739167
517,489.9947276229019
518,489.95322277935225
519,489.9121539813534
520,489.8715878914149
521,489.831592508507
522,489.7922370208511
523,489.7535916428328
524,489.71572743614837
525,489.6787161154331
526,489.64262983857407
527,489.60754098176295
528,489.57352189948097
529,489.5406446701705
530,489.50898082896424
531,489.47860108912033
532,489.44957505382246
533,489.4219709200102
534,489.39585517583606
535,489.37129229299916
536,489.3483444147845
537,489.3270710406918
538,489.3075287093172
539,489.28977068232854
540,489.27384663336585
541,489.2598023461035
542,489.2476794254622
543,489.2375150252489
544,489.2293415946454
545,489.22318664530104
546,489.2190725406722
547,489.21701630977526
548,489.2170294884071
549,489.21911799173347
550,489.2232820226988
551,489.2295160207481
552,489.23780865468785
553,489.24814286224836
554,489.2604959374398
555,489.2748396654092
556,489.2911405033256
557,489.30935980492035
558,489.3294540856053
559,489.35137532436266
560,489.3750712978099
561,489.40048594120594
562,489.4275597307777
563,489.4562300814104
564,489.48643175339276
565,489.5180972617647
566,489.5511572821591
567,489.5855410477977
568,489.6211767331857
569,489.65799182088847
570,489.69591344866905
571,489.7348687353116
572,489.7747850845059
573,489.8155904669828
574,489.85721368163416
575,489.8995845967584
576,489.94263437290437
577,489.98629566892373
578,490.03050283271824
579,490.0751920777494
580,490.1203016457252
581,490.1657719550815
582,490.21154573390487
583,490.2575681347057
584,490.3037868271296
585,490.35015206382263
586,490.3966167147854
587,490.4431362667626
588,490.48966878599293
589,490.53617484431453
590,490.5826174100199
591,490.62896170618876
592,490.67517504043184
593,490.721226610686
594,490.7670872919361
595,490.8127294090295
596,490.858126501391
597,490.9032530861173
598,490.9480844261891
599,490.9925963103017
600,491.03676485018303
601,491.08056630025663
602,491.1239769031391
603,491.16697276304524
604,491.20952974805397
605,491.2516234213476
606,491.29322900065245
607,491.3343213440301
608,491.37487495904287
609,491.41486403144495
610,491.45426246922636
611,491.49304395815113
612,491.5311820255271
613,491.568650109276
614,491.6054216293544
615,491.64147005863805
616,491.6767689908871
617,491.7112922042449
618,491.7450137194783
619,491.777907852577
620,491.80994926156285
621,491.8411129877856
622,491.8713744925937
623,491.90070969064817
624,491.9290949810145
625,491.9565072767889
626,491.98292403388086
627,492.00832327979424
628,492.0326836434687
629,492.0559843870977
630,492.07820544035485
631,492.0993274369167
632,492.1193317528176
633,492.13820054610494
634,492.15591679746257
635,492.1724643518267
636,492.1878279614072
637,492.20199333092665
638,492.2149471664105
639,492.22667722947267
640,492.23717239951674
641,492.24642274641167
642,492.2544196159865
643,492.2611557302616
644,492.2666253038058
645,492.2708241768707
646,492.2737499647318
647,492.27540222096707
648,492.2757826106617
649,492.2748950882376
650,492.27274607391314
651,492.2693446224996
652,492.26470257796643
653,492.25883470681316
654,492.2517588031288
655,492.24349575882064
656,492.2340695939315
657,492.2235074438086
658,492.2118395017272
659,492.19909891722796
660,492.1853216518324
661,492.1705462950002
662,492.1548138444157
663,492.13816745609097
664,492.12065217120255
665,492.1023146277106
666,492.0832027654401
667,492.0633655333353
668,492.0428526068942
669,492.0217141222677
670,492.00000043145
671,491.97776188095725
672,491.95504861480515
673,491.93191040148434
674,491.9083964838378
675,491.8845554502796
676,491.8604351257862
677,491.8360824814257
678,491.8115435613697
679,491.78686342598513
680,491.7620861089249
681,491.73725458558084
682,491.7124107499408
683,491.68759539663097
684,491.6628482047168
685,491.63820771994887
686,491.6137113328631
687,491.58939525147287
688,491.5652944688682
689,491.54144272724375
690,491.5178724801873
691,491.4946148544758
692,491.4716996117422
693,491.4491551098249
694,491.4270082634713
695,491.40528450402854
696,491.3840077376805
697,491.36320030185766
698,491.3428829199178
699,491.3230746551917
700,491.30379286680983
701,491.28505317086444
702,491.26686941089133
703,491.24925364121526
704,491.23221612560945
705,491.21576535233777
706,491.1999080653172
707,491.1846493101307
708,491.1699924929704
709,491.1559394500814
710,491.1424905248305
711,491.12964464935766
712,491.1173994280695
713,491.1057512209022
714,491.0946952250486
715,491.08422555440427
716,491.07433531603584
717,491.06501668253185
718,491.0562609586157
719,491.04805864043175
720,491.0403994664775
721,491.0332724597796
722,491.02666596122606
723,491.0205676540679
724,491.01496457986707
725,491.0098431468856
726,491.00518913294025
727,491.0009876854886
728,490.99722332168693
729,490.9938799304108
730,490.99094077721327
731,490.98838851230823
732,490.98620518104116
733,490.9843722359066
734,490.98287054905177
735,490.9816804245535
736,490.9807816105412
737,490.9801533121143
738,490.9797742066855
739,490.9796224637785
740,490.97967577136126
741,490.9799113705138
742,490.98030609980094
743,490.98083645032744
744,490.98147863208334
745,490.98220865177444
746,490.983002401964
747,490.9838357612862
748,490.98468470583106
749,490.9855254322885
750,490.98633449369504
751,490.9870889484909
752,490.98776652319054
753,490.98834578847146
754,490.9888063479639
755,490.9891290384054
756,490.9892961390594
757,490.9892915874374
758,490.9891011975217
759,490.98871287593846
760,490.9881168309667
761,490.9873057690255
762,490.98627507348783
763,490.98502296117476
764,490.98355061219553
765,490.98186226860076
766,490.9799652970246
767,490.9778702108987
768,490.9755906492536
769,490.9731433112252
770,490.9705478476401
771,490.96782671299906
772,490.9650049823918
773,490.96211013821363
774,490.9591718313276
775,490.9562216210005
776,490.95329269775846
777,490.9504195931114
778,490.9476378796406
779,490.94498386423567
780,490.94249427649027
781,490.9402059535531
782,490.93815552222
783,490.93637907888865
784,490.9349118683086
785,490.933787962876
786,490.93303994540236
787,490.9326985993841
788,490.93279261143135
789,490.9333482906577
790,490.93438930982313
791,490.9359364731537
792,490.9380075160038
793,490.9406169416103
794,490.94377589990796
795,490.94749211282436
796,490.9517698497945
797,490.9566099563073
798,490.96200993684397
799,490.9679640915499
800,490.97446370374695
801,490.9814972734597
802,490.98905079091
803,490.9971080435392
804,491.00565095031965
805,491.0146599174254
806,491.02411420929064
807,491.03399232859016
808,491.04427239799685
809,491.05493253614475
810,491.0659512203393
811,491.07730762925195
812,491.0889819598417
813,491.1009557136763
814,491.113211948543
815,491.1257354919693
816,491.13851311434075
817,491.1515336607466
818,491.16478814212337
819,491.17826978714845
820,491.1919740564014
821,491.2058986197644
822,491.2200432973032
823,491.23440996329776
824,491.2490024128787
825,491.2638261909326
826,491.27888838349196
827,491.29419737254966
828,491.30976255593373
829,491.32559403455855
830,491.3417022702581
831,491.3580977186232
832,491.374790442552
833,491.3917897131493
834,491.40910360496844
835,491.42673859255495
836,491.4446991550928
837,491.46298739585353
838,491.48160268311096
839,491.5005413190918
840,491.51979624325645
841,491.5393567756507
842,491.55920840519957
843,491.5793326267571
844,491.59970682965525
845,491.62030423936
846,491.641093912448
847,491.6620407835957
848,491.68310576204624
849,491.7042458743654
850,491.7254144501176
851,491.74656134716037
852,491.7676332134354
853,491.78857378238183
854,491.80932419930764
855,491.82982337599253
856,491.85000837028645
857,491.8698147866251
858,491.88917719255096
859,491.9080295457794
860,491.926305626268
861,491.9439394681213
862,491.9608657866964
863,491.97702039657463
864,491.9923406161299
865,492.00676565468495
866,492.0202369790453
867,492.0326986572895
868,492.0440976784646
869,492.0543842469931
870,492.0635120504519
871,492.07143849946476
872,492.07812493893675
873,492.0835368305935
874,492.08764390759643
875,492.0904203028587
876,492.0918446534986
877,492.09190018433713
878,492.09057477329833
879,492.08786100111564
880,492.08375618717497
881,492.07826241281185
882,492.0713865329242
883,492.0631401762679
884,492.053539734308
885,492.0426063381747
886,492.0303658231584
887,492.0168486800922
888,492.00208999276634
889,491.9861293602385
890,491.9690108026909
891,491.9507826492899
892,491.9314974061367
893,491.9112116017483
894,491.8899856067837
895,491.8678834242646
896,491.8449724465768
897,491.82132317616623
