frame_number,force
0,500.6613100051053
1,500.63863015674997
2,500.6160875464665
3,500.59381817643634
4,500.5719555891468
5,500.55062966847737
6,500.5299654791466
7,500.5100821579708
8,500.49109186971174
9,500.4730988392524
10,500.45619847055724
11,500.4404765611991
12,500.42600861897154
13,500.412859284427
14,500.4010818607615
15,500.39071795106224
16,500.3817972027393
17,500.37433715944366
18,500.3683432211366
19,500.36380871273263
20,500.36071506098455
21,500.3590320785075
22,500.358718353241
23,500.35972174075533
24,500.36197995518125
25,500.3654212525579
26,500.3699651988127
27,500.3755235137335
28,500.3820009820366
29,500.38929642278157
30,500.3973037086154
31,500.40591282596415
32,500.41501096595056
33,500.4244836340162
34,500.4342157649926
35,500.4440928303066
36,500.4540019248046
37,500.4638328214083
38,500.47347898188235
39,500.4828385117514
40,500.4918150477301
41,500.50031856740793
42,500.5082661131413
43,500.5155824244321
44,500.5222004747764
45,500.52806190983864
46,500.53311738448065
47,500.5373267975828
48,500.54065942582736
49,500.54309395972746
50,500.5446184465799
51,500.5452301459808
52,500.54493530425464
53,500.543748854256
54,500.5416940463759
55,500.53880201578
56,500.5351112905325
57,500.5306672452061
58,500.52552150417813
59,500.519731297886
60,500.5133587746684
61,500.5064702712998
62,500.4991355469202
63,500.49142698716815
64,500.48341878735624
65,500.47518612504007
66,500.4668043330452
67,500.45834808396114
68,500.4498905966147
69,500.44150287436895
70,500.4332529844952
71,500.4252053876763
72,500.4174203269659
73,500.40995328564594
74,500.4028545227207
75,500.3961686932472
76,500.38993455886657
77,500.3841847921103
78,500.3789458759909
79,500.3742380975943
80,500.37007563112695
81,500.36646670312166
82,500.36341383103803
83,500.36091412608675
84,500.3589596509192
85,500.3575378223096
86,500.35663184832583
87,500.3562211893812
88,500.3562820333237
89,500.3567877758144
90,500.35770949764077
91,500.35901642996134
92,500.3606763977019
93,500.3626562316371
94,500.3649221415036
95,500.3674400453013
96,500.370175853003
97,500.37309570581596
98,500.3761661748768
99,500.3793544255676
100,500.38262835484113
101,500.38595670862225
102,500.38930918496214
103,500.39265652690636
104,500.39597060730824
105,500.3992245062009
106,500.402392580182
107,500.405450522804
108,500.40837541503305
109,500.4111457650006
110,500.4137415361189
111,500.4161441618432
112,500.4183365439117
113,500.4203030293286
114,500.4220293604264
115,500.42350259247354
116,500.4247109743419
117,500.4256437894403
118,500.4262911562164
119,500.42664378986944
120,500.42669272939594
121,500.4264290366205
122,500.4258434762265
123,500.4249261875003
124,500.4236663590399
125,500.42205191723036
126,500.420069238793
127,500.41770289771716
128,500.41493545674547
129,500.4117473122385
130,500.40811659868626
131,500.40401915627893
132,500.39942856236394
133,500.3943162251607
134,500.3886515358498
135,500.3824020735806
136,500.37553385722214
137,500.36801163749857
138,500.35979922325896
139,500.3508598360934
140,500.34115648823405
141,500.3306523792842
142,500.3193113074476
143,500.30709809063956
144,500.293978992514
145,500.2799221483608
146,500.2648979860429
147,500.24887963742566
148,500.2318433360587
149,500.2137687976686
150,500.194639581636
151,500.17444343343124
152,500.1531726086576
153,500.1308241781533
154,500.10740031112965
155,500.08290853107457
156,500.0573619381385
157,500.03077939174165
158,500.0031856474789
159,499.97461144263895
160,499.9450935248705
161,499.91467461907087
162,499.88340332874617
163,499.8513339697826
164,499.81852633620326
165,499.78504539872506
166,499.7509609382184
167,499.7163471182906
168,499.6812820041819
169,499.6458470379689
170,499.6101264818364
171,499.5742068420546
172,499.5381762868693
173,499.50212407163866
174,499.4661399834585
175,499.4303138150067
176,499.39473487411607
177,499.3594915326175
178,499.32467081578085
179,499.29035803225065
180,499.2566364435218
181,499.2235869715499
182,499.19128794299024
183,499.1598148687648
184,499.12924025787567
185,499.0996334639921
186,499.0710605618822
187,499.0435842486555
188,499.0172637631593
189,498.9921548165697
190,498.9683095279878
191,498.945776359771
192,498.92460004796845
193,498.9048215238723
194,498.88647782386556
195,498.86960198658676
196,498.8542229385198
197,498.8403653708424
198,498.8280496115975
199,498.8172914983244
200,498.80810225725486
201,498.8004883955963
202,498.79445161291954
203,498.7899887365297
204,498.78709168451746
205,498.78574745931894
206,498.78593817401855
207,498.7876411131165
208,498.7908288287495
209,498.7954692723066
210,498.8015259602224
211,498.8089581716915
212,498.8177211753249
213,498.82776648164383
214,498.8390421187292
215,498.85149292890503
216,498.86506088479
217,498.8796854234666
218,498.89530379770883
219,498.9118514428821
220,498.9292623574794
221,498.94746949467935
222,498.96640516172977
223,498.98600142322687
224,499.00619050378765
225,499.02690518550327
226,499.04807919562603
227,499.06964757972634
228,499.0915470550137
229,499.11371633783546
230,499.1360964386326
231,499.1586309170823
232,499.1812660903702
233,499.20395118906094
234,499.2266384576121
235,499.24928319912897
236,499.271843765862
237,499.2942814987649
238,499.31656062170134
239,499.3386480980667
240,499.36051345889075
241,499.3821286118907
242,499.40346764100434
243,499.4245066060652
244,499.44522335236246
245,499.46559733922857
246,499.48560949509033
247,499.50524210381406
248,499.52447872413205
249,499.5433041406894
250,499.56170434217705
251,499.57966651987925
252,499.5971790793793
253,499.61423165904506
254,499.63081515060327
255,499.646921719023
256,499.6625448206514
257,499.67767921956465
258,499.6923210020717
259,499.7064675884783
260,499.72011774021524
261,499.7332715597772
262,499.7459304807181
263,499.7580972449974
264,499.7697758650544
265,499.7809715682658
266,499.7916907222544
267,499.8019407408637
268,499.8117299720323
269,499.8210675699318
270,499.829963354602
271,499.83842766292275
272,499.84647119493604
273,499.8541048594365
274,499.8613396230044
275,499.86818636748114
276,499.87465576168233
277,499.88075815329483
278,499.8865034864766
279,499.8919012499195
280,499.89696045894175
281,499.9016896735495
282,499.9060970527788
283,499.910190444346
284,499.91397750745847
285,499.9174658653076
286,499.92066328268083
287,499.9235778638805
288,499.9262182664883
289,499.9285939264225
290,499.9307152884462
291,499.9325940341937
292,499.93424329804185
293,499.9356778608648
294,499.93691431324294
295,499.9379711825325
296,499.93886902105754
297,499.9396304543671
298,499.9402801888594
299,499.94084497801776
300,499.9413535470236
301,499.9418364768301
302,499.9423260503488
303,499.94285606435506
304,499.94346161052596
305,499.94417882792106
306,499.94504462796465
307,499.94609639229543
308,499.94737164385106
309,499.94890769195905
310,499.9507412527634
311,499.952908047202
312,499.95544238028356
313,499.9583767075282
314,499.96174119661936
315,499.96556329414057
316,499.9698673086544
317,499.9746740221177
318,499.98000034110544
319,499.9858589970547
320,499.9922583012873
321,499.9992019573585
322,500.0066889313981
323,500.0147133805221
324,500.0232646393763
325,500.03232726474397
326,500.041881137439
327,500.05190161922076
328,500.0623597604555
329,500.0732225525684
330,500.08445321889286
331,500.0960115384801
332,500.1078541987863
333,500.1199351736416
334,500.13220612219357
335,500.14461680338087
336,500.15711549995484
337,500.16964944653137
338,500.18216525731265
339,500.1946093503867
340,500.2069283663778
341,500.2190695793952
342,500.2309812977156
343,500.24261325087747
344,500.253916959555
345,500.2648460849493
346,500.275356755016
347,500.28540786501765
348,500.29496134947874
349,500.3039824218254
350,500.31243977717816
351,500.32030575342725
352,500.32755644635614
353,500.33417177633623
354,500.3401355067147
355,500.3454352168923
356,500.3500622354723
357,500.35401154017075
358,500.35728163153817
359,500.3598743875014
360,500.3617949055154
361,500.36305133857053
362,500.3636547303418
363,500.36361885343166
364,500.362960053068
365,500.3616970969297
366,500.35985103010677
367,500.3574450327064
368,500.3545042765084
369,500.35105577655787
370,500.34712823371666
371,500.34275186479806
372,500.33795821774345
373,500.3327799704057
374,500.32725071302707
375,500.3214047161548
376,500.31527668701597
377,500.30890151814464
378,500.3023140323945
379,500.29554872832875
380,500.2886395293683
381,500.2816195392845
382,500.2745208060249
383,500.2673740957557
384,500.26020867947375
385,500.2530521353319
386,500.24593017052786
387,500.2388664668815
388,500.2318825539017
389,500.22499771229315
390,500.2182289099152
391,500.211590771539
392,500.20509558316365
393,500.19875333054847
394,500.19257176985013
395,500.1865565263715
396,500.1807112162065
397,500.1750375853662
398,500.1695356614567
399,500.1642039135444
400,500.15903941641545
401,500.1540380164099
402,500.14919449736664
403,500.14450274638807
404,500.13995591975356
405,500.1355466093312
406,500.1312670092265
407,500.1271090812753
408,500.12306471694137
409,500.1191258928612
410,500.1152848176281
411,500.1115340679463
412,500.10786671281437
413,500.10427642486513
414,500.1007575781695
415,500.0973053317406
416,500.0939156980439
417,500.0905855961138
418,500.087312889037
419,500.0840964055393
420,500.0809359456565
421,500.0778322710535
422,500.0747870807723
423,500.07180297251887
424,500.0688833886074
425,500.0660325453436
426,500.0632553451999
427,500.0605572722177
428,500.05794427239226
429,500.05542262214766
430,500.05299878891356
431,500.05067928786787
432,500.0484705383436
433,500.04637872285645
434,500.04440965156044
435,500.0425686351365
436,500.0408603694238
437,500.0392888353125
438,500.0378572172748
439,500.03656784300387
440,500.03542214459327
441,500.0344206388878
442,500.03356292223503
443,500.0328476738111
444,500.03227266195034
445,500.03183474885003
446,500.03152989006657
447,500.0313531259564
448,500.0312985625136
449,500.03135933923534
450,500.0315275822882
451,500.03179434255503
452,500.03214951973814
453,500.03258177505063
454,500.03307843589823
455,500.0336253964249
456,500.03420701792544
457,500.0348060329127
458,500.0354034562203
459,500.0359785063316
460,500.03650854035993
461,500.03696900657235
462,500.0373334187467
463,500.03757335685
464,500.0376584984608
465,500.0375566849079
466,500.0372340251343
467,500.03665503878807
468,500.0357828380701
469,500.0345793457675
470,500.0330055450596
471,500.03102175539937
472,500.0285879282499
473,500.0256639567525
474,500.02220999421155
475,500.0181867771813
476,500.0135559498412
477,500.008280387622
478,500.0023245199726
479,499.995654654198
480,499.98823930324903
481,499.9800495194858
482,499.97105923427955
483,499.96124560106585
484,499.950589337962
485,499.93907506548277
486,499.9266916350508
487,499.91343244444346
488,499.8992957363562
489,499.8842848755328
490,499.8684085987555
491,499.8516812310415
492,499.8341228609095
493,499.81575946744306
494,499.796622991818
495,499.77675134589293
496,499.75618835093144
497,499.7349836014235
498,499.71319225232224
499,499.6908747316347
500,499.6680963829946
501,499.6449270444905
502,499.62144057113386
503,499.597714309052
504,499.57382852952594
505,499.5498658305643
506,499.52591051351146
507,499.5020479424841
508,499.4783638947734
509,499.454943910392
510,499.4318726486951
511,499.40923325953855
512,499.38710677581656
513,499.3655715335492
514,499.34470262503606
515,499.3245713900135
516,499.30524494937663
517,499.2867857859136
518,499.2692513764148
519,499.252693879044
520,499.2371598786885
521,499.2226901913001
522,499.2093197266302
523,499.19707740776664
524,499.1859861455183
525,499.1760628656773
526,499.1673185872907
527,499.1597585501237
528,499.15338238925455
529,499.1481843542326
530,499.1441535698558
531,499.1412743356786
532,499.13952646148493
533,499.13888563557396
534,499.1393238217494
535,499.1408096799136
536,499.14330900479297
537,499.1467851779186
538,499.1511996290723
539,499.1565123037985
540,499.162682132631
541,499.1696674961144
542,499.17742667876115
543,499.1859183051224
544,499.1951017515688
545,499.20493752772944
546,499.21538762191705
547,499.22641580537936
548,499.23798789072805
549,499.25007194046185
550,499.2626384225373
551,499.275660311506
552,499.28911313519563
553,499.302974967615
554,499.31722636885655
555,499.3318502730841
556,499.34683182689525
557,499.36215818224366
558,499.37781824981306
559,499.393802419486
560,499.4101022543498
561,499.426710164043
562,499.4436190626854
563,499.4608220162415
564,499.4783118837246
565,499.4960809562482
566,499.51412059807967
567,499.5324208946941
568,499.5509703137171
569,499.5697553848294
570,499.58876040401884
571,499.6079671663543
572,499.62735473024816
573,499.64689921540764
574,499.66657363636835
575,499.68634777333017
576,499.70618808181
577,499.72605764275437
578,499.7459161555115
579,499.7657199770831
580,499.78542221144926
581,499.804972852016
582,499.82431897872186
583,499.8434050097769
584,499.8621730068627
585,499.8805630320435
586,499.8985135544937
587,499.9159619050438
588,499.9328447759948
589,499.94909876227496
590,499.9646609376556
591,499.9794694567931
592,499.9934641714073
593,500.0065872481531
594,500.01878377686467
595,500.03000235980005
596,500.0401956740439
597,500.0493209999504
598,500.0573407087332
599,500.06422270242774
600,500.0699407997131
601,500.0744750617144
602,500.07781205289416
603,500.0799450329927
604,500.0808740763297
605,500.08060611501116
606,500.07915490344965
607,500.0765409033576
608,500.072791090598
609,500.06793868748656
610,500.0620228263031
611,500.0550881520454
612,500.04718437457234
613,500.0383657815147
614,500.0286907232802
615,500.0182210803559
616,500.0070217213683
617,499.995159958499
618,499.9827050055316
619,499.9697274433006
620,499.9562986971711
621,499.9424905309606
622,499.9283745615451
623,499.91402179847836
624,499.8995022131626
625,499.88488434223603
626,499.8702349295674
627,499.85561861004686
628,499.8410976359381
629,499.8267316433613
630,499.8125774536525
631,499.7986889027945
632,499.7851166919727
633,499.7719082534302
634,499.75910762795814
635,499.74675535290885
636,499.7348883615922
637,499.72353989584906
638,499.7127394336518
639,499.7025126331181
640,499.69288129370045
641,499.6838633350139
642,499.67547279401
643,499.6677198416137
644,499.66061081986794
645,499.65414829996615
646,499.6483311609484
647,499.64315468901367
648,499.63861069834013
649,499.634687675357
650,499.63137094883615
651,499.6286428876171
652,499.6264831264617
653,499.62486881891266
654,499.62377491432534
655,499.6231744545772
656,499.62303888457586
657,499.6233383698192
658,499.62404211395017
659,499.6251186695392
660,499.6265362363839
661,499.6282629434572
662,499.63026711274347
663,499.63251750477514
664,499.6349835461404
665,499.63763553882967
666,499.6404448508254
667,499.6433840872628
668,499.6464272415265
669,499.6495498257607
670,499.65272898101693
671,499.65594356885543
672,499.6591742478107
673,499.66240353863196
674,499.665615881305
675,499.6687976851824
676,499.6719373718945
677,499.67502540957423
678,499.67805433647897
679,499.6810187721184
680,499.68391541393595
681,499.686743016962
682,499.68950235309325
683,499.69219614686875
684,499.6948289864154
685,499.6974072109924
686,499.6999387791591
687,499.7024331235014
688,499.70490099905453
689,499.7073543328849
690,499.70980608143424
691,499.7122701002354
692,499.7147610280592
693,499.7172941852595
694,499.71988548467016
695,499.72255135298707
696,499.7253086608222
697,499.72817466010287
698,499.7311669277375
699,499.73430331405876
700,499.73760189344534
701,499.74108091321324
702,499.744758735906
703,499.74865376947224
704,499.752784379319
705,499.757168776278
706,499.7618248758616
707,499.7667701267173
708,499.7720213089154
709,499.77759430499304
710,499.78350384877143
711,499.7897632591106
712,499.7963841675418
713,499.80337624955075
714,499.81074696912845
715,499.81850134540133
716,499.8266417490633
717,499.83516773533745
718,499.8440759195264
719,499.8533599006228
720,499.86301023733614
721,499.8730144788661
722,499.88335725019454
723,499.894020389621
724,499.90498313550205
725,499.91622235926735
726,499.92771284158056
727,499.9394275874151
728,499.95133817426
729,499.9634151262477
730,499.9756283058413
731,499.9879473140181
732,500.00034189011507
733,500.0127823038811
734,500.025239734133
735,500.0376866296156
736,500.05009704776944
737,500.06244696690925
738,500.074714567955
739,500.08688048342265
740,500.09892801297667
741,500.110843305591
742,500.1226155081512
743,500.1342368797093
744,500.14570287025396
745,500.1570121631259
746,500.1681666810363
747,500.17917155677
748,500.19003507071324
749,500.20076855802057
750,500.21138628851884
751,500.2219053226544
752,500.23234534694774
753,500.24272849223905
754,500.25307913750623
755,500.26342370161535
756,500.2737904251148
757,500.2842091437989
758,500.29471105512886
759,500.30532847803977
760,500.31609460659035
761,500.3270432583981
762,500.3382086194477
763,500.34962498715527
764,500.36132651331576
765,500.3733469479887
766,500.38571938480726
767,500.39847600772293
768,500.41164783872887
769,500.4252644856313
770,500.43935388861365
771,500.4539420644844
772,500.4690528486002
773,500.48470763668934
774,500.5009251313456
775,500.51772109931545
776,500.5351081450428
777,500.553095503858
778,500.57168885588135
779,500.59089015971034
780,500.6106975034415
781,500.6311049699759
782,500.65210251412407
783,500.67367584988017
784,500.69580634636395
785,500.7184709309039
786,500.74164199905107
787,500.7652873341169
788,500.78937004150714
789,500.81384850396165
790,500.8386763625894
791,500.8638025265276
792,500.88917121249733
793,500.91472201463114
794,500.9403900039553
795,500.9661058555868
796,500.99179600064207
797,501.01738279968595
798,501.04278473534964
799,501.06791662314305
800,501.09268984076454
801,501.11701257676395
802,501.14079009937217
803,501.1639250464138
804,501.1863177377707
805,501.20786651239223
806,501.22846809191475
807,501.2480179727068
808,501.2664108478775
809,501.2835410602732
810,501.29930308619316
811,501.3135920473493
812,501.3263042461048
813,501.33733771697587
814,501.3465927860621
815,501.35397262966217
816,501.35938382410984
817,501.36273688085873
818,501.3639467632509
819,501.3629333829476
820,501.3596220741016
821,501.35394404272694
822,501.3458367884743
823,501.33524449653953
824,501.3221183982594
825,501.30641709947594
826,501.2881068758294
827,501.26716193410795
828,501.2435646389934
829,501.21730570499324
830,501.1883843538064
831,501.1568084375511
832,501.1225945279648
833,501.0857679708089
834,501.04636290357416
835,501.00442223373534
836,500.95999757468275
837,500.91314913719236
838,500.8639455756466
839,500.81246378960594
840,500.75878868217177
841,500.7030128769303
842,500.6452363955376
843,500.5855662982296
844,500.5241162893156
845,500.4610062888273
846,500.3963619703492
847,500.3303142644397
848,500.26299882740005
849,500.19455547604616
850,500.1251275898395
851,500.0548614821419
852,499.9839057431116
853,499.9124105580969
854,499.8405270067613
855,499.76840634905466
856,499.6961993045149
857,499.624055331518
858,499.5521219131122
859,499.48054385582725
860,499.40946260707886
861,499.339015595585
862,499.2693355981904
863,499.20055013620583
864,499.13278090468447
865,499.0661432383773
866,499.00074561791223
867,498.936689219024
868,498.8740675069864
869,498.81296587835527
870,498.753461352638
871,498.69562231692714
872,498.63950832652165
873,498.5851699642864
874,498.5326487609601
875,498.4819771775102
876,498.4331786491488
877,498.3862676897071
878,498.341250055365
879,498.2981229677252
880,498.2568753967003
881,498.2174884028401
882,498.17993553682845
883,498.14418329198304
884,498.11019160454504
885,498.07791439605955
886,498.0473001513723
887,498.0182925246301
888,497.9908309651232
889,497.9648513555203
890,497.9402866565943
891,497.91706755415373
892,497.895123105426
893,497.87438138380463
894,497.854770122286
895,497.8362173562251
896,497.8186520649581
897,497.80200480985036
898,497.78620836374165
