frame_number,force
0,599.9995100000675
1,599.6846925309806
2,599.3798815916585
3,599.0941726910314
4,598.8350245958461
5,598.6078251312003
6,598.4157592871009
7,598.2599363111365
8,598.1397247639198
9,598.0532507117003
10,597.9980033651076
11,597.9714593472705
12,597.9716031561896
13,597.9972172532606
14,598.0478551313194
15,598.1234849765183
16,598.2238769821624
17,598.3478836783765
18,598.4928130013157
19,598.6540941612197
20,598.8253666857222
21,598.9990013977459
22,599.1669449656059
23,599.3217115037221
24,599.4573255359469
25,599.5700311980721
26,599.6586196519543
27,599.7243022240269
28,599.77016764373
29,599.8003695963201
30,599.8192460907367
31,599.8305597731473
32,599.8369933184105
33,599.8399640213372
34,599.8397479062461
35,599.8358393919826
36,599.8274371468167
37,599.8139426561758
38,599.795371391023
39,599.7726011618896
40,599.7474208748492
41,599.7223904220078
42,599.7005622318883
43,599.685130603051
44,599.6790656821933
45,599.6847698325555
46,599.7037781729432
47,599.7365156527252
48,599.7821224031466
49,599.8383704896396
50,599.9017137263065
51,599.9675188555049
52,600.0304981311746
53,600.0853001173986
54,600.127152807385
55,600.1524321745158
56,600.159058479468
57,600.1466783343528
58,600.1166418927086
59,600.071812133825
60,600.0162477844434
61,599.9547978498101
62,599.892642159659
63,599.8348049541935
64,599.7856603518661
65,599.7484552913805
66,599.7249045750343
67,599.7149465338586
68,599.7167526541724
69,599.7270349706871
70,599.741602945939
71,599.7560387802185
72,599.7663373460352
73,599.7693990864647
74,599.763332805295
75,599.7475760370655
76,599.7228550259836
77,599.6909982213532
78,599.654614341053
79,599.6166630942878
80,599.5799774625434
81,599.5468248118109
82,599.5186030588105
83,599.4957474447483
84,599.4778784979221
85,599.464167547245
86,599.4538407603746
87,599.4466927153944
88,599.44346139217
89,599.4459559485769
90,599.4569146542052
91,599.479653137863
92,599.5176025571772
93,599.5738301229798
94,599.6506014502748
95,599.7490106958198
96,599.8686905556006
97,600.0076266949866
98,600.1621251580473
99,600.3269878832069
100,600.4959235498012
101,600.6621690998005
102,600.8192446838207
103,600.961725325984
104,601.0858924348415
105,601.1901372176827
106,601.2750329600646
107,601.343064601074
108,601.3980787965002
109,601.4445722473349
110,601.4869564596379
111,601.52892174063
112,601.5729840083683
113,601.6202549022331
114,601.6704429834017
115,601.7220717816386
116,601.7728808327919
117,601.8203519850363
118,601.8622767067797
119,601.8972620645853
120,601.9250786830692
121,601.9467888984918
122,601.9646420633359
123,601.981762617641
124,602.00167949471
125,602.0277657385644
126,602.0626796142681
127,602.1079091245698
128,602.1635058612665
129,602.2280536775093
130,602.2988716515132
131,602.3724152241873
132,602.4448112827691
133,602.5124330376048
134,602.5723949776733
135,602.6228478383731
136,602.6629949606755
137,602.6928298798497
138,602.7126830035525
139,602.7227283090098
140,602.7226142289725
141,602.7113399084319
142,602.6874150189926
143,602.6492519740339
144,602.595677122609
145,602.5264278998694
146,602.4425211431465
147,602.3464187989116
148,602.2419634034903
149,602.1340915606859
150,602.0283583871882
151,601.9303351989192
152,601.8449781644122
153,601.7760768212205
154,601.725858265083
155,601.6947744145505
156,601.681473597418
157,601.682948733057
158,601.694837959886
159,601.7118308511673
160,601.7281242925969
161,601.737883483669
162,601.7356837961802
163,601.7169236974802
164,601.678200512758
165,601.6176304302458
166,601.535078051944
167,601.432249275687
168,601.3126048442659
169,601.1810747530845
170,601.0435925763875
171,600.9065090804309
172,600.7759608325637
173,600.6572539418596
174,600.5543045750359
175,600.469185711161
176,600.401852263365
177,600.3501185571698
178,600.3099259475283
179,600.2758805364633
180,600.2419912840161
181,600.2025115037043
182,600.1527744107811
183,600.0899051537092
184,600.013293904618
185,599.9247476130955
186,599.8283047731278
187,599.7297692500089
188,599.6360662901928
189,599.5545376284581
190,599.4922737112687
191,599.4555393272957
192,599.449310067267
193,599.4769200568464
194,599.539820402911
195,599.6374475445945
196,599.7671932659882
197,599.9244566256783
198,600.1027587510001
199,600.2939281146266
200,600.4884013271432
201,600.6756965491268
202,600.8450845258997
203,600.9864200993643
204,601.09103582964
205,601.1525662786255
206,601.1675762631195
207,601.1359008670586
208,601.0606571952273
209,600.9479461347887
210,600.8063068773564
211,600.6460010721679
212,600.4781969215363
213,600.3141179018044
214,600.1642188549133
215,600.03744842447
216,599.9406573072389
217,599.8782142136694
218,599.8518749722264
219,599.8609096404988
220,599.9024509206912
221,599.9720031398316
222,600.0640416567419
223,600.172631466888
224,600.2920014293286
225,600.4170256894412
226,600.5435804725485
227,600.6687571628997
228,600.7909188512658
229,600.9095893197256
230,601.0251725573936
231,601.1385319328301
232,601.2505058140943
233,601.3614681393112
234,601.4710270024384
235,601.5778994837559
236,601.6799510615137
237,601.7743743980636
238,601.8579887354086
239,601.9276341114092
240,601.9806102779925
241,602.0150894994465
242,602.0304306394636
243,602.0273404997741
244,602.0078596657409
245,601.9751830421885
246,601.9333524391186
247,601.8868756217771
248,601.8403281650012
249,601.7979804652116
250,601.7634694179146
251,601.7395161582608
252,601.7276927897368
253,601.7282613533737
254,601.7401236102937
255,601.7609122433525
256,601.787233450841
257,601.8150522927991
258,601.8401883480813
259,601.858852412717
260,601.8681223144963
261,601.866255305082
262,601.8527756188605
263,601.8283411737882
264,601.7944516330864
265,601.7530874973057
266,601.7063621244785
267,601.6562370107367
268,601.6043144475539
269,601.5516970004279
270,601.4988948596915
271,601.4457676149815
272,601.3915035222858
273,601.3346582699912
274,601.2732809829859
275,601.2051394286773
276,601.1280263516521
277,601.0400986559489
278,600.9401840880271
279,600.8279951857828
280,600.7042144931418
281,600.5704430920734
282,600.4290249115495
283,600.2827755042981
284,600.134661092714
285,599.9874815878684
286,599.843596292773
287,599.7047009473982
288,599.5716468217212
289,599.4443027474705
290,599.3214874172877
291,599.2010187259472
292,599.079925343525
293,598.954840852056
294,598.822557946438
295,598.6806702059813
296,598.5281876207691
297,598.3659956351156
298,598.1970417920082
299,598.0261747638533
300,597.8596237169902
301,597.7041837394152
302,597.5662445958627
303,597.4508426807323
304,597.3609170883125
305,597.2969050655088
306,597.2567289825898
307,597.2361394960683
308,597.2293224134685
309,597.2296549823154
310,597.2304947170506
311,597.22589162789
312,597.2111370150647
313,597.1831015720452
314,597.1403612131073
315,597.0831403944527
316,597.0131103279543
317,596.9330714815624
318,596.8465402503555
319,596.7572639102227
320,596.6687121655211
321,596.5836184464126
322,596.5036417277198
323,596.4291886376925
324,596.3593977172676
325,596.2922592605278
326,596.2248322312681
327,596.1535299429867
328,596.0744688513184
329,595.9838808278126
330,595.8785656918355
331,595.756330062702
332,595.616344732572
333,595.459354743119
334,595.2876881098074
335,595.1050373083209
336,594.9160347726818
337,594.7256929459056
338,594.5388091814516
339,594.3594378053667
340,594.1905084435735
341,594.0336288152573
342,593.8890675653921
343,593.7558859840162
344,593.6321801291979
345,593.5153957437335
346,593.402676288449
347,593.2912014863231
348,593.1784835110694
349,593.0626138322427
350,592.942473523353
351,592.817908181147
352,592.6898333255746
353,592.5602140763568
354,592.4318793393761
355,592.3081772060191
356,592.1925276293754
357,592.0879576224
358,591.9967031552054
359,591.9199335726062
360,591.8576134844743
361,591.8084861426547
362,591.770157127084
363,591.7392697822096
364,591.7117701829194
365,591.6832510286607
366,591.6493553445115
367,591.606217207882
368,591.5508997037612
369,591.481755478486
370,591.3986165191602
371,591.3027493478182
372,591.1965743662693
373,591.0832030372477
374,590.9658773606699
375,590.8474104436581
376,590.7297273257096
377,590.6135853040427
378,590.4985158320106
379,590.3829913055114
380,590.2647908563223
381,590.1415136525741
382,590.011154022275
383,589.8726174932709
384,589.7260540304252
385,589.5729367589734
386,589.4158936895692
387,589.2583527464275
388,589.1040710776734
389,588.9566222673499
390,588.8189334695427
391,588.6929715127292
392,588.5796363084246
393,588.4788442780634
394,588.3897238144278
395,588.3108290572551
396,588.2402988974669
397,588.1759266915819
398,588.1151552466532
399,588.0550631434877
400,587.9924392524649
401,587.9240257933341
402,587.8469437763762
403,587.7592290796555
404,587.6603452136898
405,587.5515237734529
406,587.435816067579
407,587.3178107224653
408,587.2030639261224
409,587.0973666144672
410,587.0060051595033
411,586.9331565464871
412,586.8815115302623
413,586.8521537685093
414,586.8446562145523
415,586.8573136768091
416,586.8874297515061
417,586.9316094880999
418,586.9860491484833
419,587.0468350190981
420,587.1102554924367
421,587.1731062548954
422,587.2329481919437
423,587.2882748369154
424,587.338560126922
425,587.384181604169
426,587.4262453329789
427,587.4663683369043
428,587.5064834153924
429,587.5487078391221
430,587.59527479373
431,587.6484893508897
432,587.7106512992939
433,587.7838882034007
434,587.869872816956
435,587.9694613394706
436,588.0823518999028
437,588.2068795114453
438,588.3400217198147
439,588.4776226133974
440,588.6147939497008
441,588.7464313455336
442,588.8677754211541
443,588.9749439567269
444,589.0653664887566
445,589.1380655739971
446,589.1937415103098
447,589.234636082153
448,589.2641892342193
449,589.28655310471
450,589.3060618005832
451,589.3267519928413
452,589.3519963611324
453,589.3842738129118
454,589.4250749044961
455,589.474927367414
456,589.5335142870131
457,589.5998425652328
458,589.6724130290683
459,589.7493576914283
460,589.8285379653832
461,589.9076233592456
462,589.9841842078534
463,590.0558280552456
464,590.120381749323
465,590.1760853023619
466,590.2217491992957
467,590.2568413794107
468,590.2814941289621
469,590.2964391413454
470,590.3028879446096
471,590.3023750889674
472,590.2965799177175
473,590.2871497246681
474,590.275559995664
475,590.2630514432857
476,590.2506686984798
477,590.2393937847286
478,590.2303289954788
479,590.2248541697737
480,590.2246810841484
481,590.2317626995671
482,590.2480730378139
483,590.2753192348882
484,590.3146538744098
485,590.3664297909995
486,590.4300151205782
487,590.5036896786678
488,590.5846615444487
489,590.6692360898377
490,590.7531271617988
491,590.8318580058998
492,590.9011924749096
493,590.9575501652706
494,590.9983568393824
495,591.0222674152857
496,591.0292100105695
497,591.0202476558769
498,590.9973078075595
499,590.9628569582977
500,590.9195968129925
501,590.8702404454858
502,590.8173962776356
503,590.7635524894632
504,590.7111294489998
505,590.662559822193
506,590.6203603114517
507,590.5871689361378
508,590.5657305106762
509,590.5588135235661
510,590.5690380937426
511,590.5986037514213
512,590.6489366399397
513,590.7203153468433
514,590.8115610932875
515,590.9198807266191
516,591.0409289891542
517,591.1691114599062
518,591.2980919035656
519,591.421419623989
520,591.5331735383799
521,591.6285340431135
522,591.7042287013282
523,591.7588315721191
524,591.792910828009
525,591.8090141717398
526,591.8114723618395
527,591.8060088467503
528,591.7991791537564
529,591.7977139278696
530,591.8078694842628
531,591.8348757605339
532,591.882528554076
533,591.9529362216615
534,592.0464161360595
535,592.1615298009633
536,592.2952319391321
537,592.4430923620228
538,592.5995491728322
539,592.7581802013096
540,592.9120240919304
541,593.0540087241347
542,593.177523236378
543,593.277106884199
544,593.349164363953
545,593.3925895673408
546,593.4091859481266
547,593.4037892432945
548,593.3840238000045
549,593.359672202808
550,593.3417097172555
551,593.341125139127
552,593.3676894860637
553,593.428836517041
554,593.5288003768137
555,593.6681301033638
556,593.8436584459055
557,594.048927200904
558,594.274979147635
559,594.5113639846701
560,594.7472031857505
561,594.9722024956144
562,595.1775499941573
563,595.3566600481905
564,595.5057167953951
565,595.6239600045548
566,595.713668678595
567,595.7798384367092
568,595.8295991982311
569,595.8714557899217
570,595.9144427671756
571,595.9672738967065
572,596.037555495358
573,596.1311278716291
574,596.251591078081
575,596.4000521545702
576,596.5751041212418
577,596.7730245854499
578,596.9881771071422
579,597.213605097451
580,597.4417971307159
581,597.6655580468304
582,597.8788638082888
583,598.077548109013
584,598.2596906639993
585,598.4256499223461
586,598.5777735091489
587,598.7198823237584
588,598.8566394322688
589,598.9928955280204
590,599.1330687976737
591,599.2805879958322
592,599.4374237011375
593,599.6037545262055
594,599.7778320309943
595,599.9560935066065
596,600.1335370329293
597,600.3043422253234
598,600.4626859867703
599,600.6036474754019
600,600.7240409004912
601,600.8230038865087
602,600.902217899056
603,600.9657206229045
604,601.0193545203663
605,601.0699570879096
606,601.1244264019097
607,601.1887953271258
608,601.2674294719588
609,601.3624343230321
610,601.4733243863307
611,601.5969811090627
612,601.7279061864418
613,601.8587536751814
614,601.9810947723421
615,602.086339247187
616,602.1667150559233
617,602.2161945115051
618,602.2312499666087
619,602.2113282094541
620,602.1589590168098
621,602.0794607054687
622,601.9802652555439
623,601.8699471682437
624,601.7570932416152
625,601.649181304276
626,601.5516372737602
627,601.4672187587151
628,601.3958352924274
629,601.3348530460346
630,601.2798451584931
631,601.2256557192687
632,601.1675697842195
633,601.1023478826304
634,601.0289126245113
635,600.9485648140944
636,600.8647221895501
637,600.7822737058052
638,600.7067044803239
639,600.643170308411
640,600.5956922176152
641,600.5666049219129
642,600.5563300959669
643,600.5634654833286
644,600.5851093235974
645,600.6173041857359
646,600.6554905100281
647,600.6948924394569
648,600.7308029591452
649,600.7587832125204
650,600.774826518416
651,600.7755446035746
652,600.758409199051
653,600.7220383115857
654,600.6664725371313
655,600.5933605407611
656,600.5059741761521
657,600.4090043934483
658,600.3081387010573
659,600.2094681780329
660,600.1188034100379
661,600.0409985792616
662,599.979395579396
663,599.9354935972179
664,599.9089108328814
665,599.8976422271534
666,599.8985533774988
667,599.9080037834523
668,599.9224724178877
669,599.9390690469071
670,599.9558456073319
671,599.9718598143817
672,599.9869870517641
673,600.0015282102146
674,600.0157108611878
675,600.0292134517865
676,600.0408429457752
677,600.0484570250194
678,600.0491503072487
679,600.0396472287125
680,600.0167944954502
681,599.9780409576923
682,599.9218256109663
683,599.8478388866979
684,599.7571512317786
685,599.6522102633941
686,599.5367098421177
687,599.4153424101356
688,599.2934530470666
689,599.176619285841
690,599.0701983200736
691,598.978907064634
692,598.906499350869
693,598.8555684142469
694,598.8274628835592
695,598.8222903084096
696,598.8389872365666
697,598.8754366868267
698,598.928609757671
699,598.9947126352965
700,599.0693402593307
701,599.1476660746723
702,599.2247169638567
703,599.2957694814211
704,599.3568478879063
705,599.4052332626792
706,599.4398491441804
707,599.4613961930518
708,599.47216591144
709,599.4755528395394
710,599.4753717802606
711,599.4751384141024
712,599.4774727355298
713,599.4837393706191
714,599.4939677194554
715,599.5070247993208
716,599.5209617220798
717,599.5334263085404
718,599.5420350781848
719,599.5446327571367
720,599.539424252516
721,599.5250145380112
722,599.5004143618462
723,599.4650591067945
724,599.4188540129811
725,599.3622236877962
726,599.2961281339781
727,599.2220138227026
728,599.141688570078
729,599.0571371994719
730,598.970320072187
731,598.8830007802628
732,598.7966287444775
733,598.712276857358
734,598.6306241274355
735,598.5519751569561
736,598.4763056088042
737,598.4033135768985
738,598.3324538593316
739,598.2629411662357
740,598.193722303459
741,598.1234302137032
742,598.0503440156247
743,597.972386766094
744,597.8871895765291
745,597.7922330626737
746,597.6850551944384
747,597.5635053444479
748,597.4260244949425
749,597.271918862983
750,597.1015664950776
751,596.9164829381361
752,596.7191969267077
753,596.5129434296892
754,596.3012425002162
755,596.0874705119718
756,595.8745305270488
757,595.6646944282563
758,595.4596373524613
759,595.2606324971293
760,595.0688362041693
761,594.8855784103563
762,594.7125814040753
763,594.552054030836
764,594.4066414783057
765,594.2792387825837
766,594.172686434859
767,594.089369314698
768,594.0307620397523
769,593.9970058964622
770,593.9866314461126
771,593.9965284495044
772,594.0222124805487
773,594.0583646370217
774,594.0995506459824
775,594.140979570951
776,594.1791514643774
777,594.2122696041791
778,594.2403515832924
779,594.2650470579017
780,594.2892299088722
781,594.3164597483077
782,594.3504080545334
783,594.3943350542379
784,594.4506904802895
785,594.5208900367005
786,594.6052897742411
787,594.7033483586152
788,594.8139364532136
789,594.9357242206631
790,595.0675564646737
791,595.2087218678324
792,595.3590496133526
793,595.5188198739796
794,595.6885325534868
795,595.8686155199669
796,596.0591566867755
797,596.2597197200905
798,596.4692678287178
799,596.6861919570338
800,596.9084304170065
801,597.133671735263
802,597.3596298114574
803,597.5843559226274
804,597.8065200755049
805,598.0255860342085
806,598.2418332846827
807,598.4562261451388
808,598.6701689777157
809,598.8852085333754
810,599.1027492074762
811,599.3238290381558
812,599.5489688653835
813,599.7780782825698
814,600.0103986555811
815,600.2444801424305
816,600.4782089902219
817,600.7089096827671
818,600.9335348056309
819,601.1489256117833
820,601.3520998619998
821,601.5405228712083
822,601.7123345706607
823,601.8665149203829
824,602.0029710093102
825,602.1225376126346
826,602.226896979192
827,602.318431917491
828,602.4000343167005
829,602.4749036512668
830,602.5463689423217
831,602.6177424478859
832,602.6921864759372
833,602.7725702442509
834,602.8613062260893
835,602.9601686713779
836,603.070108079121
837,603.1910877624061
838,603.3219798026598
839,603.4605619589851
840,603.60364924811
841,603.7473681851087
842,603.8875386035608
843,604.0200844396273
844,604.1413783971268
845,604.2484517428528
846,604.3390566207355
847,604.4116212949041
848,604.4651615792403
849,604.4991996531605
850,604.5137098629988
851,604.5090822776917
852,604.486083089932
853,604.4457958297177
854,604.3895374993311
855,604.3187489656411
856,604.2348621550397
857,604.1391605725188
858,604.0326750746948
859,603.9161701403709
860,603.7902524829393
861,603.6555812293708
862,603.5131116667338
863,603.3642877461969
864,603.2111128097242
865,603.0560649131935
866,602.9018726537248
867,602.7512126874682
868,602.606411744415
869,602.4692268413854
870,602.3407484308054
871,602.2214374553337
872,602.1112726013565
873,602.0099481988282
874,601.9170406694142
875,601.832077097296
876,601.7544957509738
877,601.6835469107818
878,601.6181981499793
879,601.5570801528878
880,601.4984782620709
881,601.4403717382377
882,601.3805349261372
883,601.3167134433694
884,601.2468694725897
885,601.169469436848
886,601.0837722133704
887,600.9900650793502
888,600.889795809346
889,600.7855692888563
890,600.6810005417965
891,600.5804253518555
892,600.4884749170772
893,600.4095465474143
894,600.3472462443109
895,600.303907732395
896,600.2802794799167
897,600.2754250570703
898,600.286831560471
899,600.3106848199067
900,600.3422533272911
901,600.3763234265722
902,600.4076381449977
903,600.4313021991022
904,600.4431243863287
905,600.439874638259
906,600.4194338172805
907,600.3808188772391
908,600.3240895876472
909,600.2501807132373
910,600.1607270618154
911,600.0579334418888
912,599.9444911038152
913,599.8234925676713
914,599.6982883614847
915,599.5722679037474
916,599.4485992520903
917,599.3299884744567
918,599.218502257885
