frame_number,force
0,874.9965820008522
1,875.1627125200473
2,875.3289133962545
3,875.4952555687835
4,875.6618100446028
5,875.8286454474377
6,875.9958232176273
7,876.1633905387989
8,876.3313715306132
9,876.4997576154315
10,876.6684981938116
11,876.8374928105841
12,877.0065858443475
13,877.175564455953
14,877.3441601708487
15,877.5120541077578
16,877.6788855281529
17,877.8442630707922
18,878.0077777644527
19,878.1690167477255
20,878.3275766586999
21,878.4830758852576
22,878.6351651690707
23,878.7835363252073
24,878.9279290458601
25,879.0681358821945
26,879.2040054936574
27,879.3354441141335
28,879.4624150132472
29,879.5849356770394
30,879.703072544827
31,879.8169333408765
32,879.9266572544672
33,880.0324034581488
34,880.1343387326975
35,880.2326252316403
36,880.3274095524574
37,880.4188142071791
38,880.5069323148332
39,880.5918259417866
40,880.6735280787981
41,880.7520478617724
42,880.8273783834559
43,880.8995062829437
44,880.9684221841419
45,881.034131009701
46,881.0966612908616
47,881.1560728091946
48,881.2124621476023
49,881.2659659145401
50,881.3167615188463
51,881.3650654544625
52,881.411129165427
53,881.4552327184915
54,881.497676665156
55,881.5387725551465
56,881.5788325435478
57,881.6181584682408
58,881.6570307516276
59,881.6956975474603
60,881.7343646774818
61,881.7731869837328
62,881.8122616542931
63,881.8516238300402
64,881.891244442936
65,881.9310299284102
66,881.9708233495514
67,882.0104066125921
68,882.0495037456541
69,882.0877855029739
70,882.1248757185016
71,882.1603597969863
72,882.1937955071141
73,882.2247259166418
74,882.2526939841357
75,882.2772580477142
76,882.2980072566454
77,882.3145759381482
78,882.3266560367028
79,882.3340070666459
80,882.3364633452388
81,882.3339384991035
82,882.3264273255376
83,882.31400507779
84,882.2968242002308
85,882.2751085404659
86,882.2491451539477
87,882.2192739864563
88,882.1858759201775
89,882.149359813952
90,882.1101491860798
91,882.0686690848464
92,882.0253335449441
93,881.9805339319336
94,881.9346284881584
95,881.8879334775069
96,881.8407163753386
97,881.7931914875581
98,881.7455182225624
99,881.6978020321665
100,881.6500978109468
101,881.6024153132147
102,881.5547259572021
103,881.5069703156339
104,881.4590656904999
105,881.4109133839021
106,881.3624054835229
107,881.3134311095342
108,881.2638821270175
109,881.2136583189192
110,881.1626719300967
111,881.1108513740685
112,881.0581438239117
113,881.0045164389057
114,880.9499560992499
115,880.8944676858401
116,880.8380710980165
117,880.7807973131538
118,880.7226838425739
119,880.6637699370934
120,880.6040918928904
121,880.5436788543652
122,880.4825495641215
123,880.4207104783205
124,880.3581555392352
125,880.2948677301846
126,880.2308223407507
127,880.1659916391494
128,880.1003504281674
129,880.03388180282
130,879.9665823800585
131,879.898466396139
132,879.8295683743172
133,879.7599444391212
134,879.6896726068018
135,879.6188523965039
136,879.5476039248991
137,879.4760664132192
138,879.4043958909252
139,879.3327619227779
140,879.2613434239968
141,879.1903239348644
142,879.1198869319383
143,879.0502117753671
144,878.9814707429326
145,878.9138273371143
146,878.8474357379891
147,878.7824409799097
148,878.7189792386134
149,878.6571776056675
150,878.5971529043788
151,878.5390094033695
152,878.482835632548
153,878.4287008018554
154,878.3766514505311
155,878.3267088739034
156,878.278867677462
157,878.23309561992
158,878.1893347678108
159,878.1475038752695
160,878.1075018210402
161,878.0692118676794
162,878.0325064158183
163,877.9972518132734
164,877.963312708764
165,877.9305554538116
166,877.8988501401328
167,877.8680710028601
168,877.8380951402023
169,877.808799808138
170,877.7800589075214
171,877.7517395738766
172,877.7236998413006
173,877.6957881090556
174,877.6678447237629
175,877.6397056354791
176,877.6112079069193
177,877.5821967754531
178,877.5525338718592
179,877.5221060698784
180,877.4908343246661
181,877.4586818131081
182,877.4256607659511
183,877.3918375752138
184,877.3573359818217
185,877.3223383013665
186,877.287084697161
187,877.2518704918203
188,877.2170414773309
189,877.1829871665736
190,877.1501319462981
191,877.1189242042952
192,877.0898237401392
193,877.0632880124302
194,877.0397578467082
195,877.0196431019717
196,877.0033086430875
197,876.9910609464347
198,876.9831357477295
199,876.9796872190564
200,876.9807792079816
201,876.9863790922477
202,876.9963547517503
203,877.0104749781578
204,877.0284133606957
205,877.0497554124081
206,877.074008527527
207,877.1006143057658
208,877.1289627992329
209,877.1584082626749
210,877.1882859597292
211,877.2179294850166
212,877.2466879531809
213,877.2739423518584
214,877.2991203777025
215,877.3217091370472
216,877.3412651730625
217,877.3574214182534
218,877.3698909283765
219,877.3784676318618
220,877.3830247138237
221,877.3835114823372
222,877.379949538511
223,877.372428800056
224,877.3611035286684
225,877.3461881949979
226,877.32795296068
227,877.3067187536743
228,877.2828521649182
229,877.2567605013315
230,877.2288872400318
231,877.199707914375
232,877.169726208574
233,877.1394697922066
234,877.1094852429395
235,877.0803313690028
236,877.0525704062273
237,877.0267568880404
238,877.0034243650779
239,876.9830704860835
240,876.9661411949114
241,876.95301495972
242,876.9439880519925
243,876.9392618869127
244,876.9389332311827
245,876.9429876900349
246,876.9512964756768
247,876.9636162337083
248,876.9795916981365
249,876.998761034954
250,877.0205638178662
251,877.0443516606349
252,877.0694015987291
253,877.0949322684124
254,877.1201226802644
255,877.144132974946
256,877.16612617817
257,877.1852898215944
258,877.2008563772965
259,877.2121216568434
260,877.2184605705155
261,877.2193398878475
262,877.2143278491103
263,877.2031006319503
264,877.1854457719103
265,877.1612626658296
266,877.1305603165491
267,877.093452614459
268,877.0501516904008
269,877.0009600466144
270,876.9462621192856
271,876.8865156744711
272,876.8222431584913
273,876.7540229536421
274,876.6824804574985
275,876.6082789518798
276,876.5321102690555
277,876.4546852633558
278,876.3767241008468
279,876.2989464169384
280,876.2220614126062
281,876.1467579229953
282,876.0736944558173
283,876.0034892677251
284,875.9367107341703
285,875.873868437422
286,875.8154054072899
287,875.7616917887867
288,875.713019978672
289,875.66960109149
290,875.6315625736485
291,875.5989468838342
292,875.5717113084539
293,875.5497290673949
294,875.53279183585
295,875.5206136894308
296,875.5128363388601
297,875.5090354348426
298,875.508727757306
299,875.5113792503305
300,875.5164140390059
301,875.5232246776479
302,875.5311838863104
303,875.5396579262806
304,875.5480215833694
305,875.5556745456718
306,875.5620588157051
307,875.5666766472089
308,875.5691082986124
309,875.5690286665065
310,875.5662216955595
311,875.5605914623699
312,875.5521690291439
313,875.5411144878148
314,875.5277139541048
315,875.512371543961
316,875.4955965799759
317,875.4779865159582
318,875.4602063804172
319,875.4429658534558
320,875.4269952853546
321,875.4130219895678
322,875.401748026601
323,875.3938304649118
324,875.3898647719631
325,875.390371601308
326,875.3957868905097
327,875.4064549470033
328,875.4226241087124
329,875.4444446257853
330,875.4719685767003
331,875.5051518206113
332,875.5438581406615
333,875.5878658312718
334,875.6368769625632
335,875.6905293274874
336,875.7484106664526
337,875.8100743424172
338,875.8750553841329
339,875.9428857742203
340,876.0131079670344
341,876.0852858135346
342,876.1590123362128
343,876.2339141451606
344,876.3096527068445
345,876.3859231095687
346,876.4624512735626
347,876.5389905891802
348,876.6153187325286
349,876.6912350454666
350,876.7665585409194
351,876.8411263904042
352,876.914792665158
353,876.9874271216164
354,877.0589139583572
355,877.1291506762757
356,877.1980473053341
357,877.2655262107357
358,877.331522481109
359,877.39598466225
360,877.4588755038981
361,877.5201725297595
362,877.5798685281945
363,877.637972275272
364,877.6945098076268
365,877.7495263929546
366,877.8030891309568
367,877.8552899895213
368,877.9062490915738
369,877.9561181383272
370,878.0050838493794
371,878.0533711717522
372,878.1012458354263
373,878.1490157346125
374,878.1970306916494
375,878.2456804447056
376,878.2953910943129
377,878.3466205374452
378,878.399853435733
379,878.4555960063972
380,878.5143705490864
381,878.5767093290744
382,878.6431473768295
383,878.7142139633762
384,878.7904228356216
385,878.8722615358578
386,878.9601801831591
387,879.0545800534554
388,879.1558023152687
389,879.2641173881414
390,879.3797154922988
391,879.5026989800231
392,879.6330770024742
393,879.7707630090956
394,879.9155754801404
395,880.0672420845345
396,880.225407111018
397,880.3896416475349
398,880.5594557461839
399,880.7343117763872
400,880.9136382755242
401,881.0968437494282
402,881.2833299905611
403,881.4725045722246
404,881.6637922747906
405,881.8566452980998
406,882.0505521701159
407,882.2450452773202
408,882.4397069762908
409,882.6341743178078
410,882.8281424723137
411,883.0213669532975
412,883.2136647019811
413,883.4049140107221
414,883.5950531186513
415,883.7840771987977
416,883.9720334846893
417,884.1590144596021
418,884.3451492693479
419,884.5305937538623
420,884.7155196835251
421,884.9001038718218
422,885.0845177560657
423,885.2689178121038
424,885.4534369173182
425,885.6381766276072
426,885.8232003307949
427,886.0085273344412
428,886.194128049697
429,886.3799204687356
430,886.565768107853
431,886.7514795840417
432,886.9368100622299
433,887.1214648917295
434,887.305105705658
435,887.4873590105213
436,887.667826940091
437,887.8460995890822
438,888.0217682918797
439,888.1944392956252
440,888.3637473346297
441,888.5293685735164
442,888.6910323090461
443,888.848530786447
444,889.0017265293063
445,889.1505567054776
446,889.2950342353852
447,889.4352455636334
448,889.5713452470717
449,889.7035477487822
450,889.8321170102968
451,889.957354431187
452,890.0795858311925
453,890.1991479300697
454,890.3163749497211
455,890.4315860665125
456,890.5450744787896
457,890.6570987403918
458,890.7678768186804
459,890.877583171131
460,890.9863489848989
461,891.0942654780661
462,891.201389791313
463,891.3077526333774
464,891.4133666442023
465,891.5182344650578
466,891.6223556991355
467,891.7257321985171
468,891.8283713368437
469,891.9302871222375
470,892.0314992327493
471,892.1320303295912
472,892.2319022473117
473,892.3311317902561
474,892.429726859579
475,892.5276835089825
476,892.624984271264
477,892.721597726747
478,892.8174789194937
479,892.9125700116984
480,893.00680052624
481,893.1000866185929
482,893.1923290437996
483,893.2834098275257
484,893.3731879909653
485,893.4614948732392
486,893.5481296062788
487,893.6328552026317
488,893.7153956145978
489,893.7954340624847
490,893.8726129041163
491,893.9465352884665
492,894.0167687508239
493,894.0828507401833
494,894.1442958691715
495,894.2006045357161
496,894.2512725490091
497,894.2958014949545
498,894.333709714868
499,894.3645438233292
500,894.3878905929722
501,894.4033888406436
502,894.4107407773081
503,894.4097222049535
504,894.4001909524933
505,894.3820930210064
506,894.3554660792902
507,894.3204402408256
508,894.2772364069965
509,894.2261627115406
510,894.1676095921295
511,894.1020437821747
512,894.0300012713071
513,893.9520791921755
514,893.8689266335301
515,893.7812344368363
516,893.68972404732
517,893.5951355068948
518,893.4982147726423
519,893.3997007214745
520,893.3003123569314
521,893.2007367604638
522,893.1016182282174
523,893.0035489042028
524,892.9070611496813
525,892.8126218705327
526,892.7206289884354
527,892.6314101577772
528,892.545223730119
529,892.4622618541647
530,892.3826554269763
531,892.3064803854998
532,892.2337646291962
533,892.1644947774237
534,892.0986220199258
535,892.0360665170565
536,891.9767201253543
537,891.9204475800952
538,891.8670865416365
539,891.8164470511197
540,891.768310971896
541,891.7224319464669
542,891.67853626959
543,891.6363248898715
544,891.5954765960472
545,891.5556523920654
546,891.5165010694835
547,891.4776659393501
548,891.4387925630242
549,891.3995371906777
550,891.3595755405097
551,891.3186115472585
552,891.2763857723271
553,891.23268326604
554,891.1873407169082
555,891.1402526476924
556,891.0913762823876
557,891.0407346339597
558,890.9884173937087
559,890.9345793108878
560,890.879435927869
561,890.8232567864032
562,890.7663565001609
563,890.7090843250451
564,890.6518130006341
565,890.5949276546442
566,890.5388154575503
567,890.4838565345021
568,890.4304164413289
569,890.3788403065929
570,890.3294485468467
571,890.2825339339084
572,890.2383597832649
573,890.1971591182061
574,890.1591347621563
575,890.1244603674754
576,890.093282406748
577,890.0657231361787
578,890.0418844675783
579,890.0218525566426
580,890.0057027920647
581,889.993504831965
582,889.985327393407
583,889.9812425785058
584,889.9813295318482
585,889.9856771755776
586,889.9943857560917
587,890.0075670390023
588,890.0253431790119
589,890.0478444713851
590,890.0752063035068
591,890.1075656760478
592,890.1450576717056
593,890.1878122214957
594,890.2359514572138
595,890.289587834228
596,890.3488230488094
597,890.4137475795661
598,890.4844405099745
599,890.560969202888
600,890.6433884335638
601,890.7317387161648
602,890.8260437057113
603,890.9263066738492
604,891.0325061456002
605,891.1445908710612
606,891.2624744023598
607,891.386029627504
608,891.5150836518691
609,891.6494134387021
610,891.7887426541139
611,891.9327401781615
612,892.081020687708
613,892.2331475794583
614,892.3886383087695
615,892.5469720052747
616,892.7075990152755
617,892.8699518229103
618,893.0334566491099
619,893.1975449855776
620,893.3616644074182
621,893.5252881418171
622,893.6879229700701
623,893.849115133561
624,894.0084540874462
625,894.1655741963237
626,894.3201546715867
627,894.4719181020516
628,894.6206278379474
629,894.7660843462205
630,894.9081205625258
631,895.0465962909246
632,895.1813918544769
633,895.3124014155208
634,895.4395265673929
635,895.5626708698994
636,895.6817359136475
637,895.7966192604699
638,895.9072142975938
639,896.0134117733863
640,896.1151026211281
641,896.2121816221947
642,896.3045514617365
643,896.3921267388235
644,896.474837517188
645,896.552632112403
646,896.625479045008
647,896.6933683708993
648,896.7563127994166
649,896.8143490514383
650,896.8675397836784
651,896.9159761271943
652,896.9597805296063
653,896.9991092933028
654,897.0341540881437
655,897.0651418006825
656,897.092332285935
657,897.1160138181942
658,897.1364962379707
659,897.1541019661332
660,897.1691552456512
661,897.1819702025451
662,897.1928385637065
663,897.2020180580637
664,897.2097225827445
665,897.2161150927155
666,897.2213038656618
667,897.2253423366101
668,897.2282321736864
669,897.2299288123785
670,897.2303484090247
671,897.2293751625782
672,897.2268681539945
673,897.2226672083032
674,897.2165977193463
675,897.2084747659592
676,897.1981070644683
677,897.1853013060919
678,897.1698672723896
679,897.1516238822952
680,897.1304060632589
681,897.1060721374753
682,897.0785113455705
683,897.0476511751281
684,897.0134642374513
685,896.9759745016594
686,896.935262726791
687,896.8914708767834
688,896.8448051711125
689,896.7955373352576
690,896.7440036635827
691,896.6906016687658
692,896.6357842925753
693,896.580051833853
694,896.5239418688913
695,896.4680174967184
696,896.4128542990462
697,896.3590265114774
698,896.3070930064389
699,896.2575836919767
700,896.210986839149
701,896.16773776908
702,896.1282093057636
703,896.0927043642995
704,896.0614509282478
705,896.0345995060048
706,896.0122230492701
707,895.9943193380101
708,895.9808159323858
709,895.971577822414
710,895.9664177987604
711,895.9651093856969
712,895.9674020070481
713,895.9730379077582
714,895.9817701904583
715,895.9933811446505
716,896.007699908959
717,896.024618490093
718,896.0441052593501
719,896.0662151737882
720,896.0910960770241
721,896.1189905583268
722,896.1502330253285
723,896.1852418736455
724,896.2245069184581
725,896.2685726041834
726,896.3180178959748
727,896.3734340607468
728,896.4354016294642
729,896.5044676739749
730,896.5811242511298
731,896.6657886169287
732,896.7587856641821
733,896.8603329639017
734,896.9705287396921
735,897.0893430574714
736,897.2166124842756
737,897.3520384574877
738,897.4951895814601
739,897.6455080118556
740,897.8023199862823
741,897.9648503819105
742,898.1322408931286
743,898.3035710479198
744,898.4778809338724
745,898.6541943275902
746,898.8315409777764
747,899.0089770233902
748,899.1856028201374
749,899.3605777287148
750,899.5331316772179
751,899.7025735398465
752,899.8682965394124
753,900.0297809683447
754,900.1865945608049
755,900.338390874823
756,900.4849060857974
757,900.625954648743
758,900.7614242861439
759,900.8912706055879
760,901.0155113483388
761,901.1342199526854
762,901.2475179468307
763,901.3555657496659
764,901.4585517422375
765,901.5566798754929
766,901.6501564397732
767,901.7391768194528
768,901.8239130957741
769,901.9045033288489
770,901.9810433026802
771,902.053581415753
772,902.1221171519763
773,902.1866031381651
774,902.2469502854414
775,902.3030351237502
776,902.3547083303383
777,902.4018036120442
778,902.444146371212
779,902.4815618086807
780,902.5138822231165
781,902.5409532737318
782,902.5626389807707
783,902.5788253511006
784,902.5894227378357
785,902.5943672630151
786,902.5936217292121
787,902.587176364984
788,902.57504953539
789,902.5572883422942
790,902.5339689717406
791,902.505196719518
792,902.4711057385748
793,902.4318586154149
794,902.3876458741007
795,902.338685450082
796,902.2852221175431
797,902.227526815335
798,902.1658957622767
799,902.100649128079
800,902.0321288442067
801,901.9606950310939
802,901.8867206550048
803,901.8105844415796
804,901.7326625936213
805,901.6533202407662
806,901.572903616322
807,901.4917337129377
808,901.4101018051605
809,901.3282669615156
810,901.2464555335766
811,901.1648624908588
812,901.0836543247515
813,901.0029731387193
814,900.9229415159367
815,900.8436677714307
816,900.7652511960644
817,900.687786849523
818,900.6113693750985
819,900.5360952829219
820,900.4620632920526
821,900.3893726463093
822,900.3181196981303
823,900.2483933262396
824,900.1802698445948
825,900.1138080205388
826,900.049044728188
827,899.9859916455358
828,899.9246332573433
829,899.8649262590004
830,899.8068002756448
831,899.7501596250138
832,899.694885719723
833,899.6408397221766
834,899.5878652695707
835,899.535791372788
836,899.4844357783313
837,899.4336090765428
838,899.3831197245897
839,899.3327800704826
840,899.2824134627125
841,899.2318625264272
842,899.1809985396139
843,899.1297314951463
844,899.078020028575
845,899.025880166829
846,898.9733919052022
847,898.920702843454
848,898.8680283865841
849,898.8156483235466
850,898.7638999234264
851,898.7131679468689
852,898.6638721027559
853,898.6164525542579
854,898.5713541976614
855,898.5290105850726
856,898.4898284220553
857,898.4541734810603
858,898.4223585719074
859,898.3946339679055
860,898.3711804371301
861,898.352104789795
862,898.3374376555305
863,898.3271331125147
864,898.3210698566363
865,898.3190537846555
866,898.3208220316213
867,898.3260485085788
868,898.3343508007888
869,898.3452980110052
870,898.3584189255513
871,898.373209851416
872,898.3891416205255
873,898.4056654926418
874,898.4222179004701
875,898.4382241294295
876,898.4531011641171
877,898.4662601063872
878,898.4771087156769
879,898.4850546457246
880,898.4895098408218
881,898.4898963806106
882,898.4856538969165
883,898.476248560382
884,898.4611835559602
885,898.4400109122639
886,898.4123444591285
887,898.3778735223406
888,898.3363767739214
889,898.2877355301082
890,898.2319457513021
891,898.1691280039291
892,898.0995346874518
893,898.0235539827686
894,897.9417102717754
895,897.854661084181
896,897.7631907395119
897,897.6682007153797
898,897.5706965942517
899,897.4717714874068
900,897.3725861431055
901,897.2743463099155
902,897.1782781555004
903,897.0856026285002
904,896.9975096704778
905,896.9151331494552
906,896.8395272728216
907,896.7716450765676
908,896.71231946776
909,896.6622472734779
910,896.6219767659738
911,896.591899068699
912,896.5722436521415
913,896.5630778715523
914,896.564310274946
915,896.5756972562604
916,896.5968525311015
917,896.6272588585467
