acceleration,velocity,displacement
-0.06034808907507366,0.0,0.0
-0.058496979291044714,-2.9711267091529595e-05,-7.427816772882399e-09
-0.05664508555380799,-5.849678330274277e-05,-2.947982937145049e-08
-0.05479161742190287,-8.635595904667048e-05,-6.56930149588038e-08
-0.052935783699979214,-0.000113287809327141,-1.1560395705225668e-07
-0.05107681974798372,-0.00013929096018913174,-1.7874864943132485e-07
-0.04921404096676149,-0.00016436367536781804,-2.546623083205623e-07
-0.04734692161261055,-0.00018850391601266106,-3.4287920616568207e-07
-0.04547519293214426,-0.00021170944464884978,-4.429325463310598e-07
-0.043598950501725124,-0.00023397798050731712,-5.543544026201015e-07
-0.041718758125781616,-0.0002553074076641938,-6.766757496629793e-07
-0.0398357351263271,-0.000275696030977221,-8.09426609323333e-07
-0.03795161551527064,-0.0002951428686376204,-9.521363342270434e-07
-0.03606877085343411,-0.0003136479652297966,-1.1043340426938976e-06
-0.03419019261927964,-0.00033121270609797507,-1.2655492105258406e-06
-0.032319433948342635,-0.0003478401127398806,-1.4353124152353046e-06
-0.03046051437069279,-0.0003635350998196395,-1.6131562183751846e-06
-0.028617794630085566,-0.00037830467706983405,-1.798616162597553e-06
-0.026795831689537433,-0.0003921580836497398,-1.9912318527774462e-06
-0.024999225858476085,-0.00040510684803674317,-2.190548085699067e-06
-0.023232471598143206,-0.000417164772400898,-2.3961159908084773e-06
-0.021499821022653035,-0.0004283478455560971,-2.607494145297726e-06
-0.019805165743921754,-0.00043867409224774076,-2.8242496297486856e-06
-0.018151939713432135,-0.00044816336861207924,-3.0459589949636404e-06
-0.016543043411669033,-0.0004568371143933545,-3.272209115714999e-06
-0.014980788337864379,-0.0004647180723307379,-3.502597912396022e-06
-0.013466860804562678,-0.00047182998461634467,-3.7367349266327925e-06
-0.012002305600971748,-0.0004781972762177283,-3.974241741841311e-06
-0.010587531995404569,-0.0004838447356168224,-4.214752244799949e-06
-0.009222345149602237,-0.0004887972049030741,-4.457912729929923e-06
-0.007906004763286397,-0.0004930792923812963,-4.703381854251015e-06
-0.006637310518510137,-0.0004967151212017454,-4.950830457646776e-06
-0.005414711498332339,-0.000499728126705956,-5.199941269623701e-06
-0.004236434122162328,-0.0005021409131110797,-5.4504085295779605e-06
-0.003100620034726521,-0.0005039751766503018,-5.7019375520183055e-06
-0.0020054624398882373,-0.0005052516972689555,-5.95424427049812e-06
-0.0009493278748057415,-0.000505990394847629,-6.207054793527266e-06
6.914875116823747e-05,-0.0005062104396285383,-6.460105002146308e-06
0.0010510050170657445,-0.0005059304011864798,-6.7131402123500625e-06
0.0019969324975585272,-0.0005051684168078237,-6.965914916848638e-06
0.0029072987922690034,-0.0005039423589853668,-7.218192610796936e-06
0.003782205698043149,-0.0005022699828627887,-7.469745696258975e-06
0.004621576250785735,-0.0005001690373755815,-7.720355451318567e-06
0.0054252615765775225,-0.0004976573279187408,-7.969812042642146e-06
0.00619315720226565,-0.0004947527232240299,-8.21791455542784e-06
0.006925317978496452,-0.0004914731044288394,-8.464471012341057e-06
0.007622061814699249,-0.0004878362594805404,-8.709298353318402e-06
0.008284054827200035,-0.0004838597303200656,-8.952222350768553e-06
0.008912373191261947,-0.0004795606233154501,-9.193077439177432e-06
0.00950853906698856,-0.00047495539525088746,-9.431706443819016e-06
0.010074529232868414,-0.0004700596281759232,-9.667960199675719e-06
0.010612755973262009,-0.00046488780687439064,-9.901697058438298e-06
0.011126021004083657,-0.00045945311263005423,-1.013278228831441e-05
0.011617444969912597,-0.00045376724613655514,-1.0361087378006062e-05
0.012090376766694971,-0.00044784029070240325,-1.05864892622158e-05
0.01254828783814279,-0.0004416806245511938,-1.08088694910292e-05
0.012994656373178554,-0.0004352948884983635,-1.102811336929159e-05
0.013432845601249906,-0.0004286880130047564,-1.124410909466737e-05
0.013865980129772951,-0.00042186330657200066,-1.1456746924561559e-05
0.014296825012637978,-0.00041482260528639796,-1.1665918402526159e-05
0.014727673619202953,-0.0004075664806284377,-1.1871515674004868e-05
0.015160251277347126,-0.0004000944994043002,-1.2073430919013052e-05
0.015595640905528712,-0.0003924055263585812,-1.2271555925453773e-05
0.016034234061073762,-0.0003844980576169306,-1.2465781821447651e-05
0.016475706853284953,-0.0003763705723883409,-1.2655998978948969e-05
0.01691901673867201,-0.00036802189149035165,-1.2842097094918643e-05
0.017362415047251098,-0.00035945153354387087,-1.3023965451177199e-05
0.017803471668595073,-0.00035066006186490933,-1.3201493350029394e-05
0.01823911158526534,-0.00034164941605144424,-1.3374570719508483e-05
0.018665666175402794,-0.0003324232216112772,-1.3543088878924164e-05
0.019078944007721768,-0.00032298706906549606,-1.3706941451593357e-05
0.019474325453458324,-0.000313348751700201,-1.3866025406784782e-05
0.019846882948935076,-0.0003035184495996027,-1.4020242207109733e-05
0.02019152512532752,-0.00029350884758103704,-1.4169499031404893e-05
0.020503159397159233,-0.0002833351764504153,-1.4313710037412756e-05
0.020776864545653244,-0.0002730151704647122,-1.4452797624141538e-05
0.021008062665357426,-0.00026256893866195954,-1.4586693651423207e-05
0.02119267924626558,-0.00025201875318405377,-1.4715340574384711e-05
0.021327281778869795,-0.0002413887629277699,-1.4838692453412666e-05
0.021409190650979355,-0.00023070464482030761,-1.4956715805349686e-05
0.021436559742207924,-0.0002199932072220108,-1.5069390268360266e-05
0.021408426636942892,-0.0002092819606272231,-1.5176709060322574e-05
0.02132473336405828,-0.00019859867062697282,-1.5278679218136123e-05
0.021186318433095187,-0.00018797090767768446,-1.5375321612712286e-05
0.02099488045588344,-0.0001774256079554398,-1.5466670741620568e-05
0.020752913655007407,-0.0001669886594277171,-1.5552774308466357e-05
0.020463616546665772,-0.0001566845268772988,-1.563369260504261e-05
0.020130776977683933,-0.00014653592849621136,-1.5709497718885988e-05
0.019758638928902655,-0.0001365635745195647,-1.5780272594639933e-05
0.019351758111119777,-0.0001267859752595591,-1.5846109982084716e-05
0.01891485357820318,-0.00011721932233722835,-1.5907111306483912e-05
0.018452661431886282,-0.00010787744358470598,-1.5963385497964398e-05
0.017969795054907967,-9.877182946300741e-05,-1.6015047816226325e-05
0.017470615239143963,-8.991172688949444e-05,-1.606221870531445e-05
0.016959113700931262,-8.130429465447563e-05,-1.6105022710700442e-05
0.01643881441154607,-7.29548126263563e-05,-1.614358748752065e-05
0.01591269771594675,-6.486693459448309e-05,-1.617804292432586e-05
0.015383151518285273,-5.7042972285925085e-05,-1.6208520401045964e-05
0.014851952027079257,-4.948419639958395e-05,-1.623515219321734e-05
0.014320274239479286,-4.219113983294431e-05,-1.6258071027275474e-05
0.01378872981846021,-3.516388881845944e-05,-1.6277409784438326e-05
0.013257427451462803,-2.8402349500978685e-05,-1.6293301344018184e-05
0.01272604866605568,-2.1906480471599064e-05,-1.630587855151133e-05
0.012193931293656307,-1.567648548167107e-05,-1.631527429299965e-05
0.011660153871449464,-9.712964190394626e-06,-1.6321621655417666e-05
0.011123616657826288,-4.017021558075688e-06,-1.6325054151854784e-05
0.010583117239479904,1.4096619162508604e-06,-1.632570599176524e-05
0.010037420137608477,6.564796260522956e-06,-1.6323712377221045e-05
0.009485320458574248,1.1445481409568638e-05,-1.631920980780352e-05
0.00892570153357272,1.604823690760538e-05,-1.6312336378224228e-05
0.008357585550676493,2.0369058678667683e-05,-1.630323205432766e-05
0.007780174857310498,2.4403498780664432e-05,-1.6292038914962828e-05
0.007192880829336775,2.814676270232625e-05,-1.627890134959208e-05
0.006595337538932758,3.1593817294393635e-05,-1.62639662045929e-05
0.005987398798680948,3.473950137879706e-05,-1.62473828749246e-05
0.0053691189939786355,3.7578630826961954e-05,-1.6229303341873162e-05
0.0047407198532788885,4.010609053877634e-05,-1.6209882161531727e-05
0.004102546542069635,4.2316907137613466e-05,-1.618927641211263e-05
0.0034550170303611133,4.420629803072115e-05,-1.6167645610820548e-05
0.00279856867048924,4.576969445593374e-05,-1.6145151612698885e-05
0.002133605892722135,4.7002738096736584e-05,-1.612195850456072e-05
0.001460453438623131,4.79012529295729e-05,-1.609823250680414e-05
0.0007793201477078967,4.846119632615566e-05,-1.607414189449021e-05
9.027795777040951e-05,4.8678595852525236e-05,-1.6049856946445538e-05
-0.000606740629429461,4.854948018461047e-05,-1.6025549927436254e-05
-0.0013119252223082914,4.806981372167603e-05,-1.6001395103959683e-05
-0.0020255511567686974,4.723544462690678e-05,-1.5977568789372538e-05
-0.0027479274342946066,4.6042074979140956e-05,-1.5954249409471025e-05
-0.00347933481490698,4.448525941684056e-05,-1.593161757587203e-05
-0.004219961662446111,4.256043529750229e-05,-1.5909856152193445e-05
-0.0049698456725417095,4.0262983463755334e-05,-1.588915029750313e-05
-0.005728828217669498,3.7588314991202534e-05,-1.5869687472889393e-05
-0.006496524622355078,3.453197678119639e-05,-1.5851657399946293e-05
-0.007272309518882725,3.1089768245886943e-05,-1.5835251963689523e-05
-0.008055313610956976,2.7257862463427018e-05,-1.5820665056012195e-05
-0.008844428006219401,2.3032927059132923e-05,-1.5808092358631554e-05
-0.009638314304316484,1.8412241481498954e-05,-1.5797731066496397e-05
-0.010435421232275218,1.3393807597351027e-05,-1.5789779554226683e-05
-0.01123401023138027,7.976449731437156e-06,-1.5784436989894486e-05
-0.012032191925802354,2.1598991921414993e-06,-1.5781902902663592e-05
-0.012827972752196324,-4.055141977358171e-06,-1.5782376713359897e-05
-0.013619307612441104,-1.066696206851753e-05,-1.5786057239371365e-05
-0.014404152118471581,-1.76728270012457e-05,-1.5793142186638805e-05
-0.015180507749318527,-2.5068991968193227e-05,-1.5803827641381164e-05
-0.01594645489930727,-3.2850732630349676e-05,-1.58183075725308e-05
-0.016700171741594903,-4.101238929057522e-05,-1.583677335301103e-05
-0.017439940324232968,-4.954741730703218e-05,-1.5859413304660433e-05
-0.01816414460153502,-5.844843853847418e-05,-1.588641226862181e-05
-0.01887126723495678,-6.770729149759713e-05,-1.5917951201130828e-05
-0.019559892106349994,-7.731508133292382e-05,-1.595420679433846e-05
-0.020228717511682582,-8.726223373743196e-05,-1.5995351123106046e-05
-0.02087658163753699,-9.753855852473685e-05,-1.604155132117159e-05
-0.02150249803915448,-0.00010813332844390971,-1.609296929291375e-05
-0.022105695544570158,-0.00011903537683984088,-1.6149761469234686e-05
-0.02268565559017492,-0.00013023321462352715,-1.6212078617100528e-05
-0.023242140892713273,-0.0001417151637442492,-1.6280065711692472e-05
-0.02377521156053111,-0.0001534695018575603,-1.6353861878092923e-05
-0.024285226842260026,-0.00016548461145825808,-1.6433600406421876e-05
-0.024772832261717746,-0.0001777491262342525,-1.6519408840845004e-05
-0.02523893310118399,-0.00019025206757497794,-1.6611409139297312e-05
-0.02568465610454308,-0.00020298296487640972,-1.6709717897410157e-05
-0.026111302019089427,-0.00021593195440731784,-1.6814446627231088e-05
-0.026520292621156988,-0.00022908985306737946,-1.6925702079099764e-05
-0.026913117130579527,-0.0002424482055053136,-1.7043586593742936e-05
-0.0272912836993887,-0.00025599930571280563,-1.7168198471547464e-05
-0.027656281506137234,-0.0002697361970141871,-1.729963234722921e-05
-0.028009558054244568,-0.00028365265690428256,-1.743797956070883e-05
-0.028352514679104997,-0.00029774317508761997,-1.7583328518706803e-05
-0.028686520814277562,-0.0003120029339609656,-1.773576504596895e-05
-0.029012944135370655,-0.0003264278001983777,-1.7895372729508788e-05
-0.029333189702476715,-0.00034101433365783953,-1.8062233262972842e-05
-0.029648737958395736,-0.00035575981557305764,-1.8236426800280566e-05
-0.029961170758609688,-0.000370662292752309,-1.8418032327361906e-05
-0.030272177314769517,-0.0003857206297706538,-1.8607128057992646e-05
-0.030583536565103632,-0.0004009345582406221,-1.8803791854995467e-05
-0.030897076436573773,-0.0004163047114910415,-1.9008101672428382e-05
-0.031214612458343297,-0.00043183263371477076,-1.9220136008729834e-05
-0.03153786907346117,-0.00044752075409772185,-1.9439974355682957e-05
-0.03186838806137176,-0.0004633723183814301,-1.9667697623802747e-05
-0.032207429931739404,-0.0004793912728797079,-1.990338852161803e-05
-0.03255587544197176,-0.0004955820992231357,-2.0147131864643742e-05
-0.03291413489372403,-0.0005119496018070596,-2.039901478990129e-05
-0.03328207200586582,-0.0005284986535319571,-2.0659126853736045e-05
-0.03365894700513865,-0.0005452339082847083,-2.092755999419021e-05
-0.03404338110792761,-0.0005621594903129749,-2.1204408343839633e-05
-0.03443334286223336,-0.0005792786713055151,-2.1489767884244255e-05
-0.03482615624765531,-0.0005965935460829873,-2.178373593859138e-05
-0.03521853063111479,-0.0006141047178026798,-2.2086410504562795e-05
-0.035606613024415305,-0.0006318110037165623,-2.2397889434942607e-05
-0.03598606327917,-0.0006497091727924587,-2.2718269479069862e-05
-0.03635215266481197,-0.0006677937267784541,-2.3047645203962592e-05
-0.036699885019100514,-0.0006860567361994322,-2.3386107819707063e-05
-0.03702413702397007,-0.0007044877417101999,-2.373374393918447e-05
-0.037319811445661925,-0.0007230737288276079,-2.4090634306818924e-05
-0.03758199638434093,-0.0007417991807851087,-2.4456852534222103e-05
-0.037806124984945615,-0.0007606462111274303,-2.4832463882200236e-05
-0.037988131739658024,-0.0007795947753085812,-2.5217524128809238e-05
-0.03812460173454938,-0.000798622958677133,-2.5612078562305666e-05
-0.03821290828372864,-0.0008177073361817026,-2.6016161136020376e-05
-0.03825133352430663,-0.0008368233966337114,-2.642979381922423e-05
-0.038239166034591716,-0.000855946021523436,-2.6852986173763517e-05
-0.03817676930818296,-0.0008750500053591297,-2.728573518048416e-05
-0.038065615493718744,-0.0008941106015596051,-2.772802533221384e-05
-0.03790828083069439,-0.0009131040756407084,-2.817982900151392e-05
-0.03770840235209593,-0.000932008246436406,-2.8641107082033198e-05
-0.03747059848001108,-0.0009508029966444327,-2.911180989280341e-05
-0.037200358075615475,-0.0009694707357833394,-2.959187832591035e-05
-0.036903903115694706,-0.000987996801081167,-3.0081245210126478e-05
-0.03658802994637184,-0.0010063697843466835,-3.057983685648344e-05
-0.036259933785974224,-0.00102458177527977,-3.108757474639006e-05
-0.03592702146131872,-0.0010426285140915932,-3.1604377318732896e-05
-0.035596718396244106,-0.0010605094490559839,-3.213016180951979e-05
-0.03527627708268863,-0.001078227697925717,-3.266484609626521e-05
-0.034972594867679306,-0.001095789915913309,-3.3208350499724965e-05
-0.03469204864288992,-0.0011132060767909512,-3.376059949790103e-05
-0.03444035332745612,-0.0011304891772835378,-3.4321523311419655e-05
-0.03422245014036989,-0.0011476548781504943,-3.4891059325278165e-05
-0.03404242913224459,-0.0011647210979686478,-3.546915331930795e-05
-0.033903487580126845,-0.0011817075771467407,-3.6055760488086797e-05
-0.033807921637077076,-0.0011986354294510418,-3.665084623973624e-05
-0.03375714433831688,-0.0012155266959448902,-3.7254386771085224e-05
-0.0337517205187667,-0.0012324039121591611,-3.7866369423111235e-05
-0.03379140948801062,-0.0012492896946608555,-3.848679282481624e-05
-0.033875209337698976,-0.001266206349367283,-3.9115666835823275e-05
-0.034001401206441226,-0.001283175502003318,-3.975301229866593e-05
-0.03416759535441167,-0.0013002177511435313,-4.039886061195264e-05
-0.03437078150481596,-0.0013173523453583382,-4.1053253136078106e-05
-0.03460738371694889,-0.0013345968866637795,-4.1716240444083635e-05
-0.03487331725024532,-0.001351967061905578,-4.2387881431225974e-05
-0.03516404368618719,-0.0013694764021396862,-4.306824229723729e-05
-0.03547462157972992,-0.0013871360684561656,-4.375739541488625e-05
-0.035799752299095954,-0.0014049546619258721,-4.445541809748176e-05
-0.036133823541508125,-0.0014229380558860231,-4.5162391276934734e-05
-0.03647095574719101,-0.001441089250708198,-4.587839810358329e-05
-0.036805058672931906,-0.0014594082543132286,-4.660352247983865e-05
-0.037129905796434846,-0.0014778919954305703,-4.73378475422746e-05
-0.037439232403350224,-0.0014965342799805165,-4.808145411112737e-05
-0.037726859603383095,-0.0015153258029822,-4.8834419131868054e-05
-0.03798684230705024,-0.0015342542284598082,-4.959681413972856e-05
-0.03821363546180536,-0.0015533043479020222,-5.036870378381901e-05
-0.03840227013698252,-0.0015724583243017193,-5.115014445186995e-05
-0.03854852925004615,-0.0015916960241484765,-5.19411830389825e-05
-0.038649111595149645,-0.0016109954343597754,-5.2741855903609565e-05
-0.03870177290303269,-0.001630333155484321,-5.355218805107059e-05
-0.038705434950442534,-0.00164968495744769,-5.437219257930359e-05
-0.038660258131115885,-0.0016690263807180796,-5.520187041384503e-05
-0.03856767746339937,-0.0016883333646167083,-5.604121035017873e-05
-0.03843040452439075,-0.0017075828851136558,-5.689018941261132e-05
-0.03825239786642909,-0.0017267535857113608,-5.7748773530317575e-05
-0.03803880347625811,-0.0017458263860470327,-5.861691852325717e-05
-0.03779586590546481,-0.0017647850533924635,-5.9494571383117046e-05
-0.0375308097995585,-0.0017836167223187192,-6.038167182704484e-05
-0.03725169079288759,-0.0018023123474668306,-6.127815409449123e-05
-0.03696721523311311,-0.0018208670739733308,-6.218394894985127e-05
-0.03668653099719493,-0.001839280510530908,-6.309898584597733e-05
-0.03641899622021437,-0.0018575568923352602,-6.402319519669387e-05
-0.03617393689055481,-0.0018757051256129524,-6.495651070118092e-05
-0.03596040593903228,-0.0018937387113203493,-6.589887166041424e-05
-0.035786955547717166,-0.0019116755516920367,-6.685022522616735e-05
-0.03566143213823184,-0.001929537648613524,-6.781052852624373e-05
-0.03559080077455775,-0.0019473507068417215,-6.877975061510755e-05
-0.03558100297867803,-0.0019651436577800305,-6.975787420626298e-05
-0.03563684963460402,-0.001982948120933351,-7.074489715094132e-05
-0.03576194893383577,-0.002000797820575461,-7.174083363631852e-05
-0.03595866826219314,-0.002018727974874468,-7.2745715085181e-05
-0.03622812859068141,-0.0020367746740876866,-7.375959074742154e-05
-0.03657022960511892,-0.0020549742636366366,-7.478252798185262e-05
-0.03698370228150994,-0.002073362746608294,-7.581461223441384e-05
-0.03746618295134757,-0.0020919752179165084,-7.685594672554504e-05
-0.038014300982559035,-0.002110845338899985,-7.790665186474916e-05
-0.038623772793849195,-0.0021300048573440872,-7.896686441381017e-05
-0.03928949772562565,-0.002149483174973956,-8.003673642188969e-05
-0.04000565441827095,-0.0021693069630099302,-8.111643395638566e-05
-0.04076579824540584,-0.0021894998261758492,-8.220613565368211e-05
-0.04156296071276511,-0.0022100820159153918,-8.330603111420493e-05
-0.04238975120078576,-0.0022310701938937794,-8.441631916665721e-05
-0.04323846096643179,-0.0022524772469355837,-8.553720602686456e-05
-0.04410116931329949,-0.0022743121545055166,-8.666890337722484e-05
-0.04496985178894539,-0.0022965799097810777,-8.781162639329649e-05
-0.04583648985376004,-0.002319281495191754,-8.89655917445397e-05
-0.046693181233850814,-0.0023424139129636567,-9.013101559657855e-05
-0.04753225058164756,-0.0023659702709175313,-9.130811164254884e-05
-0.04834636047309671,-0.0023899399236812172,-9.249708919119853e-05
-0.04912862198167908,-0.002414308669294911,-9.369815133944256e-05
-0.04987270198230239,-0.0024390590002859066,-9.491149325683776e-05
-0.050572922453082716,-0.002464170406394753,-9.613730060850793e-05
-0.051224346933098824,-0.002489619723741298,-9.737574814104194e-05
-0.05182285108049138,-0.0025153815232446955,-9.862699845278844e-05
-0.05236517686353351,-0.002541428530230702,-9.989120096615729e-05
-0.052848971937814404,-0.0025677320674310387,-0.00010116849111557272
-0.05327281623137079,-0.002594262514473335,-0.00010245898976104881
-0.05363623664816477,-0.002620989777693219,-0.00010376280283409045
-0.05393970912453028,-0.002647883764136393,-0.00010508002121954785
-0.054184646308236405,-0.0026749148529945843,-0.00010641072087383059
-0.054373369459039145,-0.0027020543569364034,-0.00010775496317631334
