acceleration,velocity,displacement
-0.060369234785686496,0.0,0.0
-0.05841375038925556,-2.9695746293735515e-05,-7.423936573433879e-09
-0.056459973150286225,-5.8414177178620964e-05,-2.9451417441523e-08
-0.05450960633496311,-8.61565720499333e-05,-6.559410474866156e-08
-0.05256434568872055,-0.00011292506005585422,-1.1536451277510845e-07
-0.05062587626602433,-0.00013872261554454045,-1.7827643167520713e-07
-0.048695869810367616,-0.00016355305206363843,-2.5384534857725187e-07
-0.04677598265406138,-0.00018742101517974568,-3.415888653880979e-07
-0.04486785399318132,-0.00021033197434155635,-4.410271127684234e-07
-0.04297310430351963,-0.00023229221391573158,-5.516831598327454e-07
-0.041093333610333176,-0.0002533088233941948,-6.730834191602269e-07
-0.039230119317722696,-0.00027338968662620877,-8.047580466653278e-07
-0.03738501334649521,-0.00029254346979226323,-9.462413357699458e-07
-0.03555953841009467,-0.00031077960773141073,-1.0970721051508644e-06
-0.03375518335507463,-0.00032810828817270306,-1.256794079126893e-06
-0.03197339758963537,-0.00034454043340888057,-1.424956259522289e-06
-0.030215584714372485,-0.0003600876789848825,-1.6011132876207297e-06
-0.028483095552457822,-0.0003747623490515901,-1.7848257946298478e-06
-0.02677722084896984,-0.00038857742815194703,-1.975660738930732e-06
-0.025099183953791612,-0.0004015465293526374,-2.173191728306878e-06
-0.02345013379614711,-0.00041368385879012205,-2.376999325342568e-06
-0.021831138402270564,-0.0004250041768397265,-2.58667133425003e-06
-0.02024317913140592,-0.0004355227562231456,-2.801803067515748e-06
-0.018687145736495585,-0.00044525533744012096,-3.0219975909315647e-06
-0.017163832301858816,-0.00045421808194970954,-3.2468659457790224e-06
-0.015673934075747638,-0.0004624275235441112,-3.4760273471524774e-06
-0.014218045213358801,-0.0004699005183663878,-3.709109357630102e-06
-0.01279665747707535,-0.0004766541940389963,-3.945748035731448e-06
-0.011410159979033246,-0.00048270589840302346,-4.185588058841952e-06
-0.010058840059197941,-0.00048807314841258127,-4.428282820545854e-06
-0.008742885357467244,-0.0004927735797667476,-4.673494502590686e-06
-0.007462387080608761,-0.0004968248978762666,-4.920894122001439e-06
-0.006217344403603888,-0.0005002448307473197,-5.170161554157336e-06
-0.0050076698781961375,-0.0005030510843177697,-5.420985532923608e-06
-0.0038331956438857856,-0.0005052613006982902,-5.673063629177623e-06
-0.002693680162771288,-0.0005068930196499544,-5.926102209264684e-06
-0.001588815158972604,-0.0005079636434803904,-6.17981637504727e-06
-0.000518232455880738,-0.0005084904053841038,-6.433929887263393e-06
0.0005184895330307036,-0.0005084903411148163,-6.688175073888124e-06
0.001521819809315156,-0.0005079802637792298,-6.942292725111635e-06
0.0024922693344376625,-0.0005069767414932916,-7.196031976429765e-06
0.003430386066273679,-0.0005054960776431138,-7.449150181213867e-06
0.004336750377606161,-0.0005035542935321438,-7.70141277400768e-06
0.00521197071017667,-0.0005011671132601982,-7.952593125705766e-06
0.006056679291875257,-0.0004983499507596852,-8.202472391710737e-06
0.006871527736126105,-0.0004951178990026849,-8.45083935415133e-06
0.0076571823685386755,-0.0004914857214765187,-8.69749025927113e-06
0.008414319182210169,-0.00048746784608883143,-8.942228651162469e-06
0.009143618385144865,-0.0004830783616969927,-9.184865203108924e-06
0.009845758550844031,-0.0004783310174629955,-9.42521754789892e-06
0.01052141041131295,-0.0004732392252224562,-9.663110108570284e-06
0.011171230351168673,-0.0004678160650318358,-9.898373931133857e-06
0.011795853687477723,-0.0004620742940221742,-1.013084652089736e-05
0.01239588785667875,-0.0004560263586361351,-1.0360371684061937e-05
0.012971905665061968,-0.0004496844102556999,-1.0586799376284896e-05
0.013524438774616412,-0.0004430603241457803,-1.0809985559885265e-05
0.014053971585201183,-0.0004361657215558259,-1.1029792071310666e-05
0.014560935650508741,-0.00042901199474689844,-1.1246086500386347e-05
0.015045704751889866,-0.0004216103346462988,-1.1458742082734647e-05
0.015508590762609777,-0.00041397176076767386,-1.166763760658814e-05
0.015949840457347875,-0.00040610715296268446,-1.187265733502073e-05
0.016369633432659007,-0.00039802728449018273,-1.2073690944383947e-05
0.01676808127669531,-0.00038974285581284414,-1.2270633479459704e-05
0.01714522805265241,-0.0003812645284805072,-1.2463385325533041e-05
0.017501052059415722,-0.0003726029584524902,-1.2651852197266291e-05
0.01783546874444163,-0.0003637688282515259,-1.2835945143942296e-05
0.01814833460729662,-0.0003547728774135913,-1.3015580570358574e-05
0.018439451958737467,-0.0003456259307720828,-1.3190680272404994e-05
0.018708574465559645,-0.0003363389241660085,-1.3361171486139516e-05
0.01895541347721995,-0.00032692292718031364,-1.3526986948976096e-05
0.019179645164449154,-0.00031738916251989636,-1.3688064971401148e-05
0.01938091848552571,-0.00030774902160740267,-1.3844349517432972e-05
0.01955886393511282,-0.00029801407600224306,-1.3995790291835383e-05
0.01971310294561022,-0.0002881960842820623,-1.414234283190646e-05
0.019843257727497964,-0.00027830699411378524,-1.4283968601505423e-05
0.019948961266277546,-0.0002683589393653414,-1.4420635084875205e-05
0.020029867146492318,-0.00025836423226214893,-1.4552315877782077e-05
0.02008565886357935,-0.000248335350759631,-1.4678990773537522e-05
0.020116058326476283,-0.0002382849214621171,-1.480064584159296e-05
0.020120833337578376,-0.00022822569854610343,-1.4917273496595015e-05
0.020099803927423977,-0.00021817053922985283,-1.5028872556039004e-05
0.02005284748784693,-0.0002081323763760351,-1.5135448284940476e-05
0.019979902679765665,-0.00019812418883413197,-1.5237012426243018e-05
0.019880972099240047,-0.00018815897013938054,-1.5333583215986397e-05
0.01975612368553594,-0.00017824969619318655,-1.5425185382569537e-05
0.019605490866369847,-0.0001684092925552101,-1.5511850129756638e-05
0.019429271469118096,-0.0001586506019713381,-1.5593615103388276e-05
0.019227725480539797,-0.00014898635273392363,-1.567052434206459e-05
0.019001171798651986,-0.00013942912841412568,-1.57426282123516e-05
0.01874998416655203,-0.00012999133942282468,-1.5809983329310838e-05
0.0184745864910743,-0.0001206851967584181,-1.587265246335615e-05
0.01817544773039353,-0.00011152268820305114,-1.5930704434596516e-05
0.01785307650367469,-0.00010251555714453408,-1.5984213995933412e-05
0.01750801555641685,-9.367528412951119e-05,-1.6033261706251922e-05
0.017140836221592678,-8.501307118500881e-05,-1.6077933795080552e-05
0.016752133040184802,-7.653982886956444e-05,-1.6118322020094194e-05
0.016342518718027357,-6.826616593001139e-05,-1.615452351879409e-05
0.015912619579588477,-6.020238135560743e-05,-1.6186640655615493e-05
0.015463071637097163,-5.235845855143602e-05,-1.6214780865592254e-05
0.0149945173379797,-4.4744061307666806e-05,-1.623905649555703e-05
0.01450760299244121,-3.736853122506158e-05,-1.6259584643690212e-05
0.014002976820038525,-3.0240886271941644e-05,-1.6276486998064462e-05
0.01348128750076159,-2.3369820191741614e-05,-1.6289889674680382e-05
0.012943183092437057,-1.6763702543441952e-05,-1.6299923055364177e-05
0.012389310195124707,-1.043057922155151e-05,-1.6306721625805426e-05
0.011820313291021239,-4.378173350015024e-06,-1.6310423813948317e-05
0.011236834234272894,1.38611353130851e-06,-1.6311171828902994e-05
0.010639511891108617,6.855200062653887e-06,-1.6309111500504504e-05
0.010028981938906409,1.2022323520157644e-05,-1.63043921196088e-05
0.009405876824442399,1.6881038210994844e-05,-1.6297166279176012e-05
0.008770825854461171,2.1425213880720737e-05,-1.6287589716153082e-05
0.008124455356225323,2.564903418339236e-05,-1.6275821154137054e-05
0.007467388823132544,2.9546995228231828e-05,-1.6262022146784147e-05
0.0068002469638808365,3.3113904174985175e-05,-1.6246356921933344e-05
0.006123647600499957,3.634487781608037e-05,-1.6228992226435578e-05
0.005438205399275306,3.923534106602419e-05,-1.621009717171505e-05
0.004744531455535378,4.1781025279726865e-05,-1.6189843080128612e-05
0.0040432327794791825,4.3977966338480503e-05,-1.616840333222406e-05
0.003334911741703182,4.5822502468776096e-05,-1.6145953215022247e-05
0.0026201655359687436,4.731127178819408e-05,-1.6122669771458004e-05
0.0018995857158694315,4.844120960115362e-05,-1.6098731651110666e-05
0.001173757874037169,4.920954549863027e-05,-1.607431896233572e-05
0.0004432615468849335,4.9613800353860796e-05,-1.6049613125872598e-05
-0.00029132957885673886,4.965178334586784e-05,-1.6024796729947666e-05
-0.001029447111825037,4.9321589173197396e-05,-1.60000533868179e-05
-0.0017705270479579343,4.862159563325165e-05,-1.597556759061629e-05
-0.0025140085500560514,4.755046173374816e-05,-1.595152457627454e-05
-0.0032593325118634715,4.6107126468268276e-05,-1.5928110179224035e-05
-0.004005940056059512,4.429080832628753e-05,-1.5905510695525397e-05
-0.004753271152042269,4.210100552426208e-05,-1.5883912742062758e-05
-0.005500763547498336,3.953749684937693e-05,-1.5863503116469347e-05
-0.006247852171882394,3.660034291953175e-05,-1.584446865652712e-05
-0.006993969087791629,3.328988760461324e-05,-1.5826996098896082e-05
-0.007738543967206655,2.960675934086367e-05,-1.5811271937159712e-05
-0.00848100500100128,2.5551872098811687e-05,-1.5797482279299793e-05
-0.009220780142189803,2.112642581301392e-05,-1.5785812704821838e-05
-0.009957298625472179,1.6331906121098422e-05,-1.577644812183831e-05
-0.01068999276116044,1.1170083274440267e-05,-1.5769572624489422e-05
-0.011418300034868952,5.643010075432919e-06,-1.5765369351151954e-05
-0.01214166553062066,-2.469813159394845e-07,-1.576402034396208e-05
-0.012859544632172891,-6.497283856637873e-06,-1.5765706410255224e-05
-0.013571405877654475,-1.3105021484094715e-05,-1.5770606986590408e-05
-0.014276733789088229,-2.006705640078039e-05,-1.5778900006061628e-05
-0.014975031491956694,-2.737999772104162e-05,-1.5790761769592084e-05
-0.015665822977638494,-3.504021133844042e-05,-1.5806366821856955e-05
-0.016348654929177146,-4.304383081514433e-05,-1.5825887832395352e-05
-0.017023098111594578,-5.138676907533726e-05,-1.584949548236797e-05
-0.017688748404630677,-6.006473070439357e-05,-1.5877358357312904e-05
-0.018345227606859173,-6.907322470726604e-05,-1.590964284616582e-05
-0.01899218414574587,-7.84075776454173e-05,-1.594651304675399e-05
-0.019629293787006348,-8.806294712860535e-05,-1.5988130677947494e-05
-0.02025626036415952,-9.803433566639681e-05,-1.6034654998646246e-05
-0.020872816465444793,-0.00010831660487379788,-1.6086242733781295e-05
-0.021478723945292665,-0.00011890448997648225,-1.6143048007493866e-05
-0.022073774100419885,-0.0001297926144879104,-1.6205222283609964e-05
-0.022657787376557097,-0.00014097550485715464,-1.627291431344623e-05
-0.02323061252727152,-0.0001524476048331118,-1.6346270090868794e-05
-0.02379212519948124,-0.0001642032892648,-1.6425432814393272e-05
-0.024342225960872255,-0.00017623687705488838,-1.6510542855973196e-05
-0.02488083781715345,-0.00018854264299939482,-1.6601737735986767e-05
-0.025407903292509783,-0.00020111482827681062,-1.669915210380582e-05
-0.025923381167916842,-0.00021394764939191728,-1.6802917723223e-05
-0.02642724299916573,-0.00022703530543368791,-1.6913163461929402e-05
-0.02691946956827069,-0.000240371983575547,-1.703001528418171e-05
-0.027400047442170717,-0.0002539518628281574,-1.7153596245782636e-05
-0.027868965810899732,-0.000267769116141425,-1.728402649052503e-05
-0.02832621375712418,-0.00028181791103343095,-1.7421423247318745e-05
-0.028771778072720418,-0.0002960924089908921,-1.7565900827324826e-05
-0.029205641681489678,-0.00031058676392944467,-1.771757062055491e-05
-0.029627782647372664,-0.00032529512001166025,-1.7876541091540185e-05
-0.030038173654029367,-0.00034021160908701074,-1.8042917773814853e-05
-0.030436781763978602,-0.00035533034794151273,-1.8216803263071984e-05
-0.030823568245745742,-0.00037064543544394383,-1.8398297208918347e-05
-0.03119848831404532,-0.0003861509495838916,-1.8587496305175305e-05
-0.031561490727556485,-0.00040184094434429204,-1.8784494278657353e-05
-0.031912517272323325,-0.000417709446344262,-1.8989381876329492e-05
-0.032251502197078126,-0.00043375045121161234,-1.9202246850718462e-05
-0.03257837167928336,-0.0004499579196807027,-1.942317394344154e-05
-0.03289304341689134,-0.0004663257734547464,-1.96522448667254e-05
-0.03319542646537897,-0.000482847890925314,-1.9889538282820415e-05
-0.03348542146044549,-0.0004995181029067701,-2.0135129781278436e-05
-0.033762921369629044,-0.0005163301886142887,-2.03890918541587e-05
-0.03402781288816861,-0.0005332778721787382,-2.0651493869356956e-05
-0.034279978537253966,-0.0005503548200350938,-2.0922402042410415e-05
-0.03451929945903035,-0.0005675546395341649,-2.120187940730273e-05
-0.03474565885707607,-0.0005848708791131916,-2.1489985786964567e-05
-0.034958946011996034,-0.0006022970303304596,-2.178677776432548e-05
-0.03515906080138585,-0.0006198265320338051,-2.2092308654916544e-05
-0.0353459186575908,-0.0006374527768985492,-2.2406628482149632e-05
-0.03551945589863132,-0.0006551691205376048,-2.272978395650867e-05
-0.035679635362509565,-0.0006729688933528901,-2.3061818459981292e-05
-0.03582645224727717,-0.0006908454152553368,-2.3402772037133347e-05
-0.0359599400017073,-0.0007087920133175829,-2.3752681394276576e-05
-0.03608017605385268,-0.0007268020423314729,-2.4111579908188842e-05
-0.03618728715256875,-0.0007448689081330783,-2.447949764580498e-05
-0.03628145413671899,-0.0007629860934554002,-2.48564613962021e-05
-0.03636291599413328,-0.0007811471859881133,-2.5242494716062976e-05
-0.03643197308809662,-0.0007993459082586708,-2.5637617989624672e-05
-0.036488989420365665,-0.0008175761488857864,-2.6041848503910786e-05
-0.036534393792929575,-0.0008358319946891101,-2.645520053980451e-05
-0.036568679732939695,-0.0008541077630705774,-2.6877685479244432e-05
-0.03659240405438356,-0.0008723980340174083,-2.730931192851643e-05
-0.036606183957861096,-0.0008906976810204695,-2.77500858572759e-05
-0.03661069263034774,-0.0009090019001675217,-2.82000107525729e-05
-0.036606653392514905,-0.0009273062366732374,-2.865908778678309e-05
-0.03659483252409082,-0.0009456066081523888,-2.9127315997989495e-05
-0.03657603095418529,-0.0009638993240219579,-2.960469248103308e-05
-0.03655107502843629,-0.0009821811005176133,-3.0091212587167973e-05
-0.03652080656914506,-0.0010004490709170086,-3.0586870130026627e-05
-0.036486072445728594,-0.001018700790670727,-3.109165759542356e-05
-0.03644771388523951,-0.001036934237253469,-3.160556635240461e-05
-0.03640655577939483,-0.0010551478046696276,-3.212858686288538e-05
-0.03636339627277817,-0.0010733402926826707,-3.266070888722346e-05
-0.03631899692882979,-0.0010915108909830727,-3.3201921683139894e-05
-0.03627407376043357,-0.0011096591586553886,-3.3752214195549506e-05
-0.03622928938935457,-0.0011277849994428355,-3.431157523507406e-05
-0.036185246569493575,-0.0011458886334325476,-3.4879993643292906e-05
-0.03614248326296174,-0.0011639705658906614,-3.545745844312371e-05
-0.036101469379669536,-0.0011820315540513192,-3.604395897310921e-05
-0.03606260518038801,-0.0012000725726913335,-3.663948500479487e-05
-0.03602622122925693,-0.0012180947792937448,-3.724402684279114e-05
-0.03599257970629818,-0.0012360994795276336,-3.7857575407496485e-05
-0.03596187687876884,-0.0012540880936739004,-3.848012230079687e-05
-0.03593424658034557,-0.001272062124538679,-3.911165985535001e-05
-0.03590976462949135,-0.0012900231273411382,-3.9752181168319965e-05
-0.035888454179942075,-0.0013079726820434967,-4.040168012066613e-05
-0.03587029199191889,-0.001325912368586462,-4.106015138332362e-05
-0.03585521554567055,-0.0013438437454708593,-4.1727590411837945e-05
-0.03584313083923978,-0.001361768332067087,-4.240399343122243e-05
-0.03583392067089072,-0.0013796875949446195,-4.3089357412975355e-05
-0.03582745321713322,-0.0013976029384166254,-4.3783680046315664e-05
-0.03582359076127791,-0.0014155156994112282,-4.448695970577263e-05
-0.03582219848387851,-0.0014334271467225173,-4.519919541730607e-05
-0.03582315328322791,-0.0014513384846642939,-4.592038682515277e-05
-0.035826352637772264,-0.001469250861144544,-4.665053416160498e-05
-0.035831723531638666,-0.0014871653801868966,-4.738963822193784e-05
-0.03583923142593685,-0.0015050831189262906,-4.813770034671614e-05
-0.03584888918209152,-0.0015230051490782977,-4.889472241371728e-05
-0.03586076575611275,-0.0015409325628128487,-4.966070684169007e-05
-0.0358749944088692,-0.0015588665028540942,-5.04356566081068e-05
-0.035891780129490895,-0.0015768081964886841,-5.12195752829425e-05
-0.03591140594412938,-0.0015947589930070893,-5.2012467080316444e-05
-0.03593423777471615,-0.0016127204039368007,-5.2814336929552413e-05
-0.03596072753376481,-0.001630694145263921,-5.362519056685259e-05
-0.03599141421469966,-0.001648682180701037,-5.444503464834383e-05
-0.03602692285952668,-0.0016666867649695937,-5.527387688476149e-05
-0.03606796141255178,-0.0016847104860376132,-5.611172619751329e-05
-0.03611531554932842,-0.0017027563052780833,-5.695859289534221e-05
-0.036169841594442094,-0.001720827594564026,-5.781448887030274e-05
-0.036232457641484514,-0.0017389281693730076,-5.8679427811287e-05
-0.03630413298850949,-0.0017570623170305062,-5.9553425432887877e-05
-0.036385876001354525,-0.0017752348192779722,-6.0436499716964994e-05
-0.03647872051762207,-0.0017934509684077162,-6.132867116388641e-05
-0.03658371093076367,-0.0018117165762698128,-6.222996305005579e-05
-0.036701886170039166,-0.0018300379755450135,-6.31404016880095e-05
-0.03683426290571315,-0.0018484220128139517,-6.406001668509923e-05
-0.036981818409502126,-0.0018668760331427554,-6.498884119658841e-05
-0.037145473541798264,-0.0018854078561305805,-6.592691216890675e-05
-0.03732607631674158,-0.0019040257435952155,-6.68742705688382e-05
-0.03752438644126449,-0.001922738359284717,-6.783096159455819e-05
-0.03774106115565554,-0.001941554721183947,-6.879703486467535e-05
-0.037976642631129987,-0.0019604841471306434,-6.9772544581754e-05
-0.03823154711425551,-0.0019795361945669897,-7.07575496671784e-05
-0.038506055953413436,-0.001998720595333907,-7.175211386465363e-05
-0.03880030860061195,-0.0020180471864724133,-7.27563058101052e-05
-0.03911429765433772,-0.0020375258380361506,-7.377019906623235e-05
-0.03944786597998523,-0.002057166378944731,-7.479387212047757e-05
-0.03980070588678013,-0.0020769785219114222,-7.582740834569162e-05
-0.040172360255740565,-0.0020969717884470524,-7.687089592328123e-05
-0.040562225445475976,-0.0021171554348723568,-7.792442772911108e-05
-0.04096955579204393,-0.002137538380181737,-7.89881011828746e-05
-0.041393469559381245,-0.0021581291365195933,-8.006201806204994e-05
-0.041832956245340905,-0.0021789357429707738,-8.114628428192253e-05
-0.042286885170319026,-0.0021999657033246888,-8.22410096434964e-05
-0.04275401526404164,-0.002221225928433279,-8.33463075514359e-05
-0.043233005936453996,-0.0022427226837334027,-8.446229470447757e-05
-0.043722428892871736,-0.002264461542440734,-8.55890907610211e-05
-0.04422078074074011,-0.002286447344849137,-8.672681798284358e-05
-0.044726496224350515,-0.0023086841640904097,-8.787560086007847e-05
-0.04523796190747346,-0.0023311752786233657,-8.903556572075692e-05
-0.0457535301146523,-0.0023539231516288973,-9.020684032831999e-05
-0.0462715329504049,-0.0023769294173951617,-9.1389553470576e-05
-0.04679029622699602,-0.002400194874689512,-9.258383454359717e-05
-0.04730815311873431,-0.0024237194870259443,-9.378981313402603e-05
-0.04782345732128535,-0.002447502389635949,-9.50076186031915e-05
-0.04833459546232481,-0.0024715419028318517,-9.623737967630845e-05
-0.04883999852071777,-0.002495835551327612,-9.747922403984833e-05
-0.04933815206744793,-0.0025203800889746536,-9.873327794992389e-05
-0.04982760521791166,-0.0025451715282959935,-9.999966585424155e-05
-0.050306978250105695,-0.0025702051741629977,-0.0001012785100298563
-0.050774968874223066,-0.0025954756609440797,-0.00010256993023863306
-0.051230357134894086,-0.002620976992446359,-0.00010387404340198067
-0.051672008910728796,-0.002646702583957765,-0.00010519096329608171
-0.052098877975429496,-0.0026726453056793043,-0.00010652080026849098
-0.052510006613403666,-0.0026987975268265127,-0.00010786366097661743
