frame_number,force
0,874.9965820059645
1,875.1720801559438
2,875.3474250942751
3,875.5224639585452
4,875.6970445613033
5,875.8710156745769
6,876.0442272650082
7,876.2165306823406
8,876.3877788142369
9,876.5578262284423
10,876.7265293280692
11,876.893746546403
12,877.05933860377
13,877.2231688417592
14,877.3851036413995
15,877.5450129231798
16,877.702770718667
17,877.8582557960245
18,878.011352315223
19,878.1619504847253
20,878.309947191998
21,878.4552465852793
22,878.5977605908773
23,878.7374093564573
24,878.8741216156217
25,879.0078349721779
26,879.1384961026953
27,879.2660608731543
28,879.3904943620496
29,879.5117707815856
30,879.6298732917123
31,879.7447937069289
32,879.8565321012779
33,879.9650963229459
34,880.0705014368483
35,880.1727691201999
36,880.2719270397241
37,880.3680082380326
38,880.4610505510976
39,880.5510960702308
40,880.6381906525046
41,880.7223834752949
42,880.803726625106
43,880.8822747075371
44,880.9580844629141
45,881.0312143713484
46,881.1017242333212
47,881.1696747169381
48,881.2351268685785
49,881.2981415879304
50,881.3587790709342
51,881.417098225901
52,881.4731560704007
53,881.5270071198114
54,881.5787027815707
55,881.6282907705541
56,881.6758145600207
57,881.7213128804633
58,881.7648192775014
59,881.8063617407123
60,881.8459624172941
61,881.8836374254342
62,881.9193967797945
63,881.9532444348986
64,881.985178443144
65,882.0151912162236
66,882.0432698754557
67,882.0693966788957
68,882.0935495189669
69,882.1157024902539
70,882.1358265301689
71,882.1538901338992
72,882.1698601395847
73,882.1837025720575
74,882.1953835259804
75,882.204870063038
76,882.212131093609
77,882.2171382124745
78,882.2198664618987
79,882.2202950029288
80,882.218407683912
81,882.2141935011794
82,882.2076469497559
83,882.198768262631
84,882.1875635371265
85,882.1740447479336
86,882.1582296493962
87,882.140141574453
88,882.1198091431299
89,882.0972658976142
90,882.072549882119
91,882.045703184064
92,882.0167714503091
93,881.9858033904377
94,881.9528502796629
95,881.9179654760394
96,881.8812039678563
97,881.8426219656294
98,881.8022765493171
99,881.7602253764144
100,881.7165264510876
101,881.671237948861
102,881.6244180865805
103,881.5761250252541
104,881.5264167950606
105,881.4753512361085
106,881.4229859526473
107,881.3693782807712
108,881.3145852703857
109,881.2586636814611
110,881.2016699921603
111,881.1436604132479
112,881.0846909011594
113,881.024817162413
114,880.9640946444586
115,880.9025785115283
116,880.8403236073733
117,880.7773844091183
118,880.7138149774997
119,880.6496689086499
120,880.5849992925154
121,880.5198586840669
122,880.4542990947506
123,880.388372011023
124,880.3221284440989
125,880.2556190114468
126,880.1888940463201
127,880.1220037266265
128,880.0549982097265
129,879.9879277564831
130,879.920842827151
131,879.8537941349118
132,879.7868326502391
133,879.7200095581569
134,879.6533761766129
135,879.5869838449014
136,879.520883787289
137,879.4551269520161
138,879.3897638228565
139,879.3248442016525
140,879.2604169658805
141,879.1965298124566
142,879.1332290037956
143,879.0705591327147
144,879.0085629193874
145,878.9472810474866
146,878.8867520394089
147,878.8270121635886
148,878.768095362332
149,878.7100331880906
150,878.6528547397997
151,878.5965865974046
152,878.5412527602107
153,878.4868746009823
154,878.4334708501373
155,878.3810576220671
156,878.3296484906313
157,878.2792546161013
158,878.2298849221935
159,878.1815463188866
160,878.1342439644424
161,878.0879815581303
162,878.0427616527234
163,877.9985859729726
164,877.9554557244518
165,877.9133718773202
166,877.8723354113729
167,877.8323475119961
168,877.7934097117225
169,877.7555239792401
170,877.7186927660994
171,877.6829190283285
172,877.6482062419467
173,877.6145584262836
174,877.5819801800757
175,877.5504767278305
176,877.5200539705038
177,877.4907185334202
178,877.4624778029122
179,877.4353399409445
180,877.4093138651285
181,877.3844091812675
182,877.3606360580823
183,877.3380050389005
184,877.3165267908142
185,877.2962117959086
186,877.2770699908758
187,877.2591103613635
188,877.2423404970331
189,877.2267661131276
190,877.2123905448108
191,877.1992142230406
192,877.1872341459014
193,877.176443364485
194,877.1668305035078
195,877.1583793332906
196,877.1510684054801
197,877.1448707634826
198,877.1397537393648
199,877.1356788495902
200,877.1326018017564
201,877.1304726236802
202,877.1292359236833
203,877.1288312854977
204,877.1291937935248
205,877.1302546767354
206,877.131942054434
207,877.1341817648773
208,877.1368982573431
209,877.1400155281483
210,877.1434580799927
211,877.1471518816176
212,877.1510253022292
213,877.1550099940685
214,877.1590416973855
215,877.1630609441038
216,877.167013639087
217,877.1708515020453
218,877.174532360145
219,877.178020291329
220,877.1812856285776
221,877.1843048421164
222,877.1870603176197
223,877.1895400439654
224,877.1917372167012
225,877.1936497578573
226,877.1952797531259
227,877.1966328134447
228,877.197717375174
229,877.1985439567758
230,877.1991243889651
231,877.1994710313517
232,877.1995959835281
233,877.1995102934588
234,877.1992231621085
235,877.1987411424059
236,877.198067334101
237,877.1972005829252
238,877.1961347003089
239,877.1948577265371
240,877.1933512645248
241,877.1915899136271
242,877.189540833581
243,877.1871634667576
244,877.1844094403098
245,877.1812226588189
246,877.1775395866636
247,877.173289712105
248,877.1683961828912
249,877.1627766032091
250,877.156343981817
251,877.1490078212717
252,877.1406753381233
253,877.13125280157
254,877.1206469712022
255,877.1087666042795
256,877.0955239939489
257,877.0808364960839
258,877.0646280042644
259,877.0468303373459
260,877.0273845102213
261,877.0062418648464
262,876.9833650444914
263,876.958728799085
264,876.9323206132777
265,876.904141151331
266,876.874204515548
267,876.8425383201419
268,876.8091835900061
269,876.7741944999275
270,876.7376379707393
271,876.6995931352905
272,876.6601506827527
273,876.6194120878208
274,876.577488732381
275,876.534500929885
276,876.4905768649799
277,876.4458514620936
278,876.4004651976637
279,876.3545628721662
280,876.3082923589327
281,876.2618033459746
282,876.2152460860107
283,876.1687701710414
284,876.1225233513458
285,876.0766504216656
286,876.031292196373
287,875.9865845903806
288,875.9426578157046
289,875.8996356977565
290,875.8576351126688
291,875.8167655473352
292,875.7771287853377
293,875.7388187219698
294,875.7019213089862
295,875.6665146251856
296,875.6326690639918
297,875.6004476256633
298,875.5699063011016
299,875.5410945363484
300,875.5140557698365
301,875.4888280362671
302,875.4654446306399
303,875.4439348232988
304,875.4243246127334
305,875.4066374990234
306,875.3908952580242
307,875.37711869379
308,875.3653283432584
309,875.3555451032659
310,875.3477907476008
311,875.3420883034183
312,875.3384622625608
313,875.3369386125091
314,875.3375446812357
315,875.3403087982683
316,875.3452597809668
317,875.3524262622017
318,875.3618358843306
319,875.3735143929549
320,875.3874846696108
321,875.4037657441597
322,875.4223718258313
323,875.4433113872126
324,875.4665863282364
325,875.4921912384926
326,875.5201127680277
327,875.5503291109791
328,875.5828096036944
329,875.6175144394919
330,875.6543945049732
331,875.6933913458882
332,875.7344372726837
333,875.777455616651
334,875.8223611456002
335,875.8690606412292
336,875.9174536293955
337,875.9674332433071
338,876.0188871922688
339,876.0716988061793
340,876.1257481270076
341,876.1809130215204
342,876.2370702943579
343,876.2940967873831
344,876.3518704598403
345,876.4102714528836
346,876.4691831482846
347,876.5284932314225
348,876.5880947629726
349,876.6478872552449
350,876.707777741652
351,876.7676818232212
352,876.8275246743541
353,876.8872419908387
354,876.9467808667229
355,877.0061005919357
356,877.0651733662805
357,877.1239849251222
358,877.1825350682597
359,877.2408380790829
360,877.2989230200532
361,877.3568338950013
362,877.414629676537
363,877.47238420306
364,877.5301859513503
365,877.588137688248
366,877.6463560014383
367,877.7049707078554
368,877.7641241398511
369,877.8239703122447
370,877.8846739745817
371,877.9464095512773
372,878.0093599695554
373,878.073715373973
374,878.1396717291072
375,878.2074293193526
376,878.2771911645135
377,878.3491613771973
378,878.4235434888994
379,878.5005387661205
380,878.5803445294649
381,878.6631524819825
382,878.7491470514353
383,878.838503755326
384,878.9313876043531
385,879.0279515646907
386,879.1283350998045
387,879.2326628105358
388,879.341043191454
389,879.4535675226635
390,879.5703089171416
391,879.6913215426817
392,879.8166400351147
393,879.9462791165934
394,880.0802334289248
395,880.2184775855966
396,880.3609664367647
397,880.5076355314995
398,880.6584017547899
399,880.8131641147369
400,880.971804656649
401,881.1341894830118
402,881.3001698600862
403,881.469583393284
404,881.6422552551913
405,881.8179994520216
406,881.9966201154024
407,882.1779128067669
408,882.3616658225636
409,882.5476614904508
410,882.735677448396
411,882.9254878993333
412,883.1168648339209
413,883.30957921271
414,883.5034020965322
415,883.69810571211
416,883.893464441362
417,884.0892557276582
418,884.2852608984595
419,884.4812659098311
420,884.6770620233224
421,884.8724464282407
422,885.0672228210394
423,885.261201948823
424,885.4542021185722
425,885.6460496705564
426,885.8365794144773
427,886.02563502914
428,886.2130694288101
429,886.3987451001803
430,886.5825344131875
431,886.7643199086959
432,886.943994567498
433,887.1214620667834
434,887.2966370290852
435,887.4694452630062
436,887.6398239869404
437,887.8077220211361
438,887.9730999323779
439,888.1359301176432
440,888.2961968146395
441,888.4538960265573
442,888.6090353470247
443,888.7616336709694
444,888.9117207786455
445,889.0593367835262
446,889.2045314396399
447,889.3473633095379
448,889.487898800121
449,889.6262110797007
450,889.7623788945859
451,889.8964853055215
452,890.028616363776
453,890.1588597464171
454,890.2873033724796
455,890.4140340250507
456,890.5391360055695
457,890.6626898443857
458,890.7847710874853
459,890.9054491757058
460,891.0247864294033
461,891.1428371459006
462,891.2596468084814
463,891.3752513971485
464,891.4896767864948
465,891.6029382162054
466,891.715039823629
467,891.8259742330267
468,891.9357222005426
469,892.0442523176569
470,892.1515207802737
471,892.2574712359559
472,892.3620347264488
473,892.4651297446273
474,892.566662423863
475,892.6665268738634
476,892.7646056701079
477,892.8607704944128
478,892.9548829146858
479,893.0467952858461
480,893.1363517517792
481,893.2233893290884
482,893.3077390573487
483,893.3892272072435
484,893.4676765446196
485,893.5429076518677
486,893.6147403073151
487,893.6829949202764
488,893.7474940162911
489,893.8080637650082
490,893.8645355420452
491,893.9167475150597
492,893.9645462420683
493,894.0077882661545
494,894.0463416862232
495,894.0800876805123
496,894.1089219596431
497,894.1327561289709
498,894.151518943987
499,894.1651574447374
500,894.1736379542034
501,894.1769469225713
502,894.1750915969498
503,894.168100495982
504,894.1560236708149
505,894.1389327375849
506,894.116920672457
507,894.0901013688969
508,894.058608966972
509,894.0225969722225
510,893.9822371834505
511,893.9377184454255
512,893.8892452387805
513,893.8370361190271
514,893.7813220191478
515,893.7223444329106
516,893.6603534975541
517,893.5956059958366
518,893.5283633003777
519,893.4588892877389
520,893.3874482534811
521,893.3143028600265
522,893.2397121466008
523,893.1639296270688
524,893.0872014991252
525,893.0097649869339
526,892.9318468373259
527,892.8536619864035
528,892.7754124095981
529,892.6972861639745
530,892.6194566258687
531,892.542081919907
532,892.4653045289982
533,892.3892510709177
534,892.3140322263391
535,892.2397428056889
536,892.166461947494
537,892.0942534470905
538,892.0231662189963
539,891.9532348976791
540,891.8844805805456
541,891.8169117144402
542,891.7505251226775
543,891.6853071641876
544,891.6212350118102
545,891.5582780347904
546,891.4963992700103
547,891.4355569650215
548,891.3757061729275
549,891.3168003761649
550,891.2587931146782
551,891.2016395942272
552,891.1452982525553
553,891.0897322640685
554,891.0349109655399
555,890.9808111846276
556,890.9274184510102
557,890.8747280694629
558,890.822746036185
559,890.7714897834932
560,890.7209887433951
561,890.6712847276575
562,890.6224321297515
563,890.5744979608088
564,890.5275617363022
565,890.4817152318687
566,890.4370621255374
567,890.3937175406701
568,890.3518075004262
569,890.3114683008657
570,890.2728458062451
571,890.2360946679112
572,890.2013774686576
573,890.1688637969302
574,890.1387292579901
575,890.1111544308146
576,890.0863237802438
577,890.0644245337589
578,890.045645530792
579,890.0301760496587
580,890.0182046144711
581,890.0099177835306
582,890.0054989220317
583,890.0051269636004
584,890.0089751653428
585,890.017209859843
586,890.0299892070916
587,890.0474619514595
588,890.0697661929152
589,890.0970281855109
590,890.1293611783997
591,890.166864315462
592,890.2096216094305
593,890.2577010053415
594,890.3111535462778
595,890.3700126514833
596,890.4342935127349
597,890.5039926098273
598,890.5790873414567
599,890.6595357651421
600,890.7452764399018
601,890.8362283675568
602,890.9322910310684
603,891.0333445301289
604,891.139249815375
605,891.2498490236812
606,891.3649659182811
607,891.4844064384037
608,891.6079593631002
609,891.7353970935128
610,891.8664765577452
611,892.0009402420309
612,892.1385173498375
613,892.2789250866956
614,892.4218700634983
615,892.5670498055578
616,892.714154349421
617,892.8628679045519
618,893.0128705532298
619,893.1638399608944
620,893.3154530710739
621,893.4673877621404
622,893.6193244455844
623,893.770947587901
624,893.9219471425191
625,894.0720198843868
626,894.2208706450821
627,894.36821344816
628,894.5137725430924
629,894.6572833337178
630,894.7984931958476
631,894.9371621801401
632,895.0730636007211
633,895.2059845158587
634,895.3357261120987
635,895.4621040057979
636,895.5849484749343
637,895.7041046295648
638,895.8194325231399
639,895.930807201604
640,896.0381186843615
641,896.1412718707268
642,896.2401863662628
643,896.3347962243187
644,896.4250495992837
645,896.5109083111772
646,896.5923473270554
647,896.6693541716213
648,896.7419282843714
649,896.8100803419248
650,896.8738315615864
651,896.933212996069
652,896.9882648212592
653,897.0390356121802
654,897.0855815996596
655,897.1279659019609
656,897.1662577300317
657,897.2005315699262
658,897.2308663500833
659,897.2573446045634
660,897.2800516470274
661,897.2990747747859
662,897.3145025270429
663,897.3264240248805
664,897.3349284208473
665,897.3401044822255
666,897.3420403240357
667,897.3408232963883
668,897.336540017828
669,897.3292765349416
670,897.319118581637
671,897.3061519102656
672,897.2904626704033
673,897.2721378183606
674,897.2512655496452
675,897.2279357547912
676,897.2022405033617
677,897.1742745605823
678,897.1441359372478
679,897.1119264679148
680,897.0777524064187
681,897.0417250232618
682,897.003961188069
683,896.9645839216602
684,896.9237229044702
685,896.8815149300656
686,896.8381042938659
687,896.793643106595
688,896.7482915197368
689,896.7022178490474
690,896.6555985840931
691,896.608618276281
692,896.5614693032279
693,896.5143515122174
694,896.467471748959
695,896.4210432798563
696,896.3752851179273
697,896.3304212655056
698,896.2866798896986
699,896.2442924470657
700,896.2034927722261
701,896.1645161434967
702,896.1275983382791
703,896.0929746902107
704,896.0608791575316
705,896.0315434084335
706,896.0051959267458
707,895.9820611418113
708,895.9623585886101
709,895.946302104918
710,895.9340990699122
711,895.9259496846007
712,895.9220462907426
713,895.9225727217727
714,895.9277036758027
715,895.9376040969677
716,895.9524285486413
717,895.9723205620852
718,895.9974119467527
719,896.027822051803
720,896.0636569712898
721,896.1050086887254
722,896.1519541611259
723,896.2045543481304
724,896.2628531984186
725,896.326876613738
726,896.3966314196433
727,896.4721043787914
728,896.5532612842085
729,896.640046165838
730,896.7323806366234
731,896.8301633978493
732,896.9332699190734
733,897.0415523051652
734,897.1548393605374
735,897.272936858198
736,897.39562801914
737,897.5226742057737
738,897.6538158310088
739,897.7887734817591
740,897.9272492518289
741,898.068928273655
742,898.2134804305031
743,898.3605622209948
744,898.5098187388788
745,898.66088572605
746,898.8133916574237
747,898.9669598210502
748,899.1212103632218
749,899.2757622746443
750,899.4302352997793
751,899.5842517570454
752,899.7374382618616
753,899.8894273472075
754,900.0398589781003
755,900.1883819579751
756,900.3346552270169
757,900.478349054946
758,900.6191461319783
759,900.7567425594656
760,900.8908487360939
761,901.0211901295335
762,901.1475079207916
763,901.2695595110978
764,901.3871188886822
765,901.4999768629248
766,901.6079411823996
767,901.7108365585686
768,901.8085046183988
769,901.900803808929
770,901.9876092761107
771,902.0688127381917
772,902.144322368418
773,902.2140626921158
774,902.2779744915977
775,902.3360147033844
776,902.3881562895945
777,902.4343880687495
778,902.474714497134
779,902.5091553966682
780,902.537745627386
781,902.5605347025137
782,902.5775863440643
783,902.588977979198
784,902.5948001824416
785,902.5951560737079
786,902.5901606841287
787,902.5799402997878
788,902.5646317885291
789,902.5443819103068
790,902.5193466100353
791,902.4896902936341
792,902.4555850906057
793,902.4172101080349
794,902.3747506808228
795,902.3283976218105
796,902.2783464742374
797,902.2247967682251
798,902.1679512818406
799,902.108015304542
800,902.0451958967219
801,901.9797011366272
802,901.9117393490246
803,901.8415183193329
804,901.7692445086715
805,901.6951222937632
806,901.6193532569526
807,901.5421355457953
808,901.4636633130881
809,901.3841262418197
810,901.3037091560493
811,901.2225917155957
812,901.1409481886558
813,901.0589472935872
814,900.9767521000134
815,900.8945199792844
816,900.8124025938479
817,900.7305459134734
818,900.649090243893
819,900.5681702524028
820,900.4879149778382
821,900.4084478193635
822,900.3298865068264
823,900.252343061339
824,900.1759237566188
825,900.100729090559
826,900.0268537743151
827,899.9543867434852
828,899.8834111926741
829,899.8140046310486
830,899.7462389525652
831,899.6801805105961
832,899.6158901840149
833,899.5534234226362
834,899.4928302650651
835,899.4341553291324
836,899.3774377799756
837,899.3227112814366
838,899.2700039346407
839,899.2193382066124
840,899.1707308526495
841,899.1241928370303
842,899.0797292542263
843,899.0373392458393
844,898.9970159001772
845,898.9587461171792
846,898.9225104234295
847,898.8882827278567
848,898.8560300156456
849,898.8257119854396
850,898.7972806427568
851,898.7706798686836
852,898.7458449860028
853,898.7227023465076
854,898.7011689656707
855,898.681152233706
856,898.662549732721
857,898.645249186701
858,898.6291285654222
859,898.6140563565793
860,898.5998920132806
861,898.5864865770208
862,898.5736834700083
863,898.5613194467811
864,898.5492256946193
865,898.5372290745161
866,898.5251534962607
867,898.5128214193412
868,898.5000554652272
869,898.4866801184792
870,898.472523487704
871,898.4574190951372
872,898.4412076655982
873,898.4237388897413
874,898.4048731403893
875,898.3844831234245
876,898.3624554474568
877,898.3386921002812
878,898.3131118236088
879,898.2856513785565
880,898.2562666926295
881,898.2249338760611
882,898.1916500930038
883,898.1564342719001
884,898.1193276395514
885,898.0803940644246
886,898.039720195166
887,897.9974153792363
888,897.9536113451413
889,897.9084616319008
890,897.8621407516875
891,897.8148430749155
892,897.7667814312695
893,897.7181854268558
894,897.669299487451
895,897.6203806477814
896,897.5716961121192
897,897.5235206109313
898,897.4761335765456
899,897.4298161638221
900,897.3848481504409
901,897.3415047609149
902,897.3000534644415
903,897.2607507990443
904,897.2238392747822
905,897.1895444074243
906,897.1580719303673
907,897.1296052274301
908,897.1043030245099
909,897.0822973752323
910,897.0636919734063
911,897.048560820594
912,897.0369472693402
913,897.0288634532121
914,897.0242901059827
915,897.0231767649368
916,897.0254423471388
917,897.0309760823347
