acceleration,velocity,displacement
-0.06035423488770108,0.0,0.0
-0.058469219944350524,-2.97058637080129e-05,-7.426465927003225e-09
-0.05658414643546416,-5.8469205302966575e-05,-2.9470233179748097e-08
-0.05469896209205942,-8.628998243484746e-05,-6.566003011420161e-08
-0.05281363323416306,-0.00011316813126640309,-1.1552455853951426e-07
-0.05092816759198857,-0.000139103581472941,-1.7859248672435026e-07
-0.0490426497694309,-0.00016409628581329585,-2.5439245354590945e-07
-0.04715728869260753,-0.00018814627042880547,-3.4245309260643477e-07
-0.04527247376823147,-0.00021125371104401523,-4.4230308797463995e-07
-0.04338883440322143,-0.00023341903808687844,-5.534712752573634e-07
-0.04150729627524979,-0.00025464307075649624,-6.754868024682071e-07
-0.03962912751344418,-0.0002749271767036697,-8.078793643332486e-07
-0.03775596883711008,-0.00029427345079130826,-9.501795212069931e-07
-0.03588984343653343,-0.00031268490385971914,-1.10191910986975e-06
-0.034033144478185784,-0.00033016565083839896,-1.2626317485442794e-06
-0.03218860022364802,-0.0003467210870138574,-1.4318534330073435e-06
-0.03035921871748174,-0.00036235804174913986,-1.6091232151980929e-06
-0.02854821580336188,-0.00037708490037935074,-1.7939839507302156e-06
-0.02675893180498683,-0.0003909116872814379,-1.985983097645413e-06
-0.024994743171091096,-0.0004038501060254574,-2.184673545972137e-06
-0.023258975210481626,-0.0004159135356208506,-2.389614456383714e-06
-0.021554820757526374,-0.0004271169846128526,-2.6003720864421396e-06
-0.019885267892098015,-0.00043747700677525866,-2.8165205842891675e-06
-0.018253038307009927,-0.00044701158332503566,-3.037642731814241e-06
-0.016660536733995028,-0.0004557399770852869,-3.2633306219168214e-06
-0.015109811114741084,-0.00046368256404747093,-3.493186257200011e-06
-0.013602523216572734,-0.0004708606476302994,-3.7268220601194537e-06
-0.012139930173242757,-0.0004772962609777533,-3.963861287271467e-06
-0.010722878386638662,-0.00048301196311772364,-4.203938343295336e-06
-0.009351811510851373,-0.0004880306355920961,-4.446698992972791e-06
-0.008026793573805367,-0.0004923752868632603,-4.6918004735866305e-06
-0.006747547115902092,-0.0004960688720356872,-4.938911513311368e-06
-0.005513504974809469,-0.000499134135058365,-5.1877122650848806e-06
-0.004323872974835365,-0.0005015934795457762,-5.437894168735916e-06
-0.0031776991678356603,-0.0005034688725814439,-5.689159756767721e-06
-0.002073943744755138,-0.0005047817833095916,-5.94122242074048e-06
-0.001011542953316399,-0.0005055531549841095,-6.193806155313906e-06
1.0539234160281492e-05,-0.0005058034059138985,-6.446645295538408e-06
0.0009932764312166283,-0.0005055524519975542,-6.699484260016271e-06
0.0019375646057206584,-0.00050481974173832,-6.952077308450239e-06
0.0028442263033409765,-0.0005036242940110546,-7.204188317387582e-06
0.003714032155742604,-0.0005019847293962837,-7.455590573239417e-06
0.004547736031981149,-0.0004999192873493528,-7.706066577425825e-06
0.005346119287428193,-0.0004974458235195004,-7.955407855143038e-06
0.006110038915683192,-0.0004945817839687225,-8.203414757015093e-06
0.006840474166452538,-0.0004913441556981886,-8.449896241931821e-06
0.007538566741090391,-0.0004877493954713029,-8.694669629724193e-06
0.008205650920776778,-0.0004838133410558361,-8.937560313855978e-06
0.008843271373602074,-0.0004795511104822414,-9.178401426740497e-06
0.00945318746576028,-0.0004749769957724008,-9.417033453304158e-06
0.010037363563240202,-0.00047010435801515067,-9.653303791751045e-06
0.010597945290676035,-0.00046494553080167163,-9.88706626395525e-06
0.011137222359074692,-0.00045951173888923394,-1.0118180581377976e-05
0.011657579478077168,-0.000453813038429946,-1.034651177570777e-05
0.012161437754596341,-0.0004478582841217776,-1.0571929606345702e-05
0.01265118943828847,-0.00044165512732355643,-1.0794307959207035e-05
0.013129128757394005,-0.0004352100477746358,-1.1013524252981583e-05
0.013597381205182385,-0.0004285284202839917,-1.122945886999624e-05
0.014057833492896202,-0.00042161461660947204,-1.1441994629219607e-05
0.014512066745316141,-0.00041447214154991896,-1.1651016318759455e-05
0.014961296194905042,-0.00040710380081486366,-1.185641030435065e-05
0.015406321060967133,-0.0003995118965008956,-1.205806422867959e-05
0.015847487874420918,-0.0003916984442670486,-1.2255866813871576e-05
0.016284669039947526,-0.0003836654050384565,-1.2449707776197953e-05
0.016717256345416202,-0.00037541492369211555,-1.2639477858380595e-05
0.017144167324526675,-0.0003669495677746298,-1.2825068981247282e-05
0.017563861732138794,-0.00035827256051046343,-1.3006374513318556e-05
0.017974366152346065,-0.0003493880035393422,-1.3183289654331008e-05
0.018373306381329647,-0.0003403010854059233,-1.3355711926567325e-05
0.018757948839424922,-0.00033101827160073467,-1.352354176581899e-05
0.019125253150271592,-0.00032154747110331054,-1.3686683201495002e-05
0.01947193778784247,-0.000311898173368782,-1.3845044612613026e-05
0.019794559390928976,-0.00030208154907408914,-1.3998539543223744e-05
0.020089604474764846,-0.0002921105081076657,-1.4147087557519183e-05
0.02035359040411181,-0.0002819997093879465,-1.4290615111893086e-05
0.020583170927540303,-0.0002717655190550335,-1.4429056419003831e-05
0.020775240471741858,-0.00026142591620521296,-1.4562354277818893e-05
0.020927031107603616,-0.0002510003483103766,-1.469046084394779e-05
0.02103619695362281,-0.00024050954129507002,-1.4813338316349152e-05
0.0211008825484694,-0.00022997527141954696,-1.4930959519527807e-05
0.021119773628896537,-0.00021942010737520547,-1.5043308364226494e-05
0.021092130085266666,-0.00020886713144666467,-1.5150380173931961e-05
0.021017801425853497,-0.00019833964856888465,-1.5252181868935848e-05
0.020897225066765657,-0.00018786089194572985,-1.5348732004064503e-05
0.02073140757643888,-0.0001774537337849287,-1.544006066049717e-05
0.020521889068127637,-0.00016714040962378707,-1.5526209196349347e-05
0.020270691495068174,-0.0001569422644829881,-1.560722986487604e-05
0.01998025262470386,-0.0001468795284530451,-1.5683185313110047e-05
0.01965334865955322,-0.00013697112813198083,-1.5754147977256305e-05
0.01929300934079465,-0.00012723453863189386,-1.5820199393947274e-05
0.018902429507428462,-0.00011768567891983808,-1.5881429448335206e-05
0.018484880522413233,-0.00010833885141237766,-1.593793558091826e-05
0.018043624157595316,-9.920672524237553e-05,-1.5989821975081948e-05
0.017581830991651115,-9.030036145506392e-05,-1.603719874675631e-05
0.017102505441044098,-8.162927734689011e-05,-1.6080181156456798e-05
0.01660842001621974,-7.320154598257415e-05,-1.6118888862289162e-05
0.016102061659695223,-6.502392556359542e-05,-1.6153445230175704e-05
0.015585592645444716,-5.710201198731043e-05,-1.6183976714563432e-05
0.01506082757716379,-4.9440406931658306e-05,-1.6210612319293176e-05
0.014529226806036306,-4.2042893335858285e-05,-1.6233483144360055e-05
0.01399190525923091,-3.491261031954148e-05,-1.6252722020273904e-05
0.013449654318170495,-2.805222042519113e-05,-1.6268463227960087e-05
0.012902973263666932,-2.146406352973177e-05,-1.6280842298948817e-05
0.012352106363008254,-1.5150293623062976e-05,-1.6289995888237015e-05
0.011797082197361811,-9.11299648297046e-06,-1.6296061710763525e-05
0.01123775301141151,-3.3542876807771294e-06,-1.629917853180446e-05
0.01067383301135775,2.123608824915186e-06,-1.6299486201518425e-05
0.010104935237883736,7.3183008872255575e-06,-1.629712572409039e-05
0.009530606939920902,1.2227186431676717e-05,-1.6292239352260663e-05
0.008950363300379878,1.684742899175191e-05,-1.6284970698404807e-05
0.008363718864482969,2.1175949532967624e-05,-1.6275464853773627e-05
0.007770215328449505,2.5209433081200742e-05,-1.6263868508120084e-05
0.0071694439358263515,2.8944347897269708e-05,-1.6250330062875467e-05
0.006561060894418296,3.237697410483087e-05,-1.6234999732374942e-05
0.005944794912568919,3.5503438056577674e-05,-1.621802962933459e-05
0.0053204468930150165,3.831974850797366e-05,-1.619957383269345e-05
0.0046878827147652175,4.082183090991872e-05,-1.617978843783898e-05
0.004047020671339341,4.300555675644486e-05,-1.6158831590922388e-05
0.0033978154289489872,4.486676578151694e-05,-1.6136863510287898e-05
0.002740240369396866,4.6401279731103405e-05,-1.6114046498909742e-05
0.0020742701761766393,4.760490736749678e-05,-1.609054495213509e-05
0.001399865793923351,4.8473441360021774e-05,-1.606652536495321e-05
0.0007169642060062014,4.900264886000416e-05,-1.6042156342398202e-05
2.547530322137705e-05,4.9188258737311054e-05,-1.6017608615498872e-05
-0.0006747125942513906,4.902594941455355e-05,-1.5993055063460906e-05
-0.0013837179394782305,4.851134178112115e-05,-1.5968670740661987e-05
-0.002101642378134798,4.764000170171789e-05,-1.5944632904791278e-05
-0.0028285401831621183,4.6407456061393665e-05,-1.5921121040350498e-05
-0.00356438374872334,4.48092250784223e-05,-1.5898316870065545e-05
-0.004309029077468225,4.284087187187441e-05,-1.587640434582797e-05
-0.005062185454370094,4.049806823891483e-05,-1.5855569610800272e-05
-0.005823392771439368,3.777667368246246e-05,-1.583600092531993e-05
-0.0065920082010392,3.467282343934282e-05,-1.5817888551039476e-05
-0.007367201768706819,3.1183020946906315e-05,-1.5801424589942913e-05
-0.008147958914870598,2.730423077601196e-05,-1.5786802777012184e-05
-0.008933088032789109,2.3033969039097034e-05,-1.5774218227058408e-05
-0.009721231990144925,1.8370389033363526e-05,-1.576386713754029e-05
-0.01051088395849001,1.3312360046204792e-05,-1.57559464502704e-05
-0.011300408683862898,7.859536885616565e-06,-1.5750653476037446e-05
-0.012088070073690081,2.01241719622832e-06,-1.5748185487516984e-05
-0.012872064603484699,-4.227616473065375e-06,-1.5748739287336192e-05
-0.013650558284530658,-1.0858272195069215e-05,-1.5752510759503225e-05
-0.014421723748493319,-1.787634270332521e-05,-1.5759694413227823e-05
-0.015183773868137726,-2.5277717107482972e-05,-1.5770482928180525e-05
-0.015934989175438678,-3.305740786837707e-05,-1.578506670942449e-05
-0.016673737841390913,-4.120958962258447e-05,-1.5803633458797228e-05
-0.01739848876790549,-4.972764627490857e-05,-1.58263677677716e-05
-0.0181078200247738,-5.860422347307839e-05,-1.5853450735208596e-05
-0.018800425959264816,-6.783128496908805e-05,-1.5885059612319138e-05
-0.0194751263678273,-7.740017305086107e-05,-1.5921367476824126e-05
-0.020130880117607674,-8.730167467221982e-05,-1.5962542938754896e-05
-0.02076680389446751,-9.752609567523862e-05,-1.600874988134176e-05
-0.02138219478087044,-0.00010806334534407311,-1.606014724159659e-05
-0.021976553697979836,-0.00011890303246378568,-1.6116888836048555e-05
-0.022549606039652986,-0.0001300345723981939,-1.617912323726405e-05
-0.023101316308669035,-0.0001414473029852744,-1.6246993706109917e-05
-0.023631894714693954,-0.00015313060574111516,-1.6320638183291514e-05
-0.024141794791886582,-0.0001650740281177603,-1.6400189341756235e-05
-0.024631701914843852,-0.0001772674022944429,-1.6485774699359285e-05
-0.025102513240660953,-0.0001897009560833191,-1.6577516788953726e-05
-0.02555531009878877,-0.00020236541191818154,-1.66755333809541e-05
-0.02599132426127845,-0.00021525207050819835,-1.6779937751560695e-05
-0.026411900079415285,-0.00022835287659337178,-1.689083898833609e-05
-0.026818455144704465,-0.00024166046539940173,-1.700834232383428e-05
-0.027212442557384302,-0.0002551681898249239,-1.7132549487640364e-05
-0.027595317830717194,-0.0002688701299219493,-1.726355906757708e-05
-0.027968513003333802,-0.00028276108763046205,-1.7401466871965186e-05
-0.028333419735163838,-0.00029683657081508647,-1.754636628657657e-05
-0.02869138192199152,-0.0003110927712293753,-1.7698348622087686e-05
-0.02904369661949261,-0.0003255265408647463,-1.7857503450111216e-05
-0.029391620029796246,-0.00034013537002706854,-1.802391892783417e-05
-0.0297363736373642,-0.00035491736844385865,-1.8197682112451902e-05
-0.030079145232114798,-0.0003698712481612284,-1.8378879266603173e-05
-0.030421080937817854,-0.00038499630470371156,-1.856759615481941e-05
-0.030763266724425732,-0.00040029239161927245,-1.8763918328900153e-05
-0.031106699889891606,-0.0004157598832728518,-1.8967931397623185e-05
-0.03145225199652736,-0.00043139962124445655,-1.9179721273752513e-05
-0.031800625173681665,-0.0004472128405370088,-1.9399374389197878e-05
-0.032152304210769075,-0.0004632010728831215,-1.962697786755291e-05
-0.03250750756702345,-0.00047936602582756963,-1.9862619642230583e-05
-0.03286614104159534,-0.0004957094379797243,-2.0106388508182406e-05
-0.033227758056332865,-0.0005122329127542064,-2.0358374095865888e-05
-0.033591530011833404,-0.0005289377347712479,-2.061866675774725e-05
-0.03395622901798518,-0.0005458246745287025,-2.088735736007224e-05
-0.03432022397953563,-0.0005628937877780827,-2.1164536975648936e-05
-0.03468149008687154,-0.0005801442162946845,-2.1450296476667126e-05
-0.03503763141277428,-0.0005975739966695959,-2.1744726029908198e-05
-0.035385916363680235,-0.0006151798836137095,-2.2047914499979023e-05
-0.0357233258616731,-0.0006329571941700478,-2.2359948769424963e-05
-0.036046614185242326,-0.0006508996791817767,-2.268091298776292e-05
-0.03635238226148433,-0.0006689994282934584,-2.3010887764631727e-05
-0.03663716252945045,-0.0006872468144911921,-2.3349949325327888e-05
-0.03689751312434992,-0.0007056304834046422,-2.3698168649801846e-05
-0.03713011773331197,-0.0007241373911190577,-2.405561061843277e-05
-0.03733188706872452,-0.0007427528923195668,-2.4422333189292425e-05
-0.037500058638656214,-0.000761460878746412,-2.479838663205892e-05
-0.037632292378665375,-0.0007802439665007424,-2.518381284337071e-05
-0.03772675986028016,-0.0007990837295604788,-2.5578644767386015e-05
-0.03778222437457662,-0.000817960975619193,-2.5982905943680933e-05
-0.03779810880294805,-0.0008368560589135742,-2.6396610202314126e-05
-0.03777454799393396,-0.0008557492231127947,-2.681976152282072e-05
-0.03771242232358122,-0.0008746209656921735,-2.725235407002196e-05
-0.03761336949451048,-0.0008934524136466964,-2.769437241485668e-05
-0.03747977274977826,-0.0009122256992077686,-2.8145791943070298e-05
-0.037314725373788916,-0.0009309243237386604,-2.8606579448806906e-05
-0.03712197300513822,-0.0009495334983333921,-2.907669390432492e-05
-0.036905836363180726,-0.0009680404506754719,-2.9556087391577136e-05
-0.03667111738449565,-0.0009864346891123909,-3.0044706176524103e-05
-0.036422991727208184,-0.001004708216390317,-3.054249190289978e-05
-0.03616689052515184,-0.001022855686953407,-3.104938287873571e-05
-0.03590837449028009,-0.001040874503207265,-3.156531542627588e-05
-0.03565300403629525,-0.0010587648478389087,-3.2090225264037424e-05
-0.035406209748837465,-0.001076529651285192,-3.262404888881845e-05
-0.03517316785498108,-0.0010941744956861465,-3.3166724925561285e-05
-0.03495868522318199,-0.0011117074589556872,-3.371819541422174e-05
-0.03476709805907872,-0.0011291389047762524,-3.427840700515473e-05
-0.03460218798143446,-0.0011464812262863807,-3.484731203792039e-05
-0.03446711834438813,-0.0011637485528678364,-3.542486948270895e-05
-0.03436439215586201,-0.0011809564304928989,-3.601104572854913e-05
-0.034295830725317514,-0.0011981214862131937,-3.660581520772566e-05
-0.03426256990740309,-0.0012152610863713738,-3.72091608508718e-05
-0.03426506942515284,-0.0012323929962045129,-3.782107437151577e-05
-0.03430313081950366,-0.001249535046265677,-3.844155638213332e-05
-0.03437592103139086,-0.0012667048092284007,-3.9070616346006835e-05
-0.03448200080627035,-0.001283919289687816,-3.970827237073589e-05
-0.03461935882057361,-0.001301194629594527,-4.0354550850556474e-05
-0.03478545264352645,-0.001318545832460552,-4.100948596607024e-05
-0.034977256431792704,-0.001335986509729382,-4.1673119051617725e-05
-0.035191313728454486,-0.0013535286522694436,-4.2345497842117434e-05
-0.035423793042979726,-0.0013711824289623022,-4.302667561242537e-05
-0.035670544325916605,-0.0013889560133045263,-4.371671022299208e-05
-0.03592715560527913,-0.0014068554382873253,-4.441566308589004e-05
-0.03618901044075361,-0.0014248844797988334,-4.512359806541158e-05
-0.03645134820396994,-0.0014430445694600144,-4.584058032772629e-05
-0.036709330201183,-0.0014613347390613027,-4.6566675154856624e-05
-0.03695811484186248,-0.001479751600322064,-4.730194673970246e-05
-0.03719294411638466,-0.0014982893650616258,-4.804645698104839e-05
-0.03740924180549166,-0.0015169399115420948,-4.8800264300199314e-05
-0.037602721706181036,-0.001535692902420013,-4.9563422503689844e-05
-0.03776950228177416,-0.001554535958417002,-5.03359797188991e-05
-0.03790622280506199,-0.001573454889688711,-5.111797743092553e-05
-0.03801015520505581,-0.0015924339841912403,-5.190944964939552e-05
-0.038079305322673306,-0.0016114563493231726,-5.271042223277412e-05
-0.03811249740080419,-0.001630504300004042,-5.352091239510593e-05
-0.03810943690112936,-0.0016495597835795254,-5.434092841600182e-05
-0.038070749092297705,-0.001668604830077882,-5.517046956941617e-05
-0.037997993298794296,-0.001687622015675655,-5.6009526280854554e-05
-0.0378936540996398,-0.0017065949275252635,-5.685808051665478e-05
-0.03776111091343303,-0.0017255086187785316,-5.771610640323073e-05
-0.03760458700898984,-0.0017443500432591374,-5.8583571068740146e-05
-0.03742907861244204,-0.0017631084596644953,-5.946043569447105e-05
-0.0372402644226421,-0.0017817757954232663,-6.034665675824299e-05
-0.03704439555126801,-0.0018003469604167437,-6.124218744720299e-05
-0.036848166241220344,-0.0018188201008648658,-6.214697921252339e-05
-0.03665856721960028,-0.001837196784230071,-6.306098343379712e-05
-0.03648272593150292,-0.0018554821075178467,-6.39841531567341e-05
-0.0363277400564387,-0.001873684724014832,-6.491644486461727e-05
-0.036200511589775775,-0.0018918167869263858,-6.585782024235257e-05
-0.0361075883163952,-0.0019098938119029285,-6.68082478920599e-05
-0.03605501833298655,-0.001927934463565274,-6.776770496092694e-05
-0.03604822185275336,-0.0019459602736117089,-6.873617864522119e-05
-0.03609188308133135,-0.00196399529984523,-6.971366753858542e-05
-0.03618986370440149,-0.001982065736541663,-7.070018279768214e-05
-0.03634513857273531,-0.0020001994871109473,-7.169574910359529e-05
-0.03655975354619973,-0.002018425710140681,-7.270040540290819e-05
-0.036834805190437955,-0.0020367743498248404,-7.371420541789957e-05
-0.037170441748811345,-0.0020552756615596526,-7.47372179207457e-05
-0.03756588392122557,-0.002073959742977162,-7.57695267718799e-05
-0.038019462505839874,-0.002092856079583928,-7.681123072752017e-05
-0.038528668864072614,-0.0021119931124264062,-7.786244302552276e-05
-0.0390902143600093,-0.002131397833232427,-7.892329076193747e-05
-0.03970009625246998,-0.0021510954108855465,-7.999391407296695e-05
-0.04035366901542001,-0.002171108852202519,-8.107446513873897e-05
-0.04104572093718488,-0.0021914586996906703,-8.216510702671226e-05
-0.04177055594745335,-0.0022121627689118298,-8.326601239386289e-05
-0.042522080271758814,-0.002233235927966633,-8.43773620680825e-05
-0.043293893211427396,-0.0022546899213374294,-8.549934353040852e-05
-0.04407938129167468,-0.002276533239963205,-8.663214932073368e-05
-0.04487181495659711,-0.002298771039025273,-8.77759753904808e-05
-0.04566444675351914,-0.002321405104452802,-8.893101942635032e-05
-0.046450609821046145,-0.002344433868596443,-9.009747916961263e-05
-0.04722381571087253,-0.0023678524749794227,-9.12755507555066e-05
-0.047977850800499613,-0.0023916528916072656,-9.246542709715327e-05
-0.04870687018397962,-0.0024158240718533857,-9.366729633801844e-05
-0.049405486906439026,-0.0024403521611259904,-9.488134039626328e-05
-0.050068853502702265,-0.0024652207462282755,-9.610773362310184e-05
-0.050692732815022366,-0.0024904111428077067,-9.734664159536084e-05
-0.051273556060405776,-0.002515902715026564,-9.85982200598194e-05
-0.05180846753265733,-0.0025416732209248296,-9.986261404380724e-05
-0.052295356455259366,-0.002567699176921809,-0.00010113995714326891
-0.05273287684294676,-0.0025939562352463603,-0.00010243037099631095
-0.05312045576606929,-0.0026204195683986143,-0.00010373396494722219
-0.05345828966051998,-0.0026470642547552618,-0.00010505083590301066
-0.05374732793793939,-0.0026738656591548766,-0.0001063810683814882
-0.05398924342282314,-0.0027007998019950674,-0.00010772473474677568
