acceleration,velocity,displacement
-0.060354234888197654,0.0,0.0
-0.05846921994457606,-2.9705863708193427e-05,-7.426465927048357e-09
-0.05658414643540851,-5.846920530318957e-05,-2.9470233179894105e-08
-0.054698962091712454,-8.62899824349698e-05,-6.566003011443395e-08
-0.052813633233517183,-0.00011316813126627721,-1.1552455853974571e-07
-0.05092816759104504,-0.00013910358147241775,-1.7859248672441945e-07
-0.04904264976819986,-0.000164096285812229,-2.543924535455811e-07
-0.04715728869111051,-0.0001881462704270566,-3.424530926054025e-07
-0.04527247376649634,-0.0002112537110414583,-4.423030879725312e-07
-0.04338883440127352,-0.00023341903808340075,-5.534712752537459e-07
-0.04150729627312077,-0.00025464307075199935,-6.754868024625959e-07
-0.03962912751117205,-0.0002749271766980726,-8.078793643251139e-07
-0.03775596883474044,-0.0002942734507845507,-9.501795211957698e-07
-0.03588984343411568,-0.00031268490385176473,-1.1019191098548487e-06
-0.03403314447577565,-0.00033016565082923756,-1.2626317485250992e-06
-0.032188600221305035,-0.0003467210870035077,-1.4318534329832855e-06
-0.030359218715267967,-0.000362358041737651,-1.6091232151685752e-06
-0.02854821580134697,-0.00037708490036680474,-1.793983950694689e-06
-0.02675893180324045,-0.0003909116872679516,-1.985983097603378e-06
-0.024994743169676557,-0.0004038501060111809,-2.1846735459231614e-06
-0.02325897520945085,-0.00041591353560596275,-2.389614456327447e-06
-0.021554820756912275,-0.0004271169845975535,-2.6003720863783263e-06
-0.019885267891924633,-0.00043747700675976275,-2.8165205842176555e-06
-0.018253038307287372,-0.0004470115833095658,-3.0376427317349875e-06
-0.01666053673471314,-0.0004557399770700659,-3.2633306218298955e-06
-0.015109811115879567,-0.00046368256403271407,-3.4931862571055906e-06
-0.013602523218104956,-0.0004708606476162102,-3.7268220600178216e-06
-0.012139930175131949,-0.0004772962609645194,-3.963861287163004e-06
-0.010722878388841726,-0.0004830119631055128,-4.203938343180512e-06
-0.009351811513312536,-0.00048803063558105136,-4.446698992852153e-06
-0.008026793576462528,-0.0004923752868534951,-4.691800473460789e-06
-0.0067475471186880815,-0.0004960688720272827,-4.938911513180984e-06
-0.005513504977655851,-0.0004991341350513688,-5.187712264950647e-06
-0.00432387297767877,-0.0005015934795402024,-5.43789416859854e-06
-0.003177699170621588,-0.0005034688725772775,-5.6891597566279096e-06
-0.0020739437474366898,-0.0005047817833067921,-5.941222420598927e-06
-0.001011542955854276,-0.0005055531549826148,-6.193806155171279e-06
1.0539231800309414e-05,-0.0005058034059136283,-6.44664529539534e-06
0.0009932764290675239,-0.0005055524519984114,-6.69948425987335e-06
0.001937564603810317,-0.0005048197417401919,-6.952077308308001e-06
0.0028442263016972926,-0.0005036242940138151,-7.204188317246503e-06
0.0037140321543998054,-0.0005019847293997908,-7.455590573099905e-06
0.00454773603097093,-0.0004999192873534481,-7.706066577288215e-06
0.005346119286777179,-0.0004974458235240111,-7.95540785500758e-06
0.00611003891541421,-0.0004945817839734633,-8.203414756881948e-06
0.0068404741665795445,-0.0004913441557029648,-8.449896241801055e-06
0.007538566741622275,-0.0004877493954759144,-8.694669629595775e-06
0.00820565092172243,-0.0004838133410600782,-8.937560313729773e-06
0.008843271374966578,-0.00047955111048590595,-9.17840142661627e-06
0.009453187467544926,-0.0004749769957752781,-9.417033453181567e-06
0.010037363565442473,-0.0004701043580170313,-9.653303791629643e-06
0.010597945293292145,-0.00046494553080234763,-9.887066263834487e-06
0.011137222362091992,-0.0004595117388885016,-1.01181805812572e-05
0.011657579481475399,-0.00045381303842760974,-1.0346511775586228e-05
0.012161437758352716,-0.0004478582841176527,-1.0571929606222543e-05
0.012651189442376394,-0.0004416551273174704,-1.0794307959081324e-05
0.013129128761786889,-0.0004352100477664296,-1.1013524252852299e-05
0.013597381209856162,-0.00042852842027351885,-1.1229458869862286e-05
0.01405783349782048,-0.0004216146165965997,-1.1441994629079815e-05
0.014512066750454184,-0.00041447214153453104,-1.1651016318612598e-05
0.014961296200228989,-0.00040710380079686027,-1.1856410304195445e-05
0.015406321066454181,-0.00039951189648018947,-1.2058064228514707e-05
0.015847487880044468,-0.0003916984442435648,-1.2255866813695646e-05
0.016284669045672117,-0.00038366540501213564,-1.2449707776009571e-05
0.016717256351198764,-0.00037541492366291793,-1.2639477858178334e-05
0.01714416733031654,-0.0003669495677425391,-1.2825068981029698e-05
0.017563861737876434,-0.00035827256047549086,-1.3006374513084206e-05
0.017974366157964345,-0.00034938800350153067,-1.3183289654078462e-05
0.01837330638675764,-0.0003403010853653502,-1.3355711926295182e-05
0.01875794884459043,-0.00033101827155751316,-1.3523541765525898e-05
0.01912525315509862,-0.0003215474710575909,-1.3686683201179674e-05
0.019471937792256297,-0.0003118981733207522,-1.384504461227426e-05
0.019794559394871347,-0.00030208154902397027,-1.3998539542860441e-05
0.02008960447819651,-0.0002921105080557033,-1.414708755713036e-05
0.02035359040701252,-0.000281999709334401,-1.4290615111477885e-05
0.020583170929908818,-0.0002717655190001707,-1.4429056418561528e-05
0.020775240473584537,-0.00026142591614929735,-1.4562354277348894e-05
0.02092703110892555,-0.0002510003482536698,-1.4690460843449635e-05
0.0210361969544405,-0.0002405095412378283,-1.4813338315822509e-05
0.021100882548809482,-0.0002299752713620158,-1.493095951897247e-05
0.021119773628794507,-0.00021942010731761482,-1.5043308363642377e-05
0.021092130084768162,-0.00020886713138922416,-1.5150380173319086e-05
0.02101780142500795,-0.00019833964851178012,-1.5252181868294337e-05
0.02089722506561744,-0.0001878608918891238,-1.5348732003394564e-05
0.020731407575031092,-0.00017745373372896165,-1.5440060659799084e-05
0.020521889066510982,-0.00016714040956857613,-1.552620919562347e-05
0.020270691493294614,-0.00015694226442862472,-1.560722986412277e-05
0.019980252622826624,-0.0001468795283995944,-1.5683185312329825e-05
0.019653348657625545,-0.00013697112807948137,-1.5754147976449594e-05
0.01929300933886469,-0.00012723453858035883,-1.5820199393114556e-05
0.018902429505549444,-0.0001176856788692553,-1.5881429447476958e-05
0.01848488052064471,-0.00010833885136270675,-1.593793558003495e-05
0.018043624156001914,-9.920672519354509e-05,-1.5989821974174014e-05
0.01758183099029871,-9.030036140696994e-05,-1.6037198745824142e-05
0.017102505439998583,-8.162927729939562e-05,-1.6080181155500735e-05
0.016608420015552062,-7.320154593550796e-05,-1.611888886130946e-05
0.016102061659476325,-6.502392551675086e-05,-1.6153445229172526e-05
0.015585592645737945,-5.71020119404473e-05,-1.6183976713536825e-05
0.015060827578024887,-4.944040688450659e-05,-1.6210612318243065e-05
0.014529226807505817,-4.204289328812391e-05,-1.623348314328622e-05
0.013991905261335437,-3.49126102709136e-05,-1.625272201917598e-05
0.013449654320925243,-2.8052220375348427e-05,-1.6268463226837545e-05
0.012902973267079502,-2.1464063478347243e-05,-1.628084229780097e-05
0.012352106367076118,-1.5150293569808337e-05,-1.6289995887063007e-05
0.011797082202069771,-9.112996427521865e-06,-1.629606170956234e-05
0.011237753016729168,-3.3542876228221298e-06,-1.6299178530574927e-05
0.01067383301722937,2.1236088856675046e-06,-1.6299486200259216e-05
0.010104935244232048,7.318300951032859e-06,-1.629712572280004e-05
0.00953060694664964,1.2227186498753281e-05,-1.6292239350937595e-05
0.008950363307383904,1.684742906226167e-05,-1.628497069704734e-05
0.008363718871657147,2.1175949607021932e-05,-1.627546485238002e-05
0.0077702153356874306,2.5209433158858078e-05,-1.626386850668855e-05
0.007169443943017823,2.894434797853439e-05,-1.62503300614042e-05
0.006561060901458178,3.237697418965339e-05,-1.6234999730862155e-05
0.005944794919355876,3.5503438144856905e-05,-1.621802962777853e-05
0.005320446899454049,3.8319748599559386e-05,-1.6199573831092423e-05
0.004687882720767657,4.082183100461481e-05,-1.617978843619138e-05
0.004047020676832989,4.300555685401497e-05,-1.6158831589226723e-05
0.0033978154338730453,4.486676588169148e-05,-1.6136863508542796e-05
0.0027402403736981355,4.6401279833584275e-05,-1.6114046497113978e-05
0.0020742701798145903,4.760490747196246e-05,-1.6090544950287593e-05
0.0013998657968802548,4.847344146613617e-05,-1.6066525363053067e-05
0.0007169642082883977,4.9002648967428335e-05,-1.6042156340444676e-05
2.5475304850406487e-05,4.9188258845713036e-05,-1.601760861349139e-05
-0.0006747125932438531,4.9025949523614675e-05,-1.5993055061399058e-05
-0.0013837179390503757,4.8511341890541116e-05,-1.596867073854552e-05
-0.0021016423782346835,4.764000181121985e-05,-1.5944632902620078e-05
-0.0028285401837314663,4.640745617072831e-05,-1.592112103812459e-05
-0.0035643837497038736,4.4809225187369474e-05,-1.5898316867785065e-05
-0.004309029078806735,4.284087198024182e-05,-1.587640434349316e-05
-0.0050621854560171705,4.0498068346535846e-05,-1.5855569608411467e-05
-0.005823392773343069,3.777667378919579e-05,-1.5836000922877533e-05
-0.0065920082031374495,3.467282354507566e-05,-1.5817888548543965e-05
-0.00736720177093374,3.118302105155786e-05,-1.5801424587394808e-05
-0.008147958917156516,2.7304230879535296e-05,-1.5786802774412034e-05
-0.008933088035064348,2.303396914148008e-05,-1.577421822440678e-05
-0.00972123199233348,1.8370389134630625e-05,-1.5763867134837755e-05
-0.010510883960508274,1.3312360146420187e-05,-1.5755946447517493e-05
-0.011300408685622196,7.85953698488757e-06,-1.5750653473234664e-05
-0.01208807007509541,2.0124172947081685e-06,-1.5748185484664766e-05
-0.012872064604435985,-4.22761637517468e-06,-1.5748739284434884e-05
-0.013650558284931634,-1.0858272097516583e-05,-1.5752510756553057e-05
-0.014421723748256584,-1.787634260581364e-05,-1.575969441022889e-05
-0.015183773867188546,-2.5277717009674922e-05,-1.577048292513276e-05
-0.01593498917372639,-3.305740776990366e-05,-1.5785066706327655e-05
-0.016673737838882593,-4.1209589523055905e-05,-1.5803633455650894e-05
-0.01739848876458214,-4.972764617392209e-05,-1.5826367764575138e-05
-0.01810782002063291,-5.860422337022585e-05,-1.5853450731961177e-05
-0.018800425954316517,-6.783128486396321e-05,-1.5885059609019724e-05
-0.019475126362090613,-7.740017294306499e-05,-1.592136747347148e-05
-0.020130880111120616,-8.73016745613678e-05,-1.596254293534759e-05
-0.020766803887284562,-9.75260955609691e-05,-1.6008749877878176e-05
-0.02138219477305369,-0.00010806334522605368,-1.606014723807493e-05
-0.02197655368959897,-0.00011890303234171684,-1.6116888832466873e-05
-0.022549606030786554,-0.00013003457227181323,-1.6179123233620254e-05
-0.023101316299400657,-0.00014144730285436003,-1.6246993702401797e-05
-0.023631894705111053,-0.00015313060560548795,-1.632063817951676e-05
-0.02414179478207405,-0.00016507402797728423,-1.6400189337912453e-05
-0.02463170190489037,-0.00017726740214902534,-1.648577469544403e-05
-0.02510251323065014,-0.00018970095593291047,-1.6577516784964513e-05
-0.025555310088795375,-0.00020236541176277186,-1.6675533376888435e-05
-0.025991324251367097,-0.0002152520703478125,-1.6779937747416082e-05
-0.026411900069649316,-0.0002283528764280666,-1.6890838984110053e-05
-0.026818455135145962,-0.00024166046522926542,-1.7008342319524385e-05
-0.027212442548095347,-0.00025516818965007576,-1.713254948324422e-05
-0.027595317821759863,-0.00026887012974253957,-1.7263559063092374e-05
-0.027968512994763838,-0.0002827610874466705,-1.7401466867389676e-05
-0.028333419727019252,-0.0002968365706271163,-1.7546366281908122e-05
-0.028691381914296384,-0.00031109277103744516,-1.7698348617324264e-05
-0.02904369661225833,-0.00032552654066908386,-1.7857503445250896e-05
-0.029391620023022823,-0.0003401353698279041,-1.8023918922875144e-05
-0.02973637363103897,-0.00035491736824141957,-1.8197682107392476e-05
-0.03007914522621876,-0.000369871247955734,-1.8378879261441764e-05
-0.030421080932333273,-0.000384996304495372,-1.856759614955454e-05
-0.030763266719331075,-0.00040029239140828806,-1.8763918323530456e-05
-0.031106699885162806,-0.00041575988305941154,-1.896793139214738e-05
-0.03145225199215175,-0.00043139962102874016,-1.9179721268169418e-05
-0.03180062516965163,-0.000447212840319191,-1.93993743835064e-05
-0.032152304207079554,-0.0004632010726633738,-1.962697786175204e-05
-0.03250750756366937,-0.000479366025606061,-1.9862619636319397e-05
-0.0328661410385729,-0.0004957094377566215,-2.010638850216007e-05
-0.03322775805363827,-0.0005122329125296743,-2.0358374089731642e-05
-0.033591530009460316,-0.0005289377345454489,-2.061866675150042e-05
-0.03395622901592599,-0.0005458246743017955,-2.0887357353712233e-05
-0.03432022397777641,-0.0005628937875502211,-2.1164536969175236e-05
-0.034681490085383154,-0.000580144216066011,-2.1450296470079294e-05
-0.0350376314115238,-0.0005975739964402377,-2.1744726023205857e-05
-0.035385916362637264,-0.000615179883383778,-2.204791449316186e-05
-0.03572332586081231,-0.0006329571939396404,-2.2359948762492717e-05
-0.03604661418454345,-0.0006508996789509793,-2.268091298071537e-05
-0.036352382260930925,-0.0006689994280623479,-2.3010887757468705e-05
-0.03663716252902478,-0.0006872468142598368,-2.334994931804925e-05
-0.03689751312402922,-0.0007056304831731003,-2.3698168642407482e-05
-0.037130117733072183,-0.0007241373908873757,-2.4055610610922603e-05
-0.0373318870685416,-0.0007427528920877791,-2.442233318166639e-05
-0.037500058638517506,-0.0007614608785145439,-2.4798386624316972e-05
-0.03763229237857345,-0.0007802439662688167,-2.5183812835512812e-05
-0.03772675986024897,-0.0007990837293285223,-2.5578644759412146e-05
-0.03778222437462266,-0.0008179609753872402,-2.5982905935591087e-05
-0.037798108803081494,-0.0008368560586816663,-2.6396610194108315e-05
-0.03777454799415482,-0.0008557492228809753,-2.6819761514498976e-05
-0.037712422323876865,-0.0008746209654604833,-2.725235406158434e-05
-0.03761336949484926,-0.0008934524134151648,-2.7694372406303253e-05
-0.0374797727501108,-0.0009122256989764049,-2.8145791934401146e-05
-0.03731472537404937,-0.0009309243235074449,-2.8606579440022107e-05
-0.03712197300525566,-0.0009495334981022711,-2.9076693895424536e-05
-0.03690583636309183,-0.000968040450444358,-2.955608738256119e-05
-0.0366711173841485,-0.000986434688881168,-3.0044706167392572e-05
-0.03642299172657239,-0.0010047082161588482,-3.054249189365257e-05
-0.036166890524213464,-0.0010228556867215447,-3.1049382869372674e-05
-0.03590837448903787,-0.0010408745029748575,-3.1565315416796773e-05
-0.03565300403475678,-0.001058764847605806,-3.2090225254441936e-05
-0.03540620974701669,-0.0010765296510512495,-3.26240488791062e-05
-0.03517316785289698,-0.0010941744954512278,-3.316672491573182e-05
-0.03495868522085862,-0.0011117074587196668,-3.3718195404274546e-05
-0.03476709805653887,-0.0011291389045390162,-3.4278406995089214e-05
-0.034602187978704714,-0.0011464812260478271,-3.4847312027735925e-05
-0.03446711834149506,-0.001163748552627877,-3.542486947240485e-05
-0.034364392152843606,-0.0011809564302514618,-3.6011045718124685e-05
-0.03429583072221682,-0.0011981214859702269,-3.6605815197180104e-05
-0.034262569904269485,-0.0012152610861268485,-3.720916084020437e-05
-0.0342650694220433,-0.0012323929959584267,-3.782107436072569e-05
-0.03430313081648023,-0.0012495350460180576,-3.8441556371219813e-05
-0.034375921028510524,-0.0012667048089793052,-3.9070616334969156e-05
-0.034482000803585024,-0.001283919289437329,-3.970827235957332e-05
-0.034619358818131406,-0.0013011946293427581,-4.0354550839268337e-05
-0.03478545264137041,-0.0013185458322076335,-4.100948595465594e-05
-0.034977256429964625,-0.0013359865094754672,-4.167311904007671e-05
-0.03519131372699488,-0.001353528652014707,-4.234549783044926e-05
-0.03542379304192786,-0.0013711824287069379,-4.302667560062967e-05
-0.03567054432530793,-0.0013889560130487468,-4.371671021106859e-05
-0.03592715560514531,-0.0014068554380313601,-4.441566307383862e-05
-0.036189010441108574,-0.0014248844795429236,-4.512359805323219e-05
-0.036451348204811156,-0.0014430445692044035,-4.584058031541902e-05
-0.036709330202495276,-0.00146133473880623,-4.656667514242168e-05
-0.03695811484362301,-0.0014797516000677597,-4.730194672714018e-05
-0.03719294411856559,-0.0014982893648083067,-4.80464569683592e-05
-0.03740924180806514,-0.0015169399112899644,-4.880026428738377e-05
-0.03760272170912301,-0.0015356929021692613,-4.9563422490748576e-05
-0.03776950228506437,-0.0015545359581678082,-5.033597970583284e-05
-0.03790622280867133,-0.0015734548894412422,-5.1117977417735106e-05
-0.03801015520895136,-0.001592433983945648,-5.1909449636081827e-05
-0.038079305326819635,-0.0016114563490795906,-5.2710422219338134e-05
-0.03811249740515444,-0.0016305042997625842,-5.352091238154868e-05
-0.038109436905621484,-0.0016495597833402782,-5.43409284023244e-05
-0.038070749096865864,-0.0016686048298409,-5.517046955561969e-05
-0.03799799330337517,-0.0016876220154409603,-5.6009526266940154e-05
-0.03789365410417008,-0.0017065949272928465,-5.685808050262361e-05
-0.037761110917848124,-0.0017255086185483512,-5.7716106389083904e-05
-0.03760458701321883,-0.001744350043031118,-5.8583571054478774e-05
-0.037429078616414,-0.001763108459438526,-5.9460435680096184e-05
-0.037240264426282296,-0.0017817757951992,-6.034665674375562e-05
-0.03704439555450679,-0.0018003469601943973,-6.124218743260402e-05
-0.036848166243993084,-0.0018188201006440223,-6.214697919781362e-05
-0.03665856722184618,-0.0018371967840104821,-6.306098341897726e-05
-0.03648272593316624,-0.0018554821072992351,-6.398415314180469e-05
-0.03632774005747002,-0.0018736847237968942,-6.491644484957872e-05
-0.03620051159013834,-0.0018918167867087964,-6.585782022720514e-05
-0.036107588316073774,-0.0019098938116853493,-6.680824787680368e-05
-0.03605501833198239,-0.0019279344633473634,-6.776770494556186e-05
-0.036048221851086686,-0.0019459602733931307,-6.873617862974698e-05
-0.036091883079040134,-0.0019639952996256625,-6.971366752300168e-05
-0.0361898637015427,-0.001982065736320808,-7.07001827819883e-05
-0.036345138569382374,-0.0020001994868885393,-7.169574908779064e-05
-0.03655975354244129,-0.0020184257099164953,-7.27004053869919e-05
-0.0368348051863753,-0.0020367743495986993,-7.37142054018707e-05
-0.03717044174455338,-0.0020552756613314315,-7.473721790460323e-05
-0.03756588391688118,-0.00207395974274679,-7.576952675562279e-05
-0.038019462501509116,-0.0020928560793513876,-7.681123071114734e-05
-0.03852866885984791,-0.0021119931121917268,-7.786244300903311e-05
-0.03909021435597548,-0.0021313978329956826,-7.892329074532997e-05
-0.03970009624869796,-0.0021510954106468507,-7.99939140562406e-05
-0.04035366901196296,-0.002171108851962016,-8.107446512189281e-05
-0.04104572093408204,-0.002191458699448527,-8.216510700974545e-05
-0.04177055594472624,-0.002212162768668229,-8.326601237677464e-05
-0.04252208026941501,-0.0022332359277217645,-8.437736205087213e-05
-0.043293893209463086,-0.002254689921091484,-8.549934351307545e-05
-0.04407938129008098,-0.0022765332397163703,-8.663214930327742e-05
-0.04487181495535755,-0.00229877103877773,-8.777597537290094e-05
-0.04566444675260966,-0.0023214051042047216,-8.893101940864656e-05
-0.046450609820442676,-0.0023444338683479846,-9.009747915178474e-05
-0.04722381571055101,-0.002367852474730733,-9.127555073755442e-05
-0.047977850800435984,-0.00239165289135848,-9.246542707907672e-05
-0.04870687018415364,-0.002415824071604627,-9.36672963198175e-05
-0.04940548690683171,-0.0024403521608773737,-9.488134037793801e-05
-0.05006885350329591,-0.0024652207459799056,-9.610773360465233e-05
-0.05069273281579545,-0.0024904111425596786,-9.734664157678723e-05
-0.051273556061334276,-0.002515902714778961,-9.85982200411219e-05
-0.05180846753372227,-0.002541673220677725,-9.986261402498608e-05
-0.05229535645644557,-0.002567699176675267,-0.00010113995712432432
-0.052732876844241605,-0.002593956235000439,-0.00010243037097724325
-0.053120455767465206,-0.0026204195681533656,-0.0001037339649280317
-0.05345828966201447,-0.0026470642545107356,-0.00010505083588369773
-0.053747327939535024,-0.002673865658911123,-0.0001063810683620532
-0.05398924342452374,-0.0027007998017521376,-0.00010772473472721901
