frame_number,force
0,874.9965819983987
1,875.1657554917155
2,875.334934241085
3,875.5041229374655
4,875.6733246035164
5,875.8425385454775
6,876.0117571704444
7,876.1809617280284
8,876.3501172703393
9,876.5191673103095
10,876.6880287716074
11,876.8565878440818
12,877.0246972789172
13,877.1921755018666
14,877.3588077346151
15,877.5243491252348
16,877.6885297122549
17,877.8510608849607
18,878.0116428609921
19,878.1699726158938
20,878.3257517148406
21,878.4786936121252
22,878.6285301380385
23,878.7750170301782
24,878.9179384722901
25,879.0571106687767
26,879.1923844818376
27,879.3236470881197
28,879.4508225260167
29,879.573870979128
30,879.6927867011718
31,879.8075945931766
32,879.9183455559767
33,880.02511086406
34,880.1279759514399
35,880.2270341373388
36,880.3223808897997
37,880.41410918868
38,880.5023064123872
39,880.5870529709009
40,880.6684226848159
41,880.7464847156274
42,880.8213067204441
43,880.8929588231754
44,880.9615179359968
45,881.0270719431411
46,881.0897233083083
47,881.1495917785641
48,881.2068159824626
49,881.2615538169613
50,881.3139815770318
51,881.3642918249748
52,881.412690054338
53,881.4593902844641
54,881.5046098012241
55,881.5485633006509
56,881.591456681699
57,881.6334806999499
58,881.6748046811333
59,881.7155705256635
60,881.7558872964012
61,881.7958267204821
62,881.8354198978428
63,881.8746553772494
64,881.9134785737912
65,881.9517923399059
66,881.9894584439825
67,882.02629977885
68,882.0621032680255
69,882.0966235823018
70,882.1295878585423
71,882.160701591272
72,882.1896557508761
73,882.2161350143965
74,882.239826827512
75,882.2604308758711
76,882.2776684451399
77,882.2912911233686
78,882.3010883759046
79,882.3068936815886
80,882.3085890898952
81,882.306108178576
82,882.2994374415255
83,882.288616135308
84,882.2737345959173
85,882.2549310431281
86,882.2323869401662
87,882.2063210681272
88,882.1769825814699
89,882.1446433888601
90,882.109590215916
91,882.0721166560133
92,882.0325154417591
93,881.9910711214919
94,881.9480533310735
95,881.9037108936126
96,881.8582670034953
97,881.8119157172417
98,881.7648198891816
99,881.7171105807207
100,881.6688878526688
101,881.6202227287376
102,881.5711600176318
103,881.5217216414844
104,881.4719101653542
105,881.4217123287173
106,881.3711024825782
107,881.3200458986908
108,881.2685019442296
109,881.216427108557
110,881.163777823806
111,881.1105129588161
112,881.0565958291262
113,881.0019955805905
114,880.9466878657327
115,880.8906548162709
116,880.8338843953161
117,880.7763692699992
118,880.7181053717725
119,880.6590903117465
120,880.5993218178545
121,880.5387963850163
122,880.477508357712
123,880.4154496489574
124,880.3526102358803
125,880.2889794877336
126,880.2245482821746
127,880.1593117483974
128,880.0932723639291
129,880.0264430520276
130,879.9588499033486
131,879.8905342109738
132,879.8215536664346
133,879.7519827570344
134,879.6819125359439
135,879.6114499456972
136,879.5407167841704
137,879.4698482839431
138,879.3989912033351
139,879.3283013505788
140,879.2579405856849
141,879.1880735027208
142,879.1188641015979
143,879.0504727707289
144,878.9830538263486
145,878.916753719397
146,878.8517098605671
147,878.7880498631167
148,878.7258909048073
149,878.6653389047759
150,878.6064873010503
151,878.549415367981
152,878.4941861899562
153,878.4408445575536
154,878.3894151157128
155,878.3399010501846
156,878.2922834953869
157,878.2465217482165
158,878.2025542987021
159,878.160300630135
160,878.1196636969826
161,878.0805329520156
162,878.0427877444117
163,878.0063008502954
164,877.9709418590062
165,877.9365801433235
166,877.903087182793
167,877.8703380808088
168,877.8382122274293
169,877.8065932164486
170,877.7753683081237
171,877.7444278785006
172,877.7136653275921
173,877.6829777948016
174,877.652267818127
175,877.6214458935682
176,877.5904338014572
177,877.559168528142
178,877.5276065654693
179,877.4957283074876
180,877.4635422083933
181,877.4310883470123
182,877.398441087241
183,877.3657106279194
184,877.3330433541377
185,877.3006209854728
186,877.268658548007
187,877.2374011927012
188,877.2071198712307
189,877.17810587574
190,877.1506642611246
191,877.1251062288426
192,877.1017406742124
193,877.0808652247065
194,877.0627571330751
195,877.0476643232989
196,877.0357968079695
197,877.0273186821414
198,877.0223409361116
199,877.0209153642556
200,877.02302986439
201,877.028605425847
202,877.0374950705504
203,877.0494849107794
204,877.064297335087
205,877.0815961855201
206,877.1009936926392
207,877.122058899443
208,877.1443273087284
209,877.1673114952423
210,877.1905124045492
211,877.2134310089808
212,877.2355799324835
213,877.2564946267944
214,877.2757436922941
215,877.2929379697041
216,877.3077380719764
217,877.3198600991492
218,877.3290794150215
219,877.3352325634436
220,877.3382176054358
221,877.3379932824644
222,877.334577405535
223,877.3280447387834
224,877.3185244502678
225,877.3061970492387
226,877.2912907099596
227,877.2740769912792
228,877.2548660981078
229,877.2340018933097
230,877.2118568292979
231,877.1888268651156
232,877.1653263101244
233,877.141782414059
234,877.1186294327478
235,877.0963018819951
236,877.0752267765115
237,877.0558148159577
238,877.0384506720503
239,877.02348269912
240,877.0112125106714
241,877.0018849415274
242,876.9956789604859
243,876.9927000876332
244,876.992974756754
245,876.996446852176
246,877.0029764299841
247,877.0123405079078
248,877.0242357949564
249,877.0382832675366
250,877.0540345318406
251,877.0709799445231
252,877.0885584901905
253,877.1061693839731
254,877.1231852325819
255,877.1389663727665
256,877.1528758126333
257,877.164294122255
258,877.172633660855
259,877.1773516329233
260,877.1779615932949
261,877.1740431509078
262,877.165249732987
263,877.1513143570869
264,877.1320534144438
265,877.1073684921283
266,877.077246285817
267,877.0417567349655
268,877.0010496445974
269,876.9553501562455
270,876.9049534134729
271,876.8502186482915
272,876.7915627804044
273,876.7294535426938
274,876.6644021375345
275,876.5969554598568
276,876.5276879499642
277,876.4571931440707
278,876.3860749962649
279,876.3149390668078
280,876.2443836831744
281,876.1749911608895
282,876.1073191508235
283,876.0418922128268
284,875.979193807244
285,875.9196589771074
286,875.8636679924944
287,875.8115411391875
288,875.7635347068219
289,875.7198381302017
290,875.6805722067928
291,875.6457883550257
292,875.6154689454661
293,875.5895287717418
294,875.5678177037095
295,875.5501244958122
296,875.5361816431645
297,875.5256711265066
298,875.5182308977558
299,875.5134620276315
300,875.5109365219746
301,875.5102058682024
302,875.5108103754021
303,875.5122893167952
304,875.5141917912609
305,875.5160881298327
306,875.5175816018146
307,875.5183201037437
308,875.5180074193137
309,875.5164135287826
310,875.5133833693334
311,875.5088434575133
312,875.5028058960557
313,875.4953694635286
314,875.4867176686789
315,875.4771138007908
316,875.466893126824
317,875.4564525178477
318,875.4462379550296
319,875.4367305326944
320,875.4284316805844
321,875.421848344047
322,875.4174788040235
323,875.4157997020174
324,875.4172546645214
325,875.4222447215319
326,875.4311205311443
327,875.4441762964659
328,875.4616452097472
329,875.4836962831686
330,875.5104325045425
331,875.5418903456772
332,875.5780407220744
333,875.6187915455739
334,875.6639919941531
335,875.7134384996565
336,875.766882237477
337,875.8240376804235
338,875.8845916431585
339,875.9482122182321
340,876.0145570566183
341,876.0832805413679
342,876.1540395372041
343,876.226497575959
344,876.3003275526439
345,876.3752132286037
346,876.4508499946669
347,876.5269453667322
348,876.6032195680502
349,876.6794063689313
350,876.7552541898671
351,876.8305273718594
352,876.9050074762379
353,876.9784944883953
354,877.0508078718246
355,877.1217875256285
356,877.1912947679094
357,877.2592134433287
358,877.3254511470576
359,877.3899404364302
360,877.4526398537539
361,877.5135346580614
362,877.5726373118205
363,877.6299878795289
364,877.6856544992984
365,877.739734003021
366,877.7923526520669
367,877.8436668914802
368,877.893864032816
369,877.9431628136348
370,877.9918137810265
371,878.0400993830488
372,878.0883335649621
373,878.1368606192709
374,878.186053080825
375,878.2363086062653
376,878.2880459811274
377,878.3417005505252
378,878.3977193805299
379,878.4565563270023
380,878.5186669978058
381,878.5845034453528
382,878.65450839585
383,878.7291089234564
384,878.808709642955
385,878.8936856159104
386,878.984375190482
387,879.0810729712678
388,879.1840231224148
389,879.2934132595026
390,879.4093692331012
391,879.5319511131287
392,879.661150659006
393,879.7968905261174
394,879.9390254040626
395,880.0873451700428
396,880.2415799592156
397,880.4014068580215
398,880.5664578004264
399,880.736328225518
400,880.9105861064294
401,881.0887810316443
402,881.270453077516
403,881.4551412568048
404,881.6423913785986
405,881.8317632067481
406,882.0228368350104
407,882.215218208234
408,882.4085437403294
409,882.6024840212485
410,882.7967466398387
411,882.9910781589944
412,883.1852652684048
413,883.3791351021428
414,883.5725546405739
415,883.7654290632681
416,883.9576989396398
417,884.1493362385745
418,884.3403392642205
419,884.5307267486112
420,884.7205314320953
421,884.9097935082358
422,885.0985542698559
423,885.2868501773041
424,885.4747074402823
425,885.6621371266851
426,885.8491308076249
427,886.0356567933569
428,886.2216570639234
429,886.4070450122122
430,886.5917040992517
431,886.7754875142913
432,886.9582189625727
433,887.1396947402706
434,887.3196872282851
435,887.4979498058482
436,887.6742230001416
437,887.8482415523099
438,888.0197420517666
439,888.1884708317315
440,888.3541918472187
441,888.5166942360224
442,888.6757992239385
443,888.8313660190803
444,888.9832963640284
445,889.1315374800625
446,889.2760832346994
447,889.4169734767689
448,889.5542916055729
449,889.6881605651926
450,889.8187375521484
451,889.9462077571352
452,890.0707774371233
453,890.1926665965573
454,890.3121015944326
455,890.4293080593059
456,890.5445045149879
457,890.6578970624771
458,890.7696753661144
459,890.880010108248
460,890.9890520002599
461,891.0969323119479
462,891.2037646915797
463,891.3096478614979
464,891.4146686715736
465,891.5189050053461
466,891.6224281326728
467,891.7253042315913
468,891.8275949162223
469,891.9293567073479
470,892.0306394988419
471,892.1314842129307
472,892.2319199622335
473,892.3319611033121
474,892.4316045639782
475,892.5308277621206
476,892.6295873026608
477,892.7278184491188
478,892.8254351789178
479,892.9223305206045
480,893.0183768495423
481,893.11342586412
482,893.2073080778921
483,893.2998318369348
484,893.3907820439191
485,893.479918867096
486,893.5669767153522
487,893.6516637089708
488,893.733661820176
489,893.8126278230287
490,893.8881951755626
491,893.9599769385377
492,894.027569788011
493,894.090559090372
494,894.1485249030026
495,894.2010486889866
496,894.2477205237773
497,894.2881466228545
498,894.321957089588
499,894.3488138091673
500,894.3684183649347
501,894.3805197559494
502,894.3849216087812
503,894.3814885390142
504,894.3701513261068
505,894.3509106096874
506,894.323838907591
507,894.2890809097961
508,894.2468521891735
509,894.1974366038987
510,894.1411826676801
511,894.0784990507116
512,894.0098492547343
513,893.9357454645333
514,893.8567416048458
515,893.7734256654202
516,893.6864113677678
517,893.5963292587039
518,893.5038173673387
519,893.4095116542543
520,893.3140365617509
521,893.2179959873463
522,893.1219649497991
523,893.026482148469
524,892.9320435778791
525,892.8390973468561
526,892.7480398293908
527,892.6592132270958
528,892.5729045671748
529,892.4893460965266
530,892.4087169392652
531,892.331145763633
532,892.2567140975378
533,892.1854598821883
534,892.1173808763502
535,892.0524376205591
536,891.9905558295346
537,891.9316282593015
538,891.8755162328035
539,891.822051075708
540,891.7710357272096
541,891.7222467646685
542,891.6754370131948
543,891.6303388138095
544,891.5866679433735
545,891.5441281528457
546,891.5024162932767
547,891.461227976364
548,891.4202636552466
549,891.379234946503
550,891.337870978227
551,891.2959245499092
552,891.2531779259816
553,891.2094481390039
554,891.1645917052829
555,891.118508621567
556,891.0711454463889
557,891.0224972359779
558,890.9726081248543
559,890.9215704004665
560,890.8695220154851
561,890.816642612914
562,890.7631482853097
563,890.7092854128223
564,890.6553239992719
565,890.6015509362122
566,890.5482635719337
567,890.4957638701839
568,890.444353340188
569,890.3943288134733
570,890.3459790415172
571,890.2995820203289
572,890.2554029405077
573,890.2136927021951
574,890.1746869813459
575,890.1386058591282
576,890.1056540321537
577,890.076021609739
578,890.0498854640498
579,890.027411030389
580,890.0087543895168
581,889.9940644424589
582,889.9834850170985
583,889.9771567845802
584,889.9752188687062
585,889.977810006614
586,889.9850691130098
587,889.9971351535423
588,890.0141463313066
589,890.0362386840781
590,890.0635442488517
591,890.0961889783323
592,890.1342906004319
593,890.1779565996794
594,890.2272824702171
595,890.282350338715
596,890.3432279756734
597,890.40996811579
598,890.4826079213498
599,890.5611683798668
600,890.645653446513
601,890.7360488083084
602,890.8323202226428
603,890.934411442248
604,891.0422417837533
605,891.1557034405851
606,891.2746586890997
607,891.3989371769524
608,891.5283335008904
609,891.6626052896416
610,891.8014720227362
611,891.9446148219406
612,892.0916774208761
613,892.2422684456509
614,892.3959650382496
615,892.5523177423705
616,892.7108564613426
617,892.8710971947165
618,893.0325491804178
619,893.1947220469565
620,893.3571326237904
621,893.519311126188
622,893.6808064822237
623,893.8411906178108
624,894.0000616051392
625,894.1570457092332
626,894.311798473808
627,894.4640050156364
628,894.6133796513471
629,894.7596649094054
630,894.9026299341881
631,895.042068303684
632,895.1777953616113
633,895.3096452763374
634,895.4374681336996
635,895.5611274078253
636,895.6804981101202
637,895.7954657953744
638,895.9059264458932
639,896.0117871167638
640,896.1129671430383
641,896.2093996816876
642,896.3010333623381
643,896.3878338256953
644,896.469784941369
645,896.546889553524
646,896.6191697230946
647,896.6866665803826
648,896.7494400047539
649,896.8075683706713
650,896.8611485359215
651,896.9102961067382
652,896.9551458322683
653,896.9958518299251
654,897.0325872861092
655,897.0655433205533
656,897.09492680782
657,897.1209570680293
658,897.1438614418286
659,897.1638698535643
660,897.1812085630077
661,897.1960934233788
662,897.2087230879582
663,897.2192727023713
664,897.2278886455888
665,897.2346848169709
666,897.2397408066784
667,897.2431020494521
668,897.2447817905582
669,897.244764456804
670,897.2430098906797
671,897.2394578963954
672,897.2340326460135
673,897.2266466732046
674,897.2172044024328
675,897.2056053585286
676,897.1917473109039
677,897.1755296078269
678,897.1568568765077
679,897.1356431426411
680,897.1118162906444
681,897.0853226845065
682,897.0561317365
683,897.0242402370626
684,896.9896763015709
685,896.9525028272567
686,896.9128203738926
687,896.8707693576873
688,896.8265313846787
689,896.7803295089324
690,896.732427229841
691,896.6831261293752
692,896.6327621562637
693,896.5817006596059
694,896.5303303376359
695,896.47905629809
696,896.4282924564683
697,896.3784535528486
698,896.3299471198661
699,896.2831657342712
700,896.2384798347872
701,896.1962313435462
702,896.1567283113112
703,896.1202407832859
704,896.0869980177978
705,896.0571871009882
706,896.030952940642
707,896.0083996280937
708,895.9895932015779
709,895.9745658557193
710,895.96332158343
711,895.9558431405295
712,895.9521001346737
713,895.9520579637929
714,895.9556872462819
715,895.9629732938945
716,895.9739251109611
717,895.9885833988826
718,896.0070270994919
719,896.0293780811994
720,896.055803633359
721,896.0865165043284
722,896.1217723160454
723,896.1618643114954
724,896.2071155422551
725,896.2578687890567
726,896.3144747120241
727,896.3772788871802
728,896.4466084320605
729,896.5227588441313
730,896.6059815327326
731,896.696472396552
732,896.7943617201219
733,896.8997056218877
734,897.0124792556696
735,897.1325719375578
736,897.2597843490095
737,897.3938279531943
738,897.5343267413131
739,897.6808213885357
740,897.8327758390428
741,897.9895862407644
742,898.1505919958482
743,898.31508849462
744,898.4823409170584
745,898.65159839048
746,898.8221078175983
747,898.9931268052671
748,899.1639352727619
749,899.3338454623375
750,899.502210209116
751,899.6684294479114
752,899.831955023281
753,899.9922939187283
754,900.1490100461613
755,900.3017247565739
756,900.4501162614463
757,900.5939181900745
758,900.7329175148346
759,900.8669520051048
760,900.9959072220015
761,901.1197129096665
762,901.2383385576643
763,901.3517879461891
764,901.460092635113
765,901.5633045668432
766,901.6614881389536
767,901.7547122046204
768,901.843042478937
769,901.9265348115547
770,902.0052297598861
771,902.079148842371
772,902.1482927208995
773,902.212641337986
774,902.2721557692913
775,902.3267813485862
776,902.3764515618839
777,902.42109228397
778,902.4606260640176
779,902.4949762769828
780,902.5240710075408
781,902.5478465336494
782,902.5662502774524
783,902.5792431465069
784,902.5868012998003
785,902.5889174843651
786,902.585602137166
787,902.5768844053786
788,902.56281312925
789,902.5434577270249
790,902.5189088883865
791,902.4892790225822
792,902.4547024673078
793,902.4153354995153
794,902.3713561877914
795,902.3229641000728
796,902.2703798535991
797,902.2138444773536
798,902.1536185325247
799,902.0899808757525
800,902.0232268595906
801,901.9536657119695
802,901.8816169088493
803,901.8074055680833
804,901.7313571606711
805,901.6537920315045
806,901.5750202573136
807,901.495337245435
808,901.4150202911542
809,901.3343261754303
810,901.2534898152442
811,901.1727239174114
812,901.092219511242
813,901.0121471800355
814,900.9326587967311
815,900.8538895756773
816,900.7759602509915
817,900.6989791645323
818,900.6230440014591
819,900.5482428959959
820,900.4746547015475
821,900.4023483832627
822,900.3313816831172
823,900.2617993442287
824,900.1936312256435
825,900.1268906161048
826,900.061573005741
827,899.997655511881
828,899.9350970777274
829,899.8738394747113
830,899.8138090443919
831,899.7549190184528
832,899.6970721854324
833,899.6401636801234
834,899.5840837748653
835,899.5287206976758
836,899.4739635966775
837,899.4197057674432
838,899.3658482018885
839,899.3123034766382
840,899.2589999999606
841,899.2058866371534
842,899.1529376620854
843,899.1001578085411
844,899.0475869916365
845,898.9953041594572
846,898.9434297670971
847,898.8921264852478
848,898.8415979018649
849,898.7920851387104
850,898.7438614772186
851,898.6972252257175
852,898.6524911326715
853,898.6099806929857
854,898.5700117592241
855,898.532887948192
856,898.4988883661546
857,898.468258130994
858,898.4412000676733
859,898.4178678284026
860,898.3983605596798
861,898.382719113583
862,898.3709236962095
863,898.3628927947336
864,898.3584832533159
865,898.3574914574064
866,898.3596556647686
867,898.3646595177257
868,898.3721366689205
869,898.3816763044534
870,898.3928292350313
871,898.4051142033097
872,898.4180241241735
873,898.4310320882337
874,898.4435970608889
875,898.4551692794488
876,898.4651954167961
877,898.4731236637685
878,898.4784089529934
879,898.4805185557586
880,898.478938224417
881,898.4731789624171
882,898.4627844191275
883,898.447338843166
884,898.4264754897163
885,898.3998853528626
886,898.3673260519643
887,898.3286306219418
888,898.283715866421
889,898.2325898756858
890,898.1753583005639
891,898.1122289856128
892,898.0435145971197
893,897.9696329701864
894,897.8911050601395
895,897.808550551065
896,897.7226812420887
897,897.6342922721396
898,897.5442511619125
899,897.4534846842092
900,897.3629637393108
901,897.2736866046962
902,897.1866610508205
903,897.1028858627882
904,897.0233323194652
905,896.9489261635349
906,896.8805305361885
907,896.8189302645444
908,896.7648178235656
909,896.7187812757461
910,896.6812944925681
911,896.65270991948
912,896.6332540360636
913,896.6230255208941
914,896.6219960048896
915,896.6300132068887
916,896.6468061837687
917,896.6719923884655
918,896.7050862248723
