frame_number,force
0,519.3015400000453
1,519.8493154568129
2,520.3674186075137
3,520.8286395867759
4,521.2103863560518
5,521.4963028387691
6,521.6772228488895
7,521.7514201299906
8,521.7241838224406
9,521.6068128339429
10,521.4151810215783
11,521.1680622490823
12,520.8854080844865
13,520.5867446134044
14,520.2898128710488
15,520.0095347470253
16,519.7573527807353
17,519.5409639745003
18,519.3644277198249
19,519.2285727835825
20,519.1315841245472
21,519.0696464645357
22,519.0375557119544
23,519.0292517073912
24,519.0382565935064
25,519.0580282867567
26,519.0822603654075
27,519.1051610729426
28,519.1217201814185
29,519.127948440604
30,519.1210723109114
31,519.0996776832442
32,519.0637984643156
33,519.0149317464371
34,518.9559413929621
35,518.8908072450741
36,518.824207378576
37,518.7609833658609
38,518.7055987375825
39,518.6617159923893
40,518.6319737879963
41,518.6179688485315
42,518.6203795682666
43,518.6391421232036
44,518.6736087167823
45,518.7226585254142
46,518.7847658955134
47,518.858043316735
48,518.9402740959569
49,519.0289448958465
50,519.1212887931565
51,519.2143527386336
52,519.305101680124
53,519.3905587432943
54,519.467959558109
55,519.534884691617
56,519.589342709331
57,519.6298055392193
58,519.6552280099908
59,519.6650928947558
60,519.659503974419
61,519.6393159939023
62,519.606263423989
63,519.5630409424826
64,519.5132971784368
65,519.4615227132227
66,519.4128324323447
67,519.3726552550008
68,519.3463549874218
69,519.3388149421102
70,519.3540209177087
71,519.394676681378
72,519.4618908789062
73,519.5549758300444
74,519.6713863607429
75,519.8068128599334
76,519.9554434719786
77,520.1104105444136
78,520.2644051079716
79,520.410383252798
80,520.5422401368273
81,520.6553250142313
82,520.7467184692465
83,520.8152709253569
84,520.8614706975738
85,520.8872315276474
86,520.8956580925835
87,520.8907981318441
88,520.8773625467186
89,520.8604013445643
90,520.844945551536
91,520.8356423073361
92,520.8364150275895
93,520.850175865092
94,520.8786115468843
95,520.9220634187465
96,520.9795260832187
97,521.0487853707535
98,521.1266980024865
99,521.209584752763
100,521.2936767009757
101,521.3755339461375
102,521.4523597403148
103,521.5221662366932
104,521.5838026911581
105,521.6369043019943
106,521.6818269538711
107,521.7195954309444
108,521.7518449313824
109,521.7807187125164
110,521.8087025282246
111,521.8384013344726
112,521.8722768259748
113,521.9123707456472
114,521.9600475391106
115,522.0158006008348
116,522.0791717583437
117,522.1488218807307
118,522.2227533576381
119,522.2986330284772
120,522.3741257280795
121,522.447150000246
122,522.5160102670593
123,522.5794170181525
124,522.6364433519508
125,522.6864680963539
126,522.7291369218382
127,522.76435479212
128,522.7923101396343
129,522.813515281783
130,522.8288336327867
131,522.8394682639305
132,522.8469068208318
133,522.8528348764719
134,522.8590338110074
135,522.8672774505235
136,522.8792412313741
137,522.8964360291043
138,522.9201653743254
139,522.951477093593
140,522.9910620372473
141,523.0390734444303
142,523.0948956543931
143,523.1569415710703
144,523.2225736885385
145,523.2882210184656
146,523.349714762847
147,523.4028031934366
148,523.4437519551321
149,523.4699081833929
150,523.4801082279498
151,523.4748363284576
152,523.4560939968859
153,523.427006444091
154,523.3912536422279
155,523.3524540401339
156,523.3136372627639
157,523.276913214639
158,523.243390278143
159,523.2133363405428
160,523.1865265347574
161,523.16268240475
162,523.1418820288965
163,523.1248236826901
164,523.1128679933726
165,523.1078506770707
166,523.1117156402102
167,523.12604631286
168,523.1515815507743
169,523.1878087391033
170,523.232728794389
171,523.2828677032021
172,523.3335583065377
173,523.3794503128074
174,523.4151556451583
175,523.4359180707364
176,523.4382069007091
177,523.4201594699599
178,523.3818219608565
179,523.3251574102937
180,523.2538108423018
181,523.1726540992075
182,523.0871699654135
183,523.0027568223278
184,522.9240342754426
185,522.8542198725485
186,522.794641916273
187,522.7444536869083
188,522.7006080744542
189,522.6581281004555
190,522.6106669687623
191,522.5512993038544
192,522.4734393602997
193,522.3717567646585
194,522.2429553819519
195,522.0862896322457
196,521.9037219350432
197,521.6996859079495
198,521.4804995533573
199,521.2535372528132
200,521.0262992848131
201,520.8055198614683
202,520.5964397641355
203,520.4023385244124
204,520.2243768529631
205,520.0617512665899
206,519.912117010066
207,519.7721981822971
208,519.6384793506747
209,519.5078624533028
210,519.3781814050517
211,519.2485004287913
212,519.1191707281562
213,518.9916585842785
214,518.8681771578991
215,518.7511720015772
216,518.6427395700944
217,518.5440883590735
218,518.4551643722416
219,518.374538426037
220,518.2995854617993
221,518.2269011704757
222,518.1528470486446
223,518.0741139145229
224,517.9882224461506
225,517.8939050353745
226,517.7913307247205
227,517.682153019091
228,517.5693762405239
229,517.4570434002853
230,517.3497564495615
231,517.2520645683308
232,517.1677982204475
233,517.0994654523852
234,517.0478371207133
235,517.0118194002154
236,516.9886548034958
237,516.9744230745878
238,516.9647446487944
239,516.9555386826852
240,516.9436731502308
241,516.927375719047
242,516.9063443378676
243,516.8815811913074
244,516.8550407195505
245,516.829208378733
246,516.8067085292167
247,516.7899968508292
248,516.7811527250677
249,516.781763170085
250,516.7928792888412
251,516.8150231832341
252,516.8482235625489
253,516.8920617462813
254,516.94572153125
255,517.0080536581711
256,517.0776718164113
257,517.1530805621334
258,517.2328076867841
259,517.3154995550403
260,517.3999490178157
261,517.4850494690623
262,517.5696893313932
263,517.6526165178916
264,517.7323159410292
265,517.8069520417494
266,517.8744275005093
267,517.9325962271844
268,517.9796380550079
269,518.0145502757916
270,518.0376509233589
271,518.050952481126
272,518.058278435885
273,518.0650563562667
274,518.0778010492259
275,518.1033667971989
276,518.1480839768179
277,518.2169099344594
278,518.3127288525443
279,518.4359268290839
280,518.584331072502
281,518.7535345716702
282,518.9375509310909
283,519.1296797574063
284,519.3234184688785
285,519.5132390598234
286,519.695075908183
287,519.8664500509982
288,520.0262599165463
289,520.1743548753501
290,520.3110468384366
291,520.4366984278246
292,520.5514680180816
293,520.6552271278839
294,520.7476228670454
295,520.8282382970225
296,520.8967968462281
297,520.9533593180636
298,520.9984686832285
299,521.0332036143361
300,521.0591111708021
301,521.0780107425962
302,521.0916928427408
303,521.1015648098839
304,521.108312126521
305,521.1116486872468
306,521.1102208081393
307,521.1017023996503
308,521.0830742514994
309,521.0510350310677
310,521.0024650721787
311,520.934866106974
312,520.8467258775851
313,520.737787538406
314,520.6092203974644
315,520.4636884943662
316,520.3053093837847
317,520.1394948387482
318,519.9726662458636
319,519.8118426278068
320,519.6641143807163
321,519.5360365687314
322,519.4329926327815
323,519.3585941546208
324,519.3141977941044
325,519.2986239531374
326,519.3081390390302
327,519.3367212800563
328,519.3765871790536
329,519.4189201972741
330,519.4547138741896
331,519.4756195158134
332,519.4746825409586
333,519.4468745201201
334,519.3893825474962
335,519.3016806281713
336,519.1854401701735
337,519.0443184058831
338,518.8836185882312
339,518.7097938771108
340,518.5297924185195
341,518.3502928919181
342,518.176926668005
343,518.0136124096516
344,517.8621321209498
345,517.7220399288333
346,517.5909223793428
347,517.4649540712813
348,517.3396407984244
349,517.2106177098258
350,517.074372293658
351,516.928793811924
352,516.773501984666
353,516.6099528366336
354,516.4413389149388
355,516.272299176251
356,516.1084540626426
357,515.95580344626
358,515.8200660300178
359,515.7060688762672
360,515.6172824848858
361,515.5555406707068
362,515.5209244458637
363,515.5117664306803
364,515.5247536465678
365,515.5551433362522
366,515.5971210636585
367,515.6443033334155
368,515.6903311138551
369,515.7294526992189
370,515.7569887295955
371,515.7696171055284
372,515.7654849497217
373,515.7442013049622
374,515.706756397475
375,515.6553689668515
376,515.5932338389588
377,515.5241600961168
378,515.452141584912
379,515.3809428732698
380,515.3137821249164
381,515.2531528943327
382,515.2007810332198
383,515.1576822129716
384,515.1242706934883
385,515.1004684605127
386,515.0857796496805
387,515.0793272684895
388,515.0798780427627
389,515.0858830428052
390,515.0955408090562
391,515.1068727601931
392,515.1178005588797
393,515.1262239363467
394,515.1301065808447
395,515.1275843409269
396,515.117112362861
397,515.0976636791273
398,515.0689794349004
399,515.0318479337315
400,514.9883547859633
401,514.9420104109072
402,514.8976509553039
403,514.861047322836
404,514.8382387836155
405,514.8346986357726
406,514.8545000868261
407,514.8996611899166
408,514.9698154922188
409,515.0622942020643
410,515.172620065362
411,515.295311937889
412,515.4248160673297
413,515.5563543386876
414,515.6865204677234
415,515.8135383843186
416,515.9371856441603
417,516.0584466495304
418,516.1789864903438
419,516.3005461617513
420,516.424377810762
421,516.5508574836286
422,516.6793955897966
423,516.8086870136764
424,516.9372249901693
425,517.0639028878392
426,517.1884979575129
427,517.3118834630707
428,517.435920496141
429,517.5630905375069
430,517.6960038927608
431,517.8369324470493
432,517.9874672150682
433,518.1483269947076
434,518.3192943768503
435,518.4992480735355
436,518.6862700773017
437,518.8778026223479
438,519.0708157329069
439,519.2619452702977
440,519.4475875447857
441,519.6239761882501
442,519.7872870781637
443,519.9337979493903
444,520.0600903077569
445,520.1632609240935
446,520.241124180924
447,520.292412227056
448,520.3169785938632
449,520.3159697885266
450,520.2918824097698
451,520.2484212076303
452,520.1901336066834
453,520.1218853876106
454,520.0483042071908
455,519.9733184636101
456,519.8998686073902
457,519.8298014141988
458,519.7639058207686
459,519.7020275433132
460,519.6432111174728
461,519.5858513670522
462,519.5278704823705
463,519.4669509988589
464,519.4008423403374
465,519.327730654015
466,519.2466340483911
467,519.1577638612787
468,519.0627789377711
469,518.9648629514045
470,518.8685836535382
471,518.7795406447432
472,518.7038533906916
473,518.6475671008728
474,518.6160593483471
475,518.6135217439138
476,518.6425731150182
477,518.704033460902
478,518.7968557124441
479,518.9181898952683
480,519.0635550892699
481,519.2271135483142
482,519.402057488086
483,519.5811138708427
484,519.7571435516277
485,519.9237727206026
486,520.0759680816241
487,520.2104654692973
488,520.325982860114
489,520.4231861718231
490,520.5044226641929
491,520.5732795933475
492,520.6340520392957
493,520.6912101437417
494,520.748945437162
495,520.8108509387228
496,520.8797546155535
497,520.9576894529683
498,521.045954636175
499,521.1452087852252
500,521.2555455598163
501,521.3765320311262
502,521.507222887884
503,521.6461821384061
504,521.791546859767
505,521.941159331768
506,522.0927764676715
507,522.2443393231421
508,522.3942547761045
509,522.541618007497
510,522.6863034533876
511,522.8288818549454
512,522.9703746821422
513,523.1119102472695
514,523.2543710482421
515,523.3981106707377
516,523.5427869638845
517,523.6873319765665
518,523.830069632078
519,523.9689835961451
520,524.102105775916
521,524.2279411787682
522,524.3458014281484
523,524.4559235053952
524,524.559308937427
525,524.6573103279534
526,524.7510861243348
527,524.8411041503439
528,524.9268618341767
529,525.0069003289522
530,525.0790717333593
531,525.1409445630646
532,525.1902277601791
533,525.2251244562028
534,525.2445536070571
535,525.2481970452044
536,525.2363604905717
537,525.2096856185985
538,525.1687999212608
539,525.1140186971901
540,525.0452047035202
541,524.9618465726617
542,524.863354170905
543,524.7495122562773
544,524.6209968655371
545,524.4798394219686
546,524.3297189984135
547,524.1759818284518
548,524.025338528645
549,523.8852672975808
550,523.7632277651782
551,523.6658310388706
552,523.5981005989615
553,523.5629079545479
554,523.5606116831887
555,523.5889064491987
556,523.6429019058021
557,523.7154576140472
558,523.7977646940099
559,523.8801080469467
560,523.9527119537009
561,524.0065801514639
562,524.0342601529253
563,524.0304669939632
564,523.992505993489
565,523.920459432917
566,523.8171402645473
567,523.6878348761385
568,523.5398486152803
569,523.3818673153529
570,523.2231846917089
571,523.0728968256963
572,522.9391839110631
573,522.8287693259687
574,522.7465923660427
575,522.6956898888577
576,522.6772670753562
577,522.6909327822713
578,522.7350595152162
579,522.807200506019
580,522.9044740973529
581,523.0238277661543
582,523.1621283528101
583,523.3160826911864
584,523.4820529967749
585,523.6558703172421
586,523.8327486302824
587,524.0073603069861
588,524.1740741411032
589,524.3273110356441
590,524.4619486943384
591,524.5736957665408
592,524.6593612207415
593,524.7169825478486
594,524.7458402802994
595,524.7464352445884
596,524.720497048296
597,524.6710269903772
598,524.6023044765028
599,524.5197624426955
600,524.4296816022404
601,524.3387256983171
602,524.253384341099
603,524.1793892299389
604,524.12115370465
605,524.0812890499735
606,524.0602719625523
607,524.0563435621058
608,524.0656870714884
609,524.0828697192752
610,524.1014791195802
611,524.1148592635584
612,524.1168520109824
613,524.1024608663037
614,524.0683677495343
615,524.0132493997943
616,523.9378574418602
617,523.8448495387593
618,523.7383955762157
619,523.6236280016492
620,523.506037409608
621,523.3909097418019
622,523.2828580035872
623,523.1854469261871
624,523.1008851774385
625,523.0297850142114
626,522.9710342708293
627,522.9218414008405
628,522.877984736515
629,522.8342468937276
630,522.7849756648036
631,522.7246966188025
632,522.648703791937
633,522.5535611702724
634,522.4374583487296
635,522.3003874779629
636,522.1441394587689
637,521.972134939801
638,521.7891085779236
639,521.6006748610986
640,521.4128261531662
641,521.2314245581905
642,521.0617324107801
643,520.9080001454854
644,520.7731254010346
645,520.658417888927
646,520.56352382281
647,520.4865526129008
648,520.4244051782769
649,520.3732522545716
650,520.3290798965635
651,520.2882178059097
652,520.2477847553112
653,520.2060086892128
654,520.1623978652117
655,520.1177536675858
656,520.074031549524
657,520.0340769312206
658,520.0012780532753
659,519.9791761988727
660,519.9710628639564
661,519.979590807553
662,520.0064315187252
663,520.0520119966884
664,520.1153566164838
665,520.1940527572154
666,520.2843518017511
667,520.3814075002762
668,520.4796467500556
669,520.5732639868846
670,520.6568152879732
671,520.7258532117862
672,520.7775058429008
673,520.8108915730525
674,520.8272844630337
675,520.8299926569194
676,520.8239677918478
677,520.815211173005
678,520.8100708533489
679,520.8145291697574
680,520.833568706598
681,520.8706874059174
682,520.9276143059506
683,521.0042450328897
684,521.0987688176394
685,521.2079248530135
686,521.3273309694779
687,521.4518568456608
688,521.5760348324214
689,521.6945024506922
690,521.8024572669223
691,521.8960852888657
692,521.9729096556435
693,522.0320060771576
694,522.0740431938588
695,522.1011264823269
696,522.1164573474383
697,522.1238620084641
698,522.1272784095952
699,522.1302930807188
700,522.135793651548
701,522.145768817918
702,522.1612655622222
703,522.1824964541971
704,522.2090609492857
705,522.2402124086261
706,522.2750951458813
707,522.3129017248508
708,522.3529420291893
709,522.3946542671389
710,522.4376138042331
711,522.4815954442189
712,522.5267109859569
713,522.573590567884
714,522.6235314579889
715,522.678524699882
716,522.7410969093274
717,522.8139621702497
718,522.8995430470475
719,522.9994637912681
720,523.1141279926952
721,523.2424652652804
722,523.3818766302148
723,523.5283546139725
724,523.67673722128
725,523.8210753939356
726,523.9551099469982
727,524.0728364894603
728,524.1691007795781
729,524.2401422812262
730,524.2840011379369
731,524.3007217466051
732,524.2923241588848
733,524.2625645032961
734,524.2165462804656
735,524.1602578602858
736,524.1000953505917
737,524.0423961351186
738,523.9929824854688
739,523.9567188821695
740,523.9371103763293
741,523.9359807489905
742,523.9532587404633
743,523.9868874468623
744,524.0328728294668
745,524.0854969686965
746,524.1377205057664
747,524.1817710265699
748,524.209864114918
749,524.2149548881965
750,524.1913956349435
751,524.1353933249992
752,524.0452160751166
753,523.9211660945092
754,523.7653826393289
755,523.5815446430897
756,523.3745260216582
757,523.150046593846
758,522.9143660365784
759,522.674068047512
760,522.4359557203638
761,522.2070309189627
762,521.9944888202102
763,521.8056473383297
764,521.6477464977504
765,521.5275812169
766,521.4509702394427
767,521.4221137533368
768,521.4429370412257
769,521.5125371789223
770,521.6268429987305
771,521.7785805705133
772,521.9576119489104
773,522.1516692469668
774,522.3474317037682
775,522.5318124423462
776,522.6932701662432
777,522.82295444608
778,522.9155218910141
779,522.9695150805131
780,522.9872701100376
781,522.9743948127677
782,522.9389232563253
783,522.8903009373782
784,522.8383809130265
785,522.7925914603137
786,522.7613602194441
787,522.7517777171884
788,522.7694128592026
789,522.8181907722995
790,522.9002945640569
791,523.016113852366
792,523.1642936866012
793,523.341917259548
794,523.5447992816353
795,523.7678181803592
796,524.0052106593334
797,524.2507904292436
798,524.4981057216003
799,524.7405896578897
800,524.9717665404764
801,525.1855485428198
802,525.3766020300034
803,525.5407104624832
804,525.6750400053583
805,525.7782354297815
806,525.8503298971607
807,525.8925186931682
808,525.9068915688642
809,525.896218794955
810,525.8638432745468
811,525.8136660682067
812,525.750155570305
813,525.678289287011
814,525.6033622045857
815,525.5306489716413
816,525.4649558798086
817,525.410124993599
818,525.3685612454848
819,525.3408533769181
820,525.3255530230895
821,525.3191612257991
822,525.3163493659857
823,525.3104134967724
824,525.2939269034027
825,525.2595187221362
826,525.2006770497354
827,525.1124657357776
828,524.9920622900605
829,524.8390625298127
830,524.6555324180056
831,524.4458050878067
832,524.2160372543336
833,523.9735735603967
834,523.7262092471345
835,523.4814658517088
836,523.2459921377127
837,523.0251737412593
838,522.8229798595879
839,522.6420090010862
840,522.4836511985275
841,522.3482786350731
842,522.2353983656576
843,522.143734237461
844,522.0712452453214
845,522.0151248024914
846,521.9718422911982
847,521.9372774658773
848,521.9069688677148
849,521.8764607623405
850,521.8416956468349
851,521.799371619112
852,521.7471818695442
853,521.6838825789813
854,521.609182110494
855,521.5234892835135
856,521.4275892834651
857,521.3223275475034
858,521.2083775743977
859,521.0861546405755
860,520.9559118058588
861,520.8180075741878
862,520.6732702312685
863,520.5233291277542
864,520.3707685920862
865,520.2190000663338
866,520.0718345650876
867,519.9328415990288
868,519.8046629982371
869,519.6884774803871
870,519.5837694389343
871,519.488458716689
872,519.3993426886016
873,519.3127331762929
874,519.2251496697223
875,519.133936836983
876,519.037689784465
877,518.9363981063067
878,518.8312716080478
879,518.7242849288335
880,518.6175525666503
881,518.512690718429
882,518.4103231439525
883,518.3098509980263
884,518.2095457968213
885,518.1069538942342
886,517.9995318881453
887,517.8853744694172
888,517.763859707201
889,517.6360398663958
890,517.5046636692235
891,517.3738170805041
892,517.248275528215
893,517.1327313468366
894,517.0310765877151
895,516.9458838101692
896,516.8781529727265
897,516.8273143510087
898,516.7914318969513
899,516.7675478243351
900,516.752119653055
901,516.7414968435927
902,516.7323723053222
903,516.7221507954331
904,516.7092067424688
905,516.6930340138327
906,516.6742956642014
907,516.6547685654741
908,516.637174644472
909,516.6249117432042
910,516.621722968102
911,516.6313460345883
912,516.6571648789572
913,516.7018681241591
914,516.7671167091602
915,516.8532358357479
916,516.9589690930546
917,517.0813519595342
