frame_number,force
0,730.6262200079655
1,730.6008468765041
2,730.575454138864
3,730.5500221092099
4,730.5245309398405
5,730.498960534572
6,730.4732904572278
7,730.447499836352
8,730.42156726845
9,730.3954707225789
10,730.3691874494598
11,730.3426938989334
12,730.3159656502664
13,730.2889773599261
14,730.2617027309343
15,730.2341145073675
16,730.206184497383
17,730.1778836280561
18,730.149182034831
19,730.1200491874635
20,730.0904540533079
21,730.0603652979981
22,730.029751523112
23,729.9985815402591
24,729.9668246808191
25,729.9344511397643
26,729.9014323502519
27,729.8677413831697
28,729.8333533633968
29,729.7982458931431
30,729.7623994727477
31,729.7257979103028
32,729.6884287126213
33,729.6502834506455
34,729.6113580922523
35,729.5716532952082
36,729.53117465372
37,729.4899328938947
38,729.4479440159187
39,729.4052293831118
40,729.3618157598249
41,729.3177353014279
42,729.2730255003935
43,729.2277290928939
44,729.1818939307872
45,729.1355728243504
46,729.0888233607155
47,729.0417077011203
48,728.9942923575684
49,728.9466479476994
50,728.8988489264372
51,728.8509732940083
52,728.803102281403
53,728.7553200155456
54,728.707713167089
55,728.6603705840047
56,728.6133829144379
57,728.5668422227614
58,728.5208416031477
59,728.4754747948413
60,728.430835802407
61,728.3870185225773
62,728.3441163772627
63,728.3022219506926
64,728.2614266282778
65,728.2218202354821
66,728.1834906756599
67,728.1465235658621
68,728.1110018696359
69,728.0770055267309
70,728.0446110811948
71,728.0138913105343
72,727.9849148588183
73,727.9577458761516
74,727.9324436666876
75,727.9090623477605
76,727.8876505237258
77,727.8682509793214
78,727.8509003985045
79,727.8356291155427
80,727.8224609051899
81,727.8114128174396
82,727.8024950595102
83,727.7957109246411
84,727.7910567659143
85,727.7885220143154
86,727.7880892420767
87,727.7897342727945
88,727.7934263382035
89,727.7991282790994
90,727.8067967863799
91,727.8163826779547
92,727.8278312075813
93,727.8410824017803
94,727.8560714207872
95,727.8727289392823
96,727.89098154264
97,727.9107521347931
98,727.9319603544753
99,727.9545229972081
100,727.9783544406073
101,728.0033670705327
102,728.0294717055614
103,728.0565780172122
104,728.0845949432888
105,728.1134310916879
106,728.1429951318446
107,728.1731961705275
108,728.2039441083961
109,728.2351499741611
110,728.2667262342435
111,728.2985870770087
112,728.3306486716921
113,728.3628294031838
114,728.3950500850242
115,728.427234154024
116,728.4593078505403
117,728.491200388476
118,728.5228441186101
119,728.5541746881013
120,728.5851311981492
121,728.6156563609325
122,728.6456966559815
123,728.6752024852859
124,728.7041283263245
125,728.7324328832752
126,728.7600792382726
127,728.7870350053474
128,728.8132724887778
129,728.8387688453845
130,728.8635062476397
131,728.8874720418223
132,728.9106588931493
133,728.9330649083969
134,728.9546937264442
135,728.9755545682182
136,728.9956622390172
137,729.0150370778235
138,729.0337048501287
139,729.051696583066
140,729.0690483438793
141,729.0858009644717
142,729.1019997159509
143,729.1176939379105
144,729.1329366274506
145,729.1477839922874
146,729.1622949710971
147,729.1765307235447
148,729.1905540928086
149,729.2044290444122
150,729.2182200859696
151,729.231991672467
152,729.2458076009572
153,729.2597303978132
154,729.2738207018097
155,729.2881366474011
156,729.3027332540867
157,729.3176618292993
158,729.3329693936913
159,729.3486981385602
160,729.3648849248847
161,729.3815608321751
162,729.3987507637815
163,729.4164731140243
164,729.4347395014931
165,729.4535545717874
166,729.472915871496
167,729.4928137934357
168,729.5132315916143
169,729.534145463624
170,729.5555246980815
171,729.5773318844816
172,729.5995231820453
173,729.6220486432355
174,729.6448525870869
175,729.6678740173272
176,729.6910470803974
177,729.7143015590364
178,729.7375633978918
179,729.7607552580733
180,729.7837970975316
181,729.8066067741387
182,729.829100668736
183,729.8511943259213
184,729.8728031103873
185,729.8938428759301
186,729.9142306430506
187,729.9338852800383
188,729.9527281818466
189,729.9706839405036
190,729.9876809998414
191,730.0036522863638
192,730.0185358078576
193,730.0322752119689
194,730.0448202978372
195,730.056127474407
196,730.0661601592215
197,730.0748891117604
198,730.0822926961637
199,730.0883570694313
200,730.0930762926462
201,730.0964523643605
202,730.0984951770675
203,730.0992223994629
204,730.0986592887249
205,730.096838438332
206,730.0937994680555
207,730.0895886634833
208,730.0842585723724
209,730.0778675642451
210,730.0704793585185
211,730.0621625259454
212,730.0529899684859
213,730.0430383832412
214,730.0323877159632
215,730.021120608753
216,730.0093218453776
217,729.9970777967172
218,729.9844758683804
219,729.9716039522917
220,729.9585498840145
221,729.9454009078707
222,729.9322431525633
223,729.9191611206361
224,729.9062371955199
225,729.8935511702294
226,729.8811798022776
227,729.8691963998868
228,729.8576704444346
229,729.8466672527469
230,729.8362476807407
231,729.8264678681016
232,729.8173790227854
233,729.8090272438573
234,729.8014533811784
235,729.7946929308937
236,729.7887759667973
237,729.7837271091679
238,729.7795655340191
239,729.7763050262321
240,729.7739540791222
241,729.7725160406192
242,729.7719893033542
243,729.7723675337505
244,729.7736399343254
245,729.7757915335714
246,729.7788034980954
247,729.7826534613821
248,729.7873158626815
249,729.7927622887037
250,729.7989618102737
251,729.8058813055843
252,729.8134857612964
253,729.8217385432487
254,729.8306016305839
255,729.840035810264
256,729.8500008322551
257,729.8604555285307
258,729.8713579013563
259,729.8826651879563
260,729.8943339094079
261,729.9063199115109
262,729.9185784046531
263,729.9310640084244
264,729.9437308048035
265,729.9565324012148
266,729.9694220022714
267,729.9823524876036
268,729.9952764933424
269,730.0081464962274
270,730.0209149008832
271,730.0335341314127
272,730.0459567275877
273,730.0581354441287
274,730.0700233500586
275,730.0815739249696
276,730.0927411503487
277,730.1034795959798
278,730.1137445027352
279,730.123491863473
280,730.1326785036941
281,730.1412621635307
282,730.1492015825816
283,730.1564565890161
284,730.1629881942137
285,730.1687586938814
286,730.1737317759697
287,730.1778726350852
288,730.18114809302
289,730.183526725381
290,730.1849789943626
291,730.1854773872723
292,730.1849965601789
293,730.1835134865497
294,730.1810076113511
295,730.1774610109467
296,730.172858558195
297,730.167188091137
298,730.1604405830533
299,730.1526103114813
300,730.1436950239435
301,730.1336960988226
302,730.1226187009435
303,730.1104719321852
304,730.0972689769688
305,730.0830272408867
306,730.067768479392
307,730.0515189132672
308,730.0343093279726
309,730.0161751537781
310,729.9971565225984
311,729.9772982966371
312,729.9566500641316
313,729.9352660986711
314,729.9132052800412
315,729.8905309754022
316,729.8673108793517
317,729.8436168105391
318,729.8195244620276
319,729.7951131030973
320,729.7704652313579
321,729.7456661753695
322,729.7208036489579
323,729.6959672588747
324,729.6712479676047
325,729.6467375132738
326,729.622527788758
327,729.5987101822706
328,729.5753748823889
329,729.5526101522076
330,729.5305015798982
331,729.5091313156197
332,729.4885773066832
333,729.4689125438048
334,729.4502043311438
335,729.4325135916503
336,729.41589421716
337,729.400392470253
338,729.3860464431973
339,729.3728855790717
340,729.36093026099
341,729.3501914761855
342,729.3406705618007
343,729.332359038386
344,729.3252385354954
345,729.3192808118285
346,729.3144478708277
347,729.3106921719246
348,729.3079569375091
349,729.3061765553964
350,729.3052770755934
351,729.3051767987318
352,729.3057869523134
353,729.3070124498996
354,729.3087527268103
355,729.3109026435039
356,729.3133534456354
357,729.3159937688841
358,729.3187106767309
359,729.3213907191991
360,729.3239209995609
361,729.3261902349855
362,729.3280897974055
363,729.3295147228214
364,729.3303646798576
365,729.3305448901928
366,729.3299669938788
367,729.3285498520166
368,729.3262202786715
369,729.3229136936767
370,729.3185746881111
371,729.3131574948055
372,729.3066263572531
373,729.2989557912681
374,729.2901307341608
375,729.280146576346
376,729.2690090710782
377,729.2567341198792
378,729.2433474338694
379,729.2288840741599
380,729.2133878775859
381,729.1969107775093
382,729.1795120329192
383,729.1612573818643
384,729.142218136681
385,729.1224702384484
386,729.1020932868935
387,729.0811695602722
388,729.0597830385483
389,729.038018443094
390,729.0159603065991
391,728.9936920867842
392,728.9712953363984
393,728.9488489404365
394,728.9264284301951
395,728.9041053826442
396,728.8819469121203
397,728.8600152593564
398,728.8383674806446
399,728.8170552376596
400,728.7961246860278
401,728.7756164579434
402,728.7555657310944
403,728.736002373191
404,728.7169511490721
405,728.6984319764648
406,728.6804602171778
407,728.6630469920553
408,728.6461995094012
409,728.629921397441
410,728.6142130321224
411,728.5990718527437
412,728.5844926598241
413,728.5704678918914
414,728.5569878795067
415,728.5440410751553
416,728.5316142569511
417,728.5196927035616
418,728.5082603381592
419,728.497299840309
420,728.4867927259529
421,728.4767193971785
422,728.4670591657473
423,728.4577902569406
424,728.4488898020513
425,728.4403338284811
426,728.4320972564441
427,728.4241539109095
428,728.4164765562572
429,728.4090369592261
430,728.401805983997
431,728.3947537223414
432,728.3878496612825
433,728.3810628897922
434,728.3743623445652
435,728.3677170934616
436,728.3610966541529
437,728.3544713446046
438,728.3478126608908
439,728.3410936762058
440,728.3342894528903
441,728.3273774572042
442,728.3203379650791
443,728.3131544467308
444,728.3058139188668
445,728.2983072548079
446,728.2906294446562
447,728.282779799514
448,728.2747620954959
449,728.2665846548105
450,728.2582603628158
451,728.2498066221037
452,728.2412452471797
453,728.2326023054648
454,728.2239079112335
455,728.2151959784427
456,728.206503936888
457,728.1978724148672
458,728.1893448910292
459,728.1809673179546
460,728.172787719715
461,728.1648557650609
462,728.1572223172673
463,728.149938961392
464,728.1430575101207
465,728.1366294907683
466,728.1307056185452
467,728.1253352644413
468,728.1205659288192
469,728.1164427329015
470,728.1130079396992
471,728.1103005144482
472,728.1083557329591
473,728.1072048444527
474,728.1068747933928
475,728.1073880027359
476,728.1087622190361
477,728.1110104178509
478,728.1141407659137
479,728.1181566349032
480,728.1230566606368
481,728.1288348409463
482,728.1354806650488
483,728.142979267021
484,728.1513115964236
485,728.1604546003018
486,728.170381412374
487,728.1810615468813
488,728.1924610960981
489,728.2045429318874
490,728.2172669130427
491,728.2305901012977
492,728.2444669893482
493,728.2588497439075
494,728.2736884661216
495,728.2889314710991
496,728.3045255880932
497,728.3204164829094
498,728.3365490039712
499,728.3528675527214
500,728.3693164777204
501,728.3858404902447
502,728.4023850975093
503,728.418897048005
504,728.4353247823881
505,728.4516188832284
506,728.4677325173699
507,728.4836218651972
508,728.4992465315904
509,728.5145699337361
510,728.5295596609523
511,728.5441878010903
512,728.5584312272517
513,728.5722718380738
514,728.5856967449317
515,728.5986983999212
516,728.6112746592329
517,728.6234287775799
518,728.6351693309554
519,728.6465100672722
520,728.6574696871263
521,728.668071559524
522,728.6783433793064
523,728.6883167738529
524,728.6980268667874
525,728.7075118065912
526,728.7168122686354
527,728.7259709397852
528,728.7350319948112
529,728.7440405731494
530,728.7530422632129
531,728.7620825996763
532,728.7712065773874
533,728.7804581844673
534,728.7898799569222
535,728.7995125573606
536,728.8093943808551
537,728.8195611915203
538,728.8300457938572
539,728.8408777429436
540,728.8520830968234
541,728.8636842131249
542,728.8756995904598
543,728.8881437538719
544,728.9010271825081
545,728.9143562767877
546,728.9281333619024
547,728.9423567248864
548,728.957020683575
549,728.9721156866987
550,728.9876284442298
551,729.0035420858923
552,729.0198363441963
553,729.0364877572769
554,729.0534698865043
555,729.0707535443586
556,729.0883070293194
557,729.1060963663044
558,729.1240855529726
559,729.1422368132821
560,729.1605108597143
561,729.1788671649863
562,729.1972642436446
563,729.2156599439626
564,729.2340117505539
565,729.2522770973374
566,729.2704136888811
567,729.2883798263157
568,729.3061347323321
569,729.3236388682636
570,729.3408542352187
571,729.3577446513735
572,729.3742759990299
573,729.3904164373545
574,729.406136578918
575,729.4214096295108
576,729.4362114911287
577,729.450520827987
578,729.4643190954498
579,729.4775905321659
580,729.4903221164611
581,729.5025034886754
582,729.5141268411605
583,729.5251867773057
584,729.5356801409213
585,729.5456058179169
586,729.554964513199
587,729.5637585065759
588,729.5719913918485
589,729.5796678033358
590,729.5867931344156
591,729.5933732535882
592,729.5994142245926
593,729.6049220373397
594,729.6099023555582
595,729.6143602856671
596,729.6183001703563
597,729.6217254099887
598,729.6246383147917
599,729.6270399901766
600,729.6289302563275
601,729.6303076021054
602,729.6311691730164
603,729.631510793397
604,729.6313270234025
605,729.6306112511425
606,729.629355819217
607,729.6275521835436
608,729.6251911015606
609,729.622262846771
610,729.618757446348
611,729.6146649374901
612,729.6099756366643
613,729.6046804145914
614,729.5987709692478
615,729.5922400893378
616,729.5850819016815
617,729.5772920978544
618,729.5688681378995
619,729.559809431518
620,729.5501174994607
621,729.5397961194038
622,729.5288514608786
623,729.5172922129552
624,729.5051297072536
625,729.49237803796
626,729.4790541795273
627,729.4651781012295
628,729.4507728759112
629,729.4358647786121
630,729.420483369723
631,729.4046615574143
632,729.3884356354422
633,729.3718452943656
634,729.3549336054816
635,729.3377469771046
636,729.320335083359
637,729.3027507673894
638,729.2850499230129
639,729.267291359678
640,729.2495366543894
641,729.2318499915438
642,729.2142979885133
643,729.1969495025523
644,729.1798754137901
645,729.1631483791582
646,729.1468425522681
647,729.1310332647793
648,729.1157966665207
649,729.1012093244648
650,729.0873477836058
651,729.074288095084
652,729.0621053183088
653,729.0508730045582
654,729.0406626698523
655,729.0315432649858
656,729.0235806503349
657,729.0168370823665
658,729.0113707179107
659,729.0072351415812
660,729.0044789213435
661,729.0031451969559
662,729.0032713054575
663,729.0048884469867
664,729.008021393188
665,729.0126882395832
666,729.0189002025112
667,729.0266614604877
668,729.0359690391127
669,729.0468127380311
670,729.0591750980744
671,729.0730314066561
672,729.0883497397888
673,729.1050910397133
674,729.1232092281114
675,729.1426513562208
676,729.1633577947689
677,729.1852624680091
678,729.2082931366764
679,729.2323717340719
680,729.2574147578576
681,729.2833337175498
682,729.3100356341546
683,729.337423584473
684,729.3653972795989
685,729.3938536662079
686,729.4226875403781
687,729.451792165825
688,729.4810598903472
689,729.5103827554587
690,729.5396530947479
691,729.5687641167667
692,729.5976104683364
693,729.6260887740174
694,729.6540981474832
695,729.6815406710245
696,729.7083218403418
697,729.7343509727795
698,729.7595415780922
699,729.7838116917966
700,729.807084172151
701,729.829286962746
702,729.8503533234159
703,729.8702220324295
704,729.8888375622819
705,729.9061502300076
706,729.9221163215036
707,729.9366981886462
708,729.9498643181213
709,729.961589371312
710,729.9718541947423
711,729.9806458003329
712,729.9879573143121
713,729.9937878932282
714,729.9981426050643
715,730.0010322729071
716,730.0024732783575
717,730.002487322543
718,730.001101144384
719,729.998346198127
720,729.994258294245
721,729.9888772091588
722,729.9822462697872
723,729.9744119188441
724,729.9654232663136
725,729.9553316320038
726,729.9441900838507
727,729.9320529767031
728,729.9189754962848
729,729.9050132126201
730,729.8902216465686
731,729.8746558525118
732,729.858370019721
733,729.8414170943735
734,729.8238484233034
735,729.805713419467
736,729.7870592485039
737,729.7679305365119
738,729.7483691008068
739,729.7284137065234
740,729.7080998515071
741,729.687459580611
742,729.6665213293876
743,729.6453097966537
744,729.6238458452272
745,729.602146430151
746,729.5802245541383
747,729.558089250929
748,729.5357455984997
749,729.513194765066
750,729.490434091076
751,729.4674572096699
752,729.4442542065176
753,729.4208118180454
754,729.3971136654485
755,729.3731405207612
756,729.3488706002618
757,729.3242798795849
758,729.2993424245791
759,729.274030732435
760,729.2483160784903
761,729.22216886482
762,729.1955589671322
763,729.1684560769212
764,729.1408300362443
765,729.1126511625017
766,729.0838905601433
767,729.0545204160289
768,729.0245142758043
769,728.9938472999158
770,728.9624964992463
771,728.9304409516109
772,728.8976620014996
773,728.8641434463251
774,728.829871712773
775,728.7948360266363
776,728.759028578821
777,728.7224446890689
778,728.6850829675888
779,728.6469454737999
780,728.6080378710268
781,728.5683695758145
782,728.5279538999414
783,728.4868081821467
784,728.4449539054707
785,728.4024167954939
786,728.3592268950412
787,728.3154186121359
788,728.2710307398518
789,728.226106448618
790,728.1806932527726
791,728.1348429534381
792,728.0886115596642
793,728.0420591898219
794,727.99524995508
795,727.9482518254749
796,727.9011364766369
797,727.853979113003
798,727.8068582625814
799,727.759855538945
800,727.7130553673354
801,727.6665446732575
802,727.620412534049
803,727.5747497964061
804,727.5296486645457
805,727.4852022637234
806,727.4415041827034
807,727.3986479976627
808,727.3567267795024
809,727.3158325865585
810,727.2760559450189
811,727.2374853196918
812,727.2002065779145
813,727.1643024494687
814,727.1298519857573
815,727.0969300224564
816,727.0656066510944
817,727.0359467059582
818,727.0080092729479
819,726.9818472265623
820,726.9575068006244
821,726.9350271984664
822,726.9144402493146
823,726.8957701186473
824,726.8790330801681
825,726.8642373555901
826,726.8513830263644
827,726.8404620193198
828,726.8314581661073
829,726.8243473345159
830,726.8190976282935
831,726.8156696508987
832,726.8140168274734
833,726.8140857782325
834,726.8158167356326
835,726.819143997383
836,726.8239964076929
837,726.8302978598053
838,726.8379678133501
839,726.8469218200601
840,726.8570720511767
841,726.8683278201323
842,726.880596095348
843,726.8937819997916
844,726.9077892952132
845,726.9225208492186
846,726.9378790832093
847,726.9537663998003
848,726.9700855899226
849,726.9867402215529
850,727.0036350129636
851,727.0206761936107
852,727.0377718559519
853,727.0548323018035
854,727.071770386747
855,727.088501865062
856,727.1049457357016
857,727.1210245874005
858,727.1366649387361
859,727.1517975674027
860,727.1663578224001
861,727.1802859130971
862,727.1935271698036
863,727.2060322714116
864,727.2177574368105
865,727.2286645777535
866,727.2387214113145
867,727.2479015304082
868,727.2561844318799
869,727.2635555034308
870,727.2700059720454
871,727.2755328167287
872,727.2801386476666
873,727.2838315534997
874,727.2866249185188
875,727.2885372115559
876,727.2895917477745
877,727.2898164240806
878,727.2892434292562
879,727.287908930982
880,727.2858527427771
881,727.2831179738822
882,727.2797506645032
883,727.2757994083066
884,727.271314963879
885,727.2663498567746
886,727.2609579737641
887,727.2551941514114
888,727.2491137623023
889,727.242772303587
890,727.2362249932039
891,727.2295263788953
892,727.2227299640634
893,727.2158878530664
894,727.2090504172916
895,727.202265982731
896,727.1955805396113
897,727.1890374742854
898,727.182677323073
899,727.1765375477638
900,727.1706523335314
901,727.1650524115825
902,727.1597649102364
903,727.1548132389809
904,727.1502170104978
905,727.1459920058222
906,727.1421501875902
907,727.1386997655073
908,727.1356453163826
909,727.1329879584008
910,727.1307255764326
911,727.1288530928622
912,727.1273627768624
913,727.1262445842709
914,727.1254865205519
915,727.1250750211229
916,727.1249953462094
917,727.1252319898618
