acceleration,velocity,displacement
0.01943026516189363,0.0,0.0
0.019088909459786897,9.629793655420132e-06,2.407448413855033e-09
0.018747289987285115,1.9088843517188136e-05,9.5871077070071e-09
0.0184051419023399,2.837695148959439e-05,2.145355645870273e-08
0.018062198185248686,3.7493786511491537e-05,3.792124095897421e-08
0.017718188473366744,4.6438883176145394e-05,5.8904408380883446e-08
0.017372837829978206,5.521163975198163e-05,8.43170391129152e-08
0.01702586546236854,6.381131557506832e-05,1.1407277794467769e-07
0.016676983420074985,7.22370277956792e-05,1.4808486378736456e-07
0.01632589531130412,8.048774747852399e-05,1.8626605760591536e-07
0.015972295080173744,8.856229507639345e-05,2.2852856824464473e-07
0.015615865896215364,9.645933532049073e-05,2.747839758438658e-07
0.015256279216752088,0.0001041773715987326,3.249431525736716e-07
0.014893194084283894,0.00011171473992399159,3.789161804543526e-07
0.014526256714201494,0.00011906960262361294,4.366122660912538e-07
0.014155100420787126,0.0001262399419073601,4.97939652223997e-07
0.013779345926998112,0.0001332235534943064,5.628055260744136e-07
0.013398602102215239,0.00014001804050160974,6.311159245733926e-07
0.013012467165665237,0.00014662080781857985,7.027756366534401e-07
0.01262053038077667,0.00015302905720519032,7.776881029093826e-07
0.012222374251960239,0.00015923978336337456,8.557553130515239e-07
0.011817577224446683,0.00016524977123247628,9.368777017004866e-07
0.011405716881694509,0.00017105559475901158,1.0209540431983585e-06
0.01098637363280888,0.00017665361738763744,1.1078813462350208e-06
0.010559134879588022,0.00018203999451573666,1.1975547492108645e-06
0.010123599642116366,0.00018721067814616275,1.2898674173763393e-06
0.00967938359831095,0.00019216142395626958,1.3847104429019474e-06
0.0092261244591898,0.00019688780097064476,1.481972749133676e-06
0.008763487569001143,0.0002013852039776925,1.5815410003707604e-06
0.008291171600596276,0.00020564886877009187,1.6832995185577064e-06
0.00780891421661094,0.00020967389022439367,1.7871302083063279e-06
0.007316497580312783,0.0002134552431736246,1.8929124916558324e-06
0.006813753615455315,0.00021698780597256663,2.00052325394238e-06
0.006300568922283774,0.0002202663866070014,2.1098368020872723e-06
0.005776889254905006,0.0002232857511512986,2.2207248365268474e-06
0.005242723462533958,0.00022604065433065834,2.3330564378973365e-06
0.0046981468064530695,0.0002285258718979051,2.4466980694544775e-06
0.004143303589615006,0.00023073623449692212,2.5615135960531845e-06
0.0035784090694416905,0.0002326666626616863,2.6773643203428367e-06
0.0030037506559058356,0.00023431220259302317,2.7941090366565143e-06
0.0024196884213870777,0.0002356680623623464,2.9116041028953567e-06
0.001826654965969306,0.0002367296482091855,3.0297035305382398e-06
0.0012251546920917635,0.00023749260062370077,3.148259092746461e-06
0.0006157625479466206,0.00023795282993371037,3.267120450385814e-06
-8.776947424895777e-07,0.0002381065511470114,3.3861352956559947e-06
-0.0006240555564950172,0.00023795031783420203,3.5051495129012983e-06
-0.001252996292741879,0.0002374810548718928,3.624007356077822e-06
-0.0018868636214876245,0.00023669608989333542,3.742551642269129e-06
-0.00252476272800698,0.00023559318330596178,3.860623960568953e-06
-0.0031657435626765876,0.0002341705567332909,3.978064895578766e-06
-0.0038088044512317185,0.0002324269197298138,4.0947142646945425e-06
-0.004452896022917372,0.00023036149461127652,4.210411368279815e-06
-0.005096925442121488,0.0002279740392450168,4.324995251743888e-06
-0.005739760912974135,0.0002252648676562429,4.438304978469203e-06
-0.0063802364177320044,0.00022223486832356634,4.5501799124641555e-06
-0.007017156646237572,0.00021888552005757395,4.6604600095594405e-06
-0.007649302069822166,0.00021521890537855903,4.7689861159184735e-06
-0.008275434106696294,0.0002112377213344294,4.875600272596721e-06
-0.00889430032072544,0.000206945287727574,4.980146024862222e-06
-0.009504639597347785,0.00020234555274805568,5.08246873498113e-06
-0.010105187252528335,0.00019744309603558666,5.18241589717704e-06
-0.010694680052952831,0.00019224312920921636,5.279837453488241e-06
-0.011271861153284187,0.0001867514939076571,5.37458610926746e-06
-0.011835484977878973,0.0001809746573748663,5.466517647088091e-06
-0.012384322079312438,0.00017491970561056845,5.555491237834449e-06
-0.01291716399680563,0.00016859433409153893,5.641369747759976e-06
-0.013432828128546312,0.00016200683606020094,5.724020040297911e-06
-0.013930162631347755,0.0001551660883702274,5.803313271405518e-06
-0.014408051360762238,0.0001480815348721999,5.879125177216125e-06
-0.014865418852790233,0.0001407631673188118,5.951336352763878e-06
-0.015301235327282179,0.0001332215037737937,6.019832520537029e-06
-0.01571452167699222,0.0001254675645227251,6.0845047876111585e-06
-0.016104354403595762,0.0001175128455025781,6.145249890117484e-06
-0.016469870468013424,0.0001093692892846758,6.201970423814298e-06
-0.01681027202584212,0.00010104925366121192,6.254575059550769e-06
-0.01712483101319859,9.256547790145175e-05,6.302978742441435e-06
-0.017412893534683643,8.393104676448118e-05,6.347102873607918e-06
-0.017673883988731924,7.515935238362729e-05,6.386875473394945e-06
-0.017907308850213282,6.626405417389099e-05,6.4222313250343244e-06
-0.018112760019116617,5.7259036956558516e-05,6.4531120978169364e-06
-0.018289917643405217,4.815836754092805e-05,6.479466448941308e-06
-0.01843855234214845,3.897625004453964e-05,6.5012501033376755e-06
-0.018558526793227136,2.9726980260695742e-05,6.5184259109139844e-06
-0.018649796691267147,2.0424899389572173e-05,6.530963880826552e-06
-0.01871241109983233,1.1084347441797303e-05,6.538841192534394e-06
-0.01874651220844091,1.7196166147289912e-06,6.5420421835485254e-06
-0.018752334480383073,-7.655095057477005e-06,6.540558313937839e-06
-0.01873020317126538,-1.7025729470389117e-05,6.534388107805872e-06
-0.018680532219855796,-2.637841331816941e-05,6.523537072108732e-06
-0.01860382154498953,-3.569950175938074e-05,6.508017593339344e-06
-0.018500653802732744,-4.497562059631131e-05,6.487848812750422e-06
-0.018371690661000487,-5.419370671224462e-05,6.4630564809232825e-06
-0.018217668644651294,-6.334104653865757e-05,6.433672792610557e-06
-0.018039394602819,-7.240531235052515e-05,6.399736202888261e-06
-0.017837740852876205,-8.137459621444894e-05,6.361291225747017e-06
-0.01761364005830523,-9.02374414422443e-05,6.318388216332844e-06
-0.017368079897789164,-9.89828714312679e-05,6.271083138114466e-06
-0.01710209757803618,-0.00010760041580022423,6.219437316306593e-06
-0.0168167742338889,-0.0001160801337532055,6.163517178918236e-06
-0.016513229251152336,-0.0001244126346244658,6.103393986823818e-06
-0.016192614544759502,-0.00013258909557344376,6.039143554274341e-06
-0.01585610882560057,-0.00014060127641603377,5.970845961276972e-06
-0.015504911889896498,-0.00014844153159490804,5.898585259274237e-06
-0.015140238965736928,-0.0001561028193088164,5.822449171548306e-06
-0.014763315152201981,-0.00016357870783830113,5.7425287897615265e-06
-0.014375369986750671,-0.0001708633791230393,5.658918268021191e-06
-0.013977632178937015,-0.00017795162966446123,5.571714515824316e-06
-0.013571324554683283,-0.00018483886884786631,5.481016891196234e-06
-0.013157659259351657,-0.00019152111480137506,5.386926895283924e-06
-0.012737833262142973,-0.00019799498793174873,5.289547869600643e-06
-0.012313024190123995,-0.00020425770229481546,5.188984697044001e-06
-0.011884386504294972,-0.00021030705496842021,5.085343507728192e-06
-0.011453048016160296,-0.00021614141359853402,4.9787313905864534e-06
-0.011020106729059403,-0.00022175970228483895,4.86925611161561e-06
-0.010586627972654266,-0.00022716138596026738,4.757025839554333e-06
-0.010153641784615744,-0.00023234645339958489,4.64214887971437e-06
-0.009722140485291826,-0.00023731539896706177,4.524733416622708e-06
-0.009293076390637662,-0.00024206920318604414,4.4048872660844315e-06
-0.008867359614857106,-0.00024660931218741785,4.2827176372410664e-06
-0.008445855924532642,-0.00025093761607226526,4.158330905176146e-06
-0.00802938461754201,-0.00025505642620778394,4.031832394606134e-06
-0.007618716411700795,-0.00025896845146509463,3.903326175187914e-06
-0.007214571341015698,-0.00026267677340327376,3.772914868970822e-06
-0.006817616668953247,-0.000266184820405766,3.640699470518562e-06
-0.006428464829662789,-0.00026949634078042,3.5067791802220157e-06
-0.006047671393683356,-0.0002726153748362565,3.3712512513178467e-06
-0.00567573303301275,-0.00027554622594293054,3.23421085112305e-06
-0.005313085450090113,-0.00027829343056370626,3.095750936996391e-06
-0.004960101247430161,-0.0002808617272380863,2.955962147545943e-06
-0.0046170877441936995,-0.00028325602448599224,2.8149327096149234e-06
-0.004284284781816253,-0.00028548136761749474,2.6727483615890515e-06
-0.003961862596277591,-0.0002875429044620182,2.529492293569173e-06
-0.0036499198655821435,-0.0002894458500774831,2.385245104934298e-06
-0.003348482060086813,-0.00029119545055890036,2.240084779775202e-06
-0.0030575002243786805,-0.00029279694613001673,2.0940866806029726e-06
-0.0027768503053446653,-0.0002942555337624476,1.9473235606298566e-06
-0.0025063331209059306,-0.00029557632961901023,1.799865594784492e-06
-0.002245675041944898,-0.00029676433165972294,1.6517804294648088e-06
-0.0019945294341703053,-0.00029782438277875176,1.50313325085519e-06
-0.0017524788761511324,-0.00029876113485633214,1.3539868714464192e-06
-0.0015190381396684416,-0.000299579014110287,1.2044018342047644e-06
-0.0012936578954864735,-0.00030028218811907573,1.0544365336474238e-06
-0.0010757290918279978,-0.00030087453486590435,9.041473529011788e-07
-0.0008645879418205716,-0.0003013596141243165,7.535888156536235e-07
-0.000659521452575368,-0.0003017406414729155,6.028137517543154e-07
-0.0004597734373960325,-0.00030202046519540836,4.5187347508723443e-07
-0.00026455096880149997,-0.00030220154629695775,3.008179722141429e-07
-7.303123939180759e-05,-0.0003022859418490061,1.4969610017765194e-07
0.00011563120727014726,-0.0003022752918570365,-1.444208248858713e-09
0.00030229692701218947,-0.0003021708098234659,-1.525557336689843e-07
0.00048783376864224384,-0.0003019732771495523,-3.0359175541223886e-07
0.0006731088729422075,-0.0003016830414891562,-4.54505835071916e-07
0.000858980529233757,-0.0003013000191386122,-6.052516002288581e-07
0.0010462899318321632,-0.00030082370152334574,-7.557825303943476e-07
0.0012358528803759045,-0.0003002531658202937,-9.060517472302575e-07
0.001428451482803808,-0.00029958708972949876,-1.0560118111177057e-06
0.0016248259402143316,-0.0002988237703737442,-1.2056145261435165e-06
0.0018256665136730987,-0.00029796114726027235,-1.3548107555520206e-06
0.002031605792336805,-0.0002969968291837699,-1.503550249663031e-06
0.0022432113939606,-0.0002959281248871955,-1.6517814881807725e-06
0.0024609792252220063,-0.00029475207723239985,-1.7994515387106713e-06
0.002685327412202513,-0.0002934655005730437,-1.946505933162032e-06
0.002916590990434026,-0.00029206502097238457,-2.092888563548389e-06
0.0031550174266541265,-0.00029054711886811256,-2.2385415985085134e-06
0.0034007630307742016,-0.00028890817375375546,-2.3834054216639806e-06
0.003653890302048252,-0.0002871445104205499,-2.527418592707557e-06
0.003914366233675415,-0.00028525244628661893,-2.670517831884349e-06
0.004182061576071748,-0.0002832283393341821,-2.812638028289549e-06
0.004456751038163324,-0.00028106863618062336,-2.9537122721682506e-06
0.004738114395875517,-0.00027876991982211366,-3.0936719111689348e-06
0.005025738475696407,-0.0002763289566042207,-3.2324466302755183e-06
0.005319119977932851,-0.0002737427419908134,-3.3699645549242767e-06
0.0056176690936403165,-0.00027100854472292014,-3.50615237660271e-06
0.005920713857017569,-0.00026812394898525566,-3.640935500029754e-06
0.006227505167977396,-0.0002650868942290069,-3.7742382108333196e-06
0.006537222417310312,-0.00026189571233268497,-3.905983862473743e-06
0.006848979648629326,-0.00025854916181620004,-4.036095081010964e-06
0.007161832198776778,-0.0002550464588543485,-4.164493986178601e-06
0.0074747837690973965,-0.00025138730486237997,-4.291102427107783e-06
0.007786793886078273,-0.0002475719104485861,-4.415842230935524e-06
0.008096785709440371,-0.0002436010155497064,-4.538635462435097e-06
0.008403654145639313,-0.0002394759055859365,-4.659404692719008e-06
0.008706274230002158,-0.0002351984234920261,-4.778073274988498e-06
0.00900350974750409,-0.00023077097749764954,-4.894565625235917e-06
0.009294222062785344,-0.00022619654454507718,-5.008807505746599e-06
0.009577279120600964,-0.0002214786692492306,-5.120726309195176e-06
0.009851564561891445,-0.0002166214583286075,-5.230251341089636e-06
0.010115986886696703,-0.00021162957046646046,-5.337314098288403e-06
0.010369488587355357,-0.00020650820159794745,-5.441848541304505e-06
0.010611055167835882,-0.00020126306565914964,-5.543791358118779e-06
0.010839723952090013,-0.00019590037087916816,-5.643082217253358e-06
0.011054592571390107,-0.00019042679174829813,-5.739664007910225e-06
0.011254827017700007,-0.0001848494368510256,-5.8334830650600555e-06
0.011439669158453951,-0.0001791758128069871,-5.924489377474558e-06
0.011608443619780301,-0.00017341378461242855,-6.012636776829412e-06
0.011760563952374,-0.00016757153271938996,-6.097883106162367e-06
0.011895537996632182,-0.00016165750723213843,-6.180190366150249e-06
0.012012972367203407,-0.00015568037964117952,-6.259524837868578e-06
0.012112575987510745,-0.000149648992552501,-6.335857180916999e-06
0.012194162621692739,-0.00014357230790020011,-6.4091625060301736e-06
0.012257652370933169,-0.00013745935415204364,-6.479420421543235e-06
0.012303072122616802,-0.00013131917302865615,-6.5466150533384096e-06
0.01233055496473043,-0.00012516076625681934,-6.610735038159779e-06
0.012340338601871056,-0.00011899304286516897,-6.6717734904402754e-06
0.012332762829774632,-0.00011282476750725754,-6.729727943033382e-06
0.012308266142590889,-0.00010666451026416616,-6.784600262476238e-06
0.012267381562222787,-0.00010052059833796275,-6.83639653962677e-06
0.012210731788686226,-9.440107000023549e-05,-6.88512695671132e-06
0.012139023769665747,-8.831363111064749e-05,-6.930805631989041e-06
0.012053042775566977,-8.22656144743393e-05,-6.9734504433852875e-06
0.011953646051241669,-7.626394226763714e-05,-7.013082832570782e-06
0.011841756108661602,-7.031509172766132e-05,-7.049727591069606e-06
0.011718353729398487,-6.44250642681463e-05,-7.083412630068558e-06
0.01158447075269703,-5.859935814762242e-05,-7.1141687356725e-06
0.011441182723305555,-5.284294477862177e-05,-7.1420293114040615e-06
0.011289601461122775,-4.716024873251469e-05,-7.167030109781845e-06
0.011130867598803499,-4.155513146753312e-05,-7.189208954831857e-06
0.010966143121123269,-3.603087878755143e-05,-7.2086054573956284e-06
0.010796603933504,-3.059019202389461e-05,-7.22526072509849e-06
0.010623432483988787,-2.5235182919521413e-05,-7.239217068834344e-06
0.010447810462366633,-1.996737218293256e-05,-7.250517707609958e-06
0.01027091160420409,-1.4787691666289878e-05,-7.259206473572264e-06
0.01009389463615786,-9.69649010619939e-06,-7.2653275190153865e-06
0.009917896407469231,-4.693542345292618e-06,-7.26892502712826e-06
0.009744025258032089,2.21938071082712e-07,-7.270042928196812e-06
0.009573354677754622,5.05128305502939e-06,-7.2687246229152845e-06
0.009406917318627878,9.796351054125015e-06,-7.265012714387996e-06
0.009245699427845873,1.4459505240743453e-05,-7.258948750314279e-06
0.009090635768405587,1.904358903980632e-05,-7.250572976744141e-06
0.008942605075793626,2.3551899250856124e-05,-7.239924104671475e-06
0.008802426070957863,2.7988157037543997e-05,-7.2270390905993755e-06
0.008670854025348809,3.235647706162066e-05,-7.211952932074584e-06
0.008548577861723403,3.6661335033388714e-05,-7.194698479050832e-06
0.008436217770727094,4.090753394150134e-05,-7.17530626180711e-06
0.008334323323195073,4.510016921498188e-05,-7.153804336017989e-06
0.008243372064104524,4.924459306180678e-05,-7.130218145448792e-06
0.008163768589202683,5.3346378225133586e-05,-7.1045704026270565e-06
0.008095844125738617,5.741128140386891e-05,-7.076880987719806e-06
0.00803985665690922,6.144520659953088e-05,-7.047166865718956e-06
0.007995991636679193,6.545416867292797e-05,-7.015442021900841e-06
0.00796436332928882,6.944425741441997e-05,-6.981717415379004e-06
0.007945016775884524,7.342160244071331e-05,-6.94600095041522e-06
0.007937930351838457,7.739233922264405e-05,-6.908297464999381e-06
0.007943018848806044,8.136257652280517e-05,-6.8686087360630185e-06
0.007960137003585414,8.533836548590303e-05,-6.8269335005608415e-06
0.007989083398017486,8.932567058630376e-05,-6.7832674915427896e-06
0.008029604658327331,9.333034260038997e-05,-6.737603488246116e-06
0.008081399878118036,9.73580937345013e-05,-6.689931379162393e-06
0.008144125177573784,0.00010141447499842426,-6.640238236979161e-06
0.008217398300428815,0.00010550485586792491,-6.588508404262574e-06
0.008300803143125432,0.00010963440622881347,-6.53472358873839e-06
0.008393894103678658,0.0001138080805405145,-6.478862967046058e-06
0.008496200132506784,0.00011803060409956087,-6.420903295886039e-06
0.00860722837440639,0.00012230646122628915,-6.360819029554577e-06
0.008726467318356607,0.0001266398851494799,-6.298582442960634e-06
0.008853389414408826,0.00013103484933267126,-6.234163759340096e-06
0.008987453161465677,0.00013549505997663988,-6.167531282012769e-06
0.00912810470827605,0.0001400239494440753,-6.09865152965759e-06
0.009274779041169714,0.00014462467038143674,-6.027489374701212e-06
0.009426900854045905,0.00014930009035524065,-5.954008184517043e-06
0.00958388520616976,0.00015405278687029457,-5.878169965210659e-06
0.009745138072002888,0.00015888504268983774,-5.799935507820626e-06
0.009910056877539363,0.0001637988414272233,-5.7192645367913606e-06
0.010078031100511182,0.00016879586342173595,-5.636115860579121e-06
0.01024844298593474,0.00017387748194334744,-5.5504475242378505e-06
0.010420668394442013,0.00017904475978844164,-5.462216963804903e-06
0.010594077767473028,0.00018429844632892039,-5.371381162275563e-06
0.010768037174332152,0.0001896389750643717,-5.27789680692724e-06
0.010941909408420143,0.00019506646171005976,-5.181720447733632e-06
0.011115055118778788,0.00020058070284185948,-5.082808656595652e-06
0.01128683398425753,0.00020618117511761856,-4.981118187105782e-06
0.011456605945751302,0.00021186703510012078,-4.876606134551348e-06
0.011623732500302707,0.00021763711971163429,-4.769230095848409e-06
0.01178757803674787,0.00022348994734589693,-4.658948329084026e-06
0.011947511172374818,0.0002294237196481776,-4.545719912335508e-06
0.012102906048032047,0.00023543632395327932,-4.429504901435143e-06
0.01225314355677974,0.00024152533635448227,-4.310264486358203e-06
0.01239761250628704,0.00024768802537024896,-4.18796114592702e-06
0.012535710732668416,0.00025392135617998784,-4.062558800539461e-06
0.01266684618882512,0.0002602219954103612,-3.934022962641874e-06
0.012790438029567124,0.0002665863164649593,-3.802320884673044e-06
0.012905917714626881,0.0002730104054010078,-3.667421704206552e-06
0.013012730150000281,0.0002794900673671646,-3.529296586014509e-06
0.013110334886688913,0.0002860208336263369,-3.3879188607661337e-06
0.01319820739393099,0.0002925979691964919,-3.2432641600604264e-06
0.013275840419581922,0.00029921648114987015,-3.095310547473836e-06
0.013342745441946986,0.0003058711276152524,-2.9440386452825554e-06
0.013398454209028259,0.0003125564275279962,-2.7894317564967432e-06
0.013442520360057478,0.00031926667117026765,-2.6314759818221773e-06
0.01347452112909304,0.00032599593154255526,-2.4701603311439717e-06
0.013494059131276135,0.00033273807660764754,-2.305476829106421e-06
0.013500764226461638,0.00033948678244708196,-2.137420614342739e-06
0.013494295451793295,0.0003462355473666457,-1.965990031889307e-06
0.013474343021375578,0.0003529777069849379,-1.791186718301411e-06
0.013440630399458385,0.0003597064503401464,-1.6130156789701398e-06
0.013392916451615949,0.000366414837052915,-1.4314853571218744e-06
0.013330997665877952,0.0003730958155822885,-1.2466076939630734e-06
0.013254710422152398,0.00037974224260429605,-1.0583981794164272e-06
