frame_number,force
0,702.3892820045008
1,702.3018138147801
2,702.2147608796881
3,702.1285351909632
4,702.0435422568682
5,701.9601779636723
6,701.8788255551734
7,701.7998527627527
8,701.7236091156043
9,701.6504234577518
10,701.580601694493
11,701.5144247862303
12,701.4521470030132
13,701.3939944489056
14,701.3401638613605
15,701.2908216872308
16,701.2461034343486
17,701.2061132959311
18,701.1709240438505
19,701.1405771851344
20,701.1150833733141
21,701.0944230624768
22,701.0785473880212
23,701.0673792551224
24,701.0608146140622
25,701.0587239007111
26,701.0609536204161
27,701.0673280540688
28,701.0776510658178
29,701.0917079925241
30,701.1092675955351
31,701.1300840555236
32,701.1538989911179
33,701.180443482272
34,701.2094400800011
35,701.2406047850639
36,701.273648979442
37,701.308281296392
38,701.3442094173901
39,701.3811417865736
40,701.4187892344901
41,701.4568665033946
42,701.4950936671096
43,701.5331974401421
44,701.570912372744
45,701.6079819300215
46,701.6441594540005
47,701.6792090084189
48,701.7129061075871
49,701.7450383330162
50,701.775405844202
51,701.8038217921851
52,701.8301126456494
53,701.8541184392899
54,701.8756929534209
55,701.8947038329444
56,701.9110326532003
57,701.9245749397218
58,701.9352401481452
59,701.9429516093317
60,701.9476464434783
61,701.9492754460329
62,701.9478029475349
63,701.9432066487086
64,701.9354774311686
65,701.924619143409
66,701.9106483614735
67,701.893594123538
68,701.8734976374367
69,701.8504119600448
70,701.8244016473986
71,701.79554237439
72,701.7639205231736
73,701.7296327405526
74,701.6927854664389
75,701.6534944372611
76,701.6118841690511
77,701.5680874243634
78,701.5222446653569
79,701.4745034932497
80,701.4250180732081
81,701.3739485442513
82,701.3214604154484
83,701.2677239513268
84,701.2129135502696
85,701.1572071199937
86,701.100785454481
87,701.0438316170466
88,700.9865303343444
89,700.9290674058985
90,700.8716291332343
91,700.8144017717362
92,700.7575710068688
93,700.701321454524
94,700.6458361834068
95,700.5912962556276
96,700.5378802799548
97,700.4857639707009
98,700.4351197045779
99,700.386116068535
100,700.3389173933823
101,700.2936832701147
102,700.2505680474411
103,700.2097203098876
104,700.1712823364592
105,700.1353895408057
106,700.1021698952685
107,700.0717433428393
108,700.0442212026561
109,700.0197055759442
110,699.9982887603799
111,699.9800526818301
112,699.9650683528257
113,699.9533953660634
114,699.9450814286505
115,699.9401619399713
116,699.9386596143992
117,699.9405841498502
118,699.9459319435149
119,699.9546858562496
120,699.9668150270614
121,699.9822747392107
122,700.0010063399135
123,700.0229372164749
124,700.0479808326434
125,700.0760368297473
126,700.1069911977187
127,700.1407165214349
128,700.177072307765
129,700.2159053982055
130,700.2570504709996
131,700.3003306349373
132,700.3455581146825
133,700.3925350253552
134,700.4410542331415
135,700.4909002987622
136,700.5418505005119
137,700.5936759322881
138,700.6461426695389
139,700.6990129933064
140,700.7520466607524
141,700.8050022101569
142,700.8576382886386
143,700.9097149909647
144,700.9609951977475
145,701.0112459014198
146,701.0602395087745
147,701.107755109498
148,701.1535797009874
149,701.1975093607261
150,701.2393503584098
151,701.2789202005794
152,701.3160486006764
153,701.3505783676267
154,701.3823662068148
155,701.4112834284668
156,701.43721655944
157,701.460067854994
158,701.4797557075548
159,701.4962149500275
160,701.5093970518798
161,701.5192702069828
162,701.5258193132611
163,701.5290458458504
164,701.5289676274689
165,701.5256185010705
166,701.519047909681
167,701.5093203868664
168,701.4965149597683
169,701.4807244661001
170,701.4620547869081
171,701.4406239974508
172,701.4165614387562
173,701.390006712779
174,701.361108605358
175,701.3300239434271
176,701.2969163956296
177,701.2619552279364
178,701.2253140274565
179,701.187169408111
180,701.1476997115421
181,701.1070837159681
182,701.0654993649055
183,701.0231225269147
184,700.9801257967866
185,700.9366773478064
186,700.892939843955
187,700.8490694202505
188,700.8052147388539
189,700.7615161280598
190,700.7181048109331
191,700.6751022300549
192,700.6326194743714
193,700.5907568133508
194,700.5496033424903
195,700.5092367425405
196,700.4697231526952
197,700.4311171558566
198,700.3934618722033
199,700.3567891555182
200,700.3211198850407
201,700.2864643443185
202,700.2528226777999
203,700.220185415588
204,700.1885340567161
205,700.1578417016253
206,700.1280737254328
207,700.0991884850674
208,700.0711380549453
209,700.0438689868829
210,700.017323090046
211,699.9914382261063
212,699.9661491137734
213,699.9413881356536
214,699.9170861390436
215,699.8931732211355
216,699.8695794885099
217,699.8462357808371
218,699.8230743493772
219,699.8000294821596
220,699.7770380695106
221,699.7540401055819
222,699.730979123465
223,699.7078025633012
224,699.6844620745434
225,699.6609137549599
226,699.6371183298019
227,699.6130412747908
228,699.5886528865674
229,699.5639283043279
230,699.5388474869405
231,699.5133951510766
232,699.4875606774627
233,699.4613379933388
234,699.4347254386098
235,699.4077256207236
236,699.3803452599022
237,699.3525950235852
238,699.3244893476511
239,699.2960462417262
240,699.2672870758915
241,699.2382363463237
242,699.208921418172
243,699.1793722451489
244,699.1496210664011
245,699.119702082023
246,699.0896511090543
247,699.059505219898
248,699.0293023648314
249,698.9990809801238
250,698.9688795837585
251,698.9387363621023
252,698.9086887525793
253,698.8787730286954
254,698.8490238942909
255,698.8194740940588
256,698.7901540474743
257,698.7610915131831
258,698.7323112903085
259,698.7038349620747
260,698.6756806857767
261,698.647863031515
262,698.6203928704269
263,698.5932773115886
264,698.5665196853972
265,698.5401195700657
266,698.514072857035
267,698.4883718506859
268,698.4630053975816
269,698.4379590404662
270,698.4132151925003
271,698.388753327863
272,698.3645501857877
273,698.3405799859472
274,698.3168146535737
275,698.293224052791
276,698.2697762265726
277,698.2464376417045
278,698.2231734370961
279,698.1999476736793
280,698.1767235842284
281,698.1534638223038
282,698.1301307110956
283,698.1066864942899
284,698.0830935913683
285,698.0593148590206
286,698.0353138589602
287,698.0110551304379
288,697.9865044632662
289,697.9616291649925
290,697.9363983149743
291,697.9107829987687
292,697.8847565177265
293,697.858294570291
294,697.8313754031784
295,697.8039799326074
296,697.7760918378214
297,697.7476976306815
298,697.7187867056916
299,697.6893513744319
300,697.659386887316
301,697.6288914442307
302,697.5978661943233
303,697.5663152243292
304,697.5342455347512
305,697.5016670039553
306,697.4685923413845
307,697.4350370321332
308,697.4010192757398
309,697.366559921944
310,697.3316824052096
311,697.2964126785278
312,697.2607791462033
313,697.2248125953273
314,697.1885461260157
315,697.1520150805716
316,697.1152569714138
317,697.0783114073433
318,697.0412200178786
319,697.0040263757921
320,696.9667759180452
321,696.9295158649373
322,696.8922951369173
323,696.8551642684018
324,696.8181753178109
325,696.7813817725863
326,696.7448384475728
327,696.70860137532
328,696.6727276875098
329,696.6372754871905
330,696.6023037115323
331,696.5678719846486
332,696.5340404598782
333,696.5008696507552
334,696.4684202497449
335,696.4367529338729
336,696.4059281568204
337,696.3760059277621
338,696.3470455779367
339,696.3191055165191
340,696.2922429777143
341,696.2665137610145
342,696.2419719662416
343,696.2186697244074
344,696.1966569247151
345,696.1759809376439
346,696.1566863344412
347,696.1388146043876
348,696.1224038724067
349,696.1074886206511
350,696.0940994185485
351,696.082262666441
352,696.0720003582554
353,696.063329868381
354,696.0562637669882
355,696.0508096667782
356,696.0469701032988
357,696.0447424508255
358,696.0441188760412
359,696.0450863319721
360,696.0476265946361
361,696.0517163444284
362,696.0573272932735
363,696.064426357349
364,696.0729758743486
365,696.0829338639677
366,696.0942543301728
367,696.106887603323
368,696.1207807193357
369,696.1358778323133
370,696.1521206566867
371,696.1694489346042
372,696.1878009235295
373,696.207113898032
374,696.2273246592158
375,696.2483700452399
376,696.270187436475
377,696.292715248822
378,696.3158934090116
379,696.3396638066126
380,696.3639707184531
381,696.3887612012719
382,696.413985447442
383,696.439597097416
384,696.4655535023605
385,696.4918159318328
386,696.5183497238876
387,696.5451243776433
388,696.5721135903857
389,696.5992952426591
390,696.6266513355107
391,696.6541678840719
392,696.6818347713262
393,696.7096455658315
394,696.7375973075042
395,696.7656902659822
396,696.7939276762704
397,696.8223154563959
398,696.8508619116583
399,696.8795774296156
400,696.9084741692367
401,696.9375657467942
402,696.9668669201462
403,696.9963932722914
404,697.026160894803
405,697.0561860719581
406,697.0864849668802
407,697.117073311803
408,697.1479661055471
409,697.1791773220953
410,697.2107196343861
411,697.2426041570629
412,697.2748402109775
413,697.3074351110383
414,697.3403939780452
415,697.373719574818
416,697.4074121670521
417,697.4414694095337
418,697.4758862584732
419,697.5106549108187
420,697.5457647716472
421,697.5812024509617
422,697.6169517908477
423,697.6529939226086
424,697.6893073517585
425,697.7258680675138
426,697.7626496730643
427,697.7996235332342
428,697.8367589368121
429,697.8740232716694
430,697.9113822118497
431,697.9487999169971
432,697.9862392453556
433,698.023661981634
434,698.0610290803984
435,698.09830092492
436,698.1354376009693
437,698.1723991847724
438,698.2091460440114
439,698.2456391504493
440,698.2818404023749
441,698.317712954157
442,698.3532215486656
443,698.3883328469356
444,698.4230157490831
445,698.4572417011952
446,698.4909849839808
447,698.5242229797334
448,698.5569364142942
449,698.5891095702152
450,698.6207304666351
451,698.6517910011582
452,698.6822870494569
453,698.712218518879
454,698.7415893527527
455,698.7704074827369
456,698.7986847279439
457,698.8264366416978
458,698.8536823094148
459,698.8804441036839
460,698.9067474044147
461,698.9326202922041
462,698.958093221963
463,698.9831986823357
464,699.0079708456316
465,699.032445213068
466,699.05665826033
467,699.0806470880412
468,699.1044490806431
469,699.1281015757681
470,699.1516415447019
471,699.1751052831654
472,699.1985281108165
473,699.2219440780868
474,699.2453856803945
475,699.2688835818282
476,699.2924663522969
477,699.3161602236005
478,699.3399888710876
479,699.363973228497
480,699.3881313437256
481,699.4124782822154
482,699.4370260826031
483,699.4617837669197
484,699.4867574054234
485,699.5119502340615
486,699.5373628204908
487,699.5629932728388
488,699.5888374842891
489,699.6148894061661
490,699.6411413421979
491,699.6675842567399
492,699.694208089682
493,699.7210020705464
494,699.747955024223
495,699.7750556612489
496,699.8022928466715
497,699.829655843286
498,699.8571345271442
499,699.8847195750003
500,699.9124026240247
501,699.9401764035701
502,699.968034837643
503,699.9959731158666
504,700.0239877305025
505,700.0520764774789
506,700.0802384201447
507,700.1084738154119
508,700.1367840027514
509,700.1651712568514
510,700.1936386046267
511,700.2221896072937
512,700.2508281091123
513,700.2795579562744
514,700.3083826915758
515,700.3373052319031
516,700.3663275359494
517,700.3954502697692
518,700.4246724785474
519,700.4539912739205
520,700.4834015462386
521,700.5128957096027
522,700.542463484642
523,700.5720917209973
524,700.6017642592947
525,700.6314618309503
526,700.6611619928453
527,700.690839092891
528,700.7204642626479
529,700.750005434944
530,700.7794273872194
531,700.8086918137428
532,700.8377574308784
533,700.8665801192577
534,700.8951131058677
535,700.9233071881395
536,700.9511110008641
537,700.9784713251667
538,701.0053334375738
539,701.031641496818
540,701.0573389659245
541,701.082369066708
542,701.1066752630338
543,701.1302017683338
544,701.1528940721417
545,701.1746994798789
546,701.1955676597684
547,701.2154511906291
548,701.2343061044692
549,701.2520924181902
550,701.2687746491507
551,701.2843223097651
552,701.2987103767268
553,701.311919730873
554,701.3239375642775
555,701.3347577518824
556,701.3443811856528
557,701.352816069829
558,701.3600781765914
559,701.3661910622159
560,701.3711862438978
561,701.3751033362362
562,701.3779901442298
563,701.3799027074829
564,701.3809052888541
565,701.3810703002761
566,701.3804781591501
567,701.3792170705021
568,701.3773827322285
569,701.3750779623941
570,701.3724122484308
571,701.3695012187253
572,701.3664660380853
573,701.3634327301423
574,701.3605314316114
575,701.3578955849044
576,701.3556610765526
577,701.3539653294071
578,701.3529463573013
579,701.3527417923565
580,701.3534878972721
581,701.3553185767662
582,701.3583644026708
583,701.362751665763
584,701.3686014649196
585,701.3760288415139
586,701.3851419644682
587,701.3960413690452
588,701.4088192508005
589,701.423558815914
590,701.4403336902227
591,701.4592073904888
592,701.4802328618283
593,701.5034520850951
594,701.528895757912
595,701.5565830527346
596,701.5865214543043
597,701.6187066772256
598,701.6531226627785
599,701.6897416526594
600,701.728524335993
601,701.7694200646463
602,701.812367131013
603,701.8572931025652
604,701.904115208623
605,701.9527407760584
606,702.0030677109589
607,702.0549850226255
608,702.1083733853952
609,702.16310573311
610,702.2190478806084
611,702.2760591664935
612,702.3339931116318
613,702.3926980881961
614,702.4520179946118
615,702.511792932819
616,702.5718598859199
617,702.6320533962017
618,702.692206245008
619,702.7521501362957
620,702.8117163846726
621,702.8707366062844
622,702.9290434075705
623,702.9864710639594
624,703.0428561794753
625,703.0980383192052
626,703.1518606085621
627,703.2041702954289
628,703.2548192733739
629,703.3036645659665
630,703.350568773461
631,703.3954004837683
632,703.4380346501194
633,703.4783529383786
634,703.5162440473578
635,703.5516040052196
636,703.5843364440732
637,703.6143528537464
638,703.6415728151064
639,703.6659242131713
640,703.6873434300243
641,703.7057755166473
642,703.7211743410592
643,703.7335027081137
644,703.7427324450829
645,703.748844447659
646,703.751828683135
647,703.7516841500585
648,703.7484187956517
649,703.7420493937485
650,703.7326013872693
651,703.7201087002284
652,703.7046135247103
653,703.6861660881415
654,703.6648244057774
655,703.6406540227816
656,703.6137277494335
657,703.5841253916104
658,703.5519334769789
659,703.517244975888
660,703.4801590150065
661,703.4407805808768
662,703.3992202096492
663,703.3555936586739
664,703.310021555675
665,703.2626290218424
666,703.2135452662677
667,703.1629031506845
668,703.1108387252822
669,703.0574907382913
670,703.0030001238338
671,702.9475094735474
672,702.8911624971223
673,702.8341034753633
674,702.7764767077655
675,702.718425955938
676,702.6600938850448
677,702.6016215072168
678,702.5431476323339
679,702.4848083319115
680,702.4267364214254
681,702.3690609659661
682,702.3119068137961
683,702.2553941619068
684,702.1996381567775
685,702.1447485323847
686,702.0908292865344
687,702.0379783958186
688,701.9862875686865
689,701.935842035347
690,701.8867203729201
691,701.8389943644712
692,701.7927288908112
693,701.7479818535443
694,701.7048041267944
695,701.6632395341809
696,701.6233248478886
697,701.5850898083013
698,701.5485571650531
699,701.5137427424654
700,701.480655533204
701,701.4492978234558
702,701.4196653516768
703,701.3917475016725
704,701.3655275295087
705,701.3409828225653
706,701.3180851884625
707,701.296801171796
708,701.2770923968351
709,701.2589159336491
710,701.2422246836021
711,701.2269677786802
712,701.2130909883379
713,701.2005371275355
714,701.1892464601824
715,701.1791570929868
716,701.170205355321
717,701.162326160916
718,701.1554533473626
719,701.1495199899856
720,701.1444586876854
721,701.1402018194076
722,701.1366817707573
723,701.1338311309778
724,701.1315828611521
725,701.1298704348211
726,701.1286279518058
727,701.127790224765
728,701.1272928365735
729,701.1270721659478
730,701.1270653793454
731,701.1272103886118
732,701.1274457753692
733,701.1277106843173
734,701.1279446886941
735,701.1280876324281
736,701.1280794546507
737,701.1278600025308
738,701.1273688379258
739,701.1265450429538
740,701.1253270298673
741,701.1236523613375
742,701.1214575879699
743,701.1186781103379
744,701.1152480730601
745,701.1111002983495
746,701.1061662657814
747,701.1003761437826
748,701.0936588767843
749,701.0859423302853
750,701.0771534943038
751,701.0672187440045
752,701.056064154744
753,701.0436158672342
754,701.0298004967669
755,701.0145455785891
756,700.9977800399762
757,700.9794346887039
758,700.9594427076578
759,700.9377401463883
760,700.9142664023121
761,700.8889646861851
762,700.8617824675525
763,700.8326718958177
764,700.8015901917387
765,700.7685000032874
766,700.7333697196262
767,700.6961737379795
768,700.6568926802026
769,700.6155135580467
770,700.572029887653
771,700.5264417543955
772,700.4787558290428
773,700.4289853360387
774,700.3771499752661
775,700.3232758002003
776,700.2673950572691
777,700.2095459927244
778,700.1497726341061
779,700.0881245536191
780,700.0246566206008
781,699.9594287496229
782,699.8925056495782
783,699.8239565775092
784,699.7538550994074
785,699.6822788591612
786,699.6093093561658
787,699.535031731441
788,699.4595345614381
789,699.3829096584101
790,699.3052518764719
791,699.2266589230529
792,699.1472311759012
793,699.0670715058965
794,698.9862851058821
795,698.9049793255907
796,698.8232635120825
797,698.7412488537635
798,698.6590482248796
799,698.5767760274207
800,698.4945480285423
801,698.412481192732
802,698.3306935081267
803,698.2493038059328
804,698.1684315715755
805,698.0881967460169
806,698.008719515238
807,697.9301200854969
808,697.8525184422549
809,697.7760340917135
810,697.7007857853363
811,697.6268912291459
812,697.5544667810206
813,697.4836271410392
814,697.4144850421803
815,697.3471509505081
816,697.2817327843617
817,697.2183356607774
818,697.1570616752007
819,697.0980097185039
820,697.041275333833
821,696.9869506146188
822,696.9351241437372
823,696.885880972066
824,696.8393026327215
825,696.7954671854478
826,696.75444928437
827,696.7163202617577
828,696.6811482202206
829,696.6489981252154
830,696.6199318887352
831,696.5940084341844
832,696.571283732525
833,696.5518108010325
834,696.5356396578934
835,696.5228172281431
836,696.51338719955
837,696.5073898313119
838,696.5048617229519
839,696.5058355540157
840,696.5103398061158
841,696.5183984777542
842,696.5300308002567
843,696.545250961174
844,696.5640678401808
845,696.5864847616717
846,696.6124992675514
847,696.6421029130802
848,696.6752810883829
849,696.7120128683066
850,696.7522708930924
851,696.7960212811788
852,696.8432235736585
853,696.8938307085084
854,696.9477890225444
855,697.0050382800279
856,697.0655117283245
857,697.129136182509
858,697.1958321420412
859,697.2655139432632
860,697.3380899511955
861,697.4134627929303
862,697.4915296330146
863,697.5721824889534
864,697.6553085827923
865,697.7407907229659
866,697.8285077093323
867,697.9183347536609
868,698.0101439081011
869,698.1038044951978
870,698.1991835341299
871,698.2961461582381
872,698.3945560187003
873,698.494275669196
874,698.5951669270961
875,698.6970912079216
876,698.7999098311523
877,698.903484296994
878,699.0076765354504
879,699.1123491304294
880,699.2173655219528
881,699.322590188759
882,699.4278888122479
883,699.5331284214767
884,699.638177518059
885,699.7429061793686
886,699.8471861384345
887,699.9508908394843
888,700.0538954692704
889,700.156076966003
890,700.2573140094872
891,700.3574869973404
892,700.4564780125867
893,700.5541707875957
894,700.6504506685669
895,700.7452045840515
896,700.8383210208874
897,700.9296900115029
898,701.019203137337
899,701.1067535535261
900,701.1922360397368
901,701.2755470811372
902,701.3565849822689
903,701.435250015281
904,701.5114446026115
905,701.5850735325331
906,701.6560442042593
907,701.7242668983739
908,701.7896550686967
909,701.8521256526722
910,701.9115993978523
911,701.9680012017263
912,702.0212604616088
913,702.0713114310454
914,702.1180935792439
915,702.1615519501114
916,702.2016375173738
917,702.2383075319476
