frame_number,force
0,702.389282000418
1,702.1520494022573
2,701.9177741502549
3,701.689352559509
4,701.4695611659123
5,701.2610022013669
6,701.0660547560493
7,700.8868327123487
8,700.7251503051415
9,700.5824959506989
10,700.4600146709046
11,700.3584990499131
12,700.2783883105008
13,700.2197748385671
14,700.1824172894015
15,700.1657592854767
16,700.1689527323891
17,700.1908849555973
18,700.2302091004933
19,700.2853773975722
20,700.3546768671135
21,700.4362668313335
22,700.528217352616
23,700.6285475700632
24,700.7352629024875
25,700.8463901970572
26,700.9600101033918
27,701.074286198826
28,701.1874906200542
29,701.298026136004
30,701.404444710188
31,701.50546262645
32,701.599972209954
33,701.6870501351306
34,701.765962309121
35,701.8361653304361
36,701.8973045549716
37,701.9492089144234
38,701.9918828216314
39,702.0254956322296
40,702.0503690886517
41,702.066963001885
42,702.0758593060491
43,702.0777446431243
44,702.0733917098146
45,702.0636395924845
46,702.0493732239993
47,702.0315020280335
48,702.0109378725798
49,701.9885726510344
50,701.9652560751013
51,701.9417744785565
52,701.9188314964017
53,701.8970313865639
54,701.8768655715255
55,701.8587027917687
56,701.8427831349333
57,701.8292161100375
58,701.8179828130317
59,701.8089420568692
60,701.8018401640652
61,701.7963240035725
62,701.791956789272
63,701.7882360813094
64,701.7846133354834
65,701.7805142942003
66,701.7753595273592
67,701.76858446336
68,701.7596582743199
69,701.7481010157711
70,701.7334984655844
71,701.7155141473269
72,701.693898112913
73,701.6684922728875
74,701.6392323818018
75,701.6061470930129
76,701.5693546571466
77,701.5290577724062
78,701.4855368319741
79,701.4391415027012
80,701.3902804071743
81,701.339408777251
82,701.2870142248237
83,701.233601044485
84,701.1796736093976
85,701.1257194838013
86,701.0721929316771
87,701.0194995625754
88,700.9679828856039
89,700.9179135214918
90,700.8694817521585
91,700.8227939497107
92,700.7778732003898
93,700.7346641524599
94,700.6930418285258
95,700.6528238687406
96,700.6137853966134
97,700.5756754559711
98,700.5382338507561
99,700.5012073013318
100,700.4643640810467
101,700.4275065907642
102,700.3904815386031
103,700.3531874832416
104,700.315579548471
105,700.2776712165148
106,700.2395332778736
107,700.2012902205486
108,700.1631145348476
109,700.1252195577929
110,700.0878515959913
111,700.0512821701983
112,700.0158012438856
113,699.9817120938852
114,699.9493280472715
115,699.9189708420573
116,699.8909700933352
117,699.8656633012938
118,699.8433958892443
119,699.8245207907278
120,699.809397115615
121,699.798387467497
122,699.7918535945919
123,699.7901502369921
124,699.7936172416298
125,699.8025702045934
126,699.8172900632305
127,699.8380121983745
128,699.8649156946962
129,699.8981134312772
130,699.9376436285858
131,699.9834633266826
132,700.0354440208076
133,700.0933694686607
134,700.1569356548398
135,700.2257530241452
136,700.2993511924631
137,700.3771862543481
138,700.4586505246772
139,700.5430842224583
140,700.6297884172061
141,700.7180385763552
142,700.8070981629618
143,700.8962318085806
144,700.9847176211147
145,701.0718582346382
146,701.1569902875881
147,701.2394921215025
148,701.3187896170429
149,701.3943602144808
150,701.4657352726191
151,701.5325009589573
152,701.5942978262847
153,701.6508191881285
154,701.7018084377537
155,701.7470555409967
156,701.7863929815226
157,701.8196914145622
158,701.8468552339536
159,701.8678182165492
160,701.8825393807866
161,701.8909991810762
162,701.8931961878587
163,701.8891445204075
164,701.8788724715715
165,701.8624228369804
166,701.8398552976525
167,701.8112508446452
168,701.7767178683707
169,701.7363993251566
170,701.6904803377423
171,701.6391955590241
172,701.582835555737
173,701.5217514300681
174,701.4563570106493
175,701.3871282207285
176,701.3145995883868
177,701.2393581962255
178,701.1620355789048
179,701.0832981312928
180,701.0038365371516
181,700.9243546338271
182,700.8455580298846
183,700.7681427123116
184,700.6927838191798
185,700.6201247002044
186,700.5507663492899
187,700.4852572855367
188,700.4240839769631
189,700.3676619406244
190,700.3163277240013
191,700.2703320622952
192,700.2298345748651
193,700.1949003879837
194,700.1654990399568
195,700.1415059151407
196,700.122706273504
197,700.1088017576561
198,700.0994191097872
199,700.0941206922224
200,700.0924162721193
201,700.0937754497896
202,700.0976401063257
203,700.1034362940204
204,700.1105850693078
205,700.1185118893274
206,700.1266543930434
207,700.134468662767
208,700.141434339481
209,700.1470591397043
210,700.1508833383614
211,700.1524846718505
212,700.1514839343054
213,700.1475513122158
214,700.1404132454019
215,700.1298593661224
216,700.1157489068399
217,700.0980158976007
218,700.076672495202
219,700.0518098994295
220,700.0235964979712
221,699.9922730968322
222,699.9581452989187
223,699.9215732840231
224,699.8829594224403
225,699.8427342893953
226,699.8013416912138
227,699.7592232714815
228,699.7168031883928
229,699.6744732998593
230,699.6325793187623
231,699.5914085392342
232,699.5511799305808
233,699.5120375053896
234,699.474047740211
235,699.4372014152879
236,699.4014196862405
237,699.3665637503675
238,699.3324472543371
239,699.2988505379017
240,699.2655358005865
241,699.2322623072248
242,699.198800864311
243,699.164946980297
244,699.1305322932498
245,699.0954339744337
246,699.0595818956076
247,699.0229633672353
248,698.9856252221418
249,698.9476730027859
250,698.9092670981863
251,698.8706158988423
252,698.8319663215449
253,698.7935922755528
254,698.7557817473408
255,698.718823230959
256,698.6829922773243
257,698.6485389522344
258,698.6156769361219
259,698.5845748717663
260,698.5553503927382
261,698.5280670574232
262,698.5027341943091
263,698.4793094667306
264,698.4577037974599
265,698.4377881557639
266,698.4194016239234
267,698.4023601375408
268,698.3864653105226
269,698.3715127931493
270,698.3572996864358
271,698.3436306692939
272,698.3303226687798
273,698.3172080610052
274,698.3041364840794
275,698.2909753755798
276,698.2776093502262
277,698.2639385367506
278,698.2498759926881
279,698.235344299898
280,698.2202714563343
281,698.2045863074276
282,698.1882139957359
283,698.1710721035315
284,698.1530681914645
285,698.1340993039207
286,698.1140537740561
287,698.0928153270601
288,698.0702690689695
289,698.0463085814947
290,698.0208431775145
291,697.993804442963
292,697.9651513903684
293,697.9348737670622
294,697.9029932910574
295,697.8695628660998
296,697.8346641198599
297,697.7984038198118
298,697.7609097849437
299,697.7223268278183
300,697.6828130742917
301,697.6425367787795
302,697.6016735362754
303,697.5604036440734
304,697.5189093452401
305,697.4773717975323
306,697.4359677868889
307,697.394866368285
308,697.3542257183245
309,697.3141904752098
310,697.274889707057
311,697.2364354642959
312,697.1989217625901
313,697.1624238627916
314,697.1269977930917
315,697.0926800934734
316,697.0594877359354
317,697.0274181548232
318,696.9964493696306
319,696.9665402659755
320,696.9376311317382
321,696.9096445047155
322,696.8824863468767
323,696.8560475588188
324,696.8302058369034
325,696.8048278143553
326,696.7797713705008
327,696.7548880200129
328,696.7300253894854
329,696.7050298542862
330,696.6797494003266
331,696.6540367320462
332,696.6277526027197
333,696.6007692925361
334,696.5729741071409
335,696.5442727459571
336,696.5145924229909
337,696.4838846959227
338,696.452128031123
339,696.4193301821606
340,696.3855304743428
341,696.3508020506677
342,696.3152540463068
343,696.2790335303056
344,696.2423269084286
345,696.205360390478
346,696.1683991583822
347,696.1317450109826
348,696.0957324323734
349,696.0607231844455
350,696.02709965353
351,695.9952572841049
352,695.9655964907007
353,695.9385144159371
354,695.9143967812818
355,695.8936099161438
356,695.8764929585974
357,695.8633502450355
358,695.8544439965134
359,695.8499875021688
360,695.8501390634977
361,695.8549969635686
362,695.8645956406691
363,695.8789031285212
364,695.8978197674677
365,695.92117822056
366,695.9487448802223
367,695.9802227438163
368,696.015255764805
369,696.0534346256534
370,696.0943038761824
371,696.13737037759
372,696.1821129118979
373,696.2279926950399
374,696.2744644695015
375,696.3209878656643
376,696.3670387367903
377,696.4121201622092
378,696.4557728416752
379,696.4975847174976
380,696.5371997775989
381,696.5743259658418
382,696.608741922218
383,696.6403020323855
384,696.6689391726683
385,696.6946646841342
386,696.7175654305814
387,696.7377981317138
388,696.7555814058628
389,696.77118609449
390,696.784924477785
391,696.7971389223103
392,696.8081903812803
393,696.8184470910552
394,696.8282738017652
395,696.8380218896975
396,696.8480206812545
397,696.8585702810234
398,696.8699361402133
399,696.8823455057228
400,696.8959857586997
401,696.9110045046785
402,696.9275111260647
403,696.9455793873586
404,696.9652506445289
405,696.9865372520776
406,697.0094258540769
407,697.0338803862795
408,697.059844792361
409,697.0872456059612
410,697.1159946156362
411,697.1459918007982
412,697.1771286140905
413,697.2092915317879
414,697.2423656816494
415,697.2762383421963
416,697.3108021627337
417,697.3459580221426
418,697.3816175001609
419,697.4177049877368
420,697.4541595360629
421,697.4909366156135
422,697.5280099337263
423,697.5653732868683
424,697.6030421879348
425,697.6410548502383
426,697.6794720874722
427,697.7183757731493
428,697.7578656395087
429,697.7980543584803
430,697.8390610432446
431,697.8810035243677
432,697.9239899177879
433,697.9681100403482
434,698.0134271568589
435,698.0599704538246
436,698.1077285903741
437,698.1566446539676
438,698.2066128149244
439,698.2574769398765
440,698.3090313751817
441,698.3610239755
442,698.4131612153882
443,698.4651150017212
444,698.5165307382138
445,698.5670362862725
446,698.6162516104965
447,698.6637989863654
448,698.7093136337865
449,698.7524545238545
450,698.7929149519496
451,698.8304323841375
452,698.8647970936503
453,698.8958591309731
454,698.9235331706453
455,698.9478008137048
456,698.9687100711428
457,698.986372017857
458,699.0009549464642
459,699.0126766880167
460,699.0217959810217
461,699.0286037555677
462,699.0334149719354
463,699.0365613695976
464,699.0383853136342
465,699.0392349019831
466,699.0394605017194
467,699.0394127982629
468,699.0394422602895
469,699.0398997007633
470,699.041137389683
471,699.0435099774254
472,699.0473743823072
473,699.0530878631482
474,699.0610037595185
475,699.0714647513801
476,699.084793840999
477,699.1012835497067
478,699.1211840793254
479,699.144691405649
480,699.1719363714074
481,699.2029757624219
482,699.2377861136442
483,699.2762607064416
484,699.3182099564133
485,699.3633651435451
486,699.4113851898909
487,699.4618659862878
488,699.5143516618483
489,699.568347180963
490,699.6233317003066
491,699.6787721712474
492,699.7341366919396
493,699.7889070968508
494,699.8425902685581
495,699.8947277244429
496,699.944903191628
497,699.9927481312034
498,700.0379454648718
499,700.0802319874807
500,700.1194000003153
501,700.1552985535271
502,700.1878344442853
503,700.2169729094003
504,700.242737840502
505,700.2652113294411
506,700.284532389847
507,700.3008947650478
508,700.3145437770899
509,700.3257721448983
510,700.3349146057403
511,700.3423411065706
512,700.3484484033686
513,700.353650139239
514,700.3583657545357
515,700.3630087544929
516,700.3679748827165
517,700.3736307516772
518,700.3803035818423
519,700.3882728404255
520,700.3977645784094
521,700.4089490298911
522,700.4219416092776
523,700.436806998743
524,700.4535657114892
525,700.4722023304591
526,700.4926744645068
527,700.5149213558618
528,700.5388711501714
529,700.5644461768748
530,700.591566082502
531,700.6201491015884
532,700.6501119775887
533,700.6813690657921
534,700.713831088616
535,700.747403940766
536,700.781987815679
537,700.8174767463412
538,700.8537585353401
539,700.890715053749
540,700.9282229365107
541,700.9661546973925
542,701.0043802225474
543,701.0427685207325
544,701.0811895431161
545,701.1195158462959
546,701.1576238556208
547,701.1953944984116
548,701.2327130299924
549,701.2694679566381
550,701.3055490416133
551,701.3408444541581
552,701.3752371860442
553,701.4086009200893
554,701.4407956095265
555,701.4716631182931
556,701.5010233481111
557,701.5286713338035
558,701.5543758587277
559,701.5778802102919
560,701.5989056512642
561,701.617157933076
562,701.6323367713181
563,701.6441477898375
564,701.6523161267743
565,701.6566007271022
566,701.656808356509
567,701.6528065494795
568,701.6445349369743
569,701.6320145498369
570,701.61535472939
571,701.5947572744559
572,701.5705175100003
573,701.5430221116854
574,701.5127437191018
575,701.4802325328192
576,701.4461051630399
577,701.4110310111784
578,701.3757165202934
579,701.3408878178545
580,701.307272576641
581,701.2755821814881
582,701.2464953344663
583,701.2206440137676
584,701.1986023310749
585,701.1808784472282
586,701.167909357642
587,701.1600580493671
588,701.1576123370036
589,701.1607847246152
590,701.1697128939057
591,701.1844606939326
592,701.2050196623853
593,701.2313111857422
594,701.2631894898877
595,701.3004457075793
596,701.3428132113921
597,701.389974250281
598,701.4415677739444
599,701.4971982049174
600,701.5564447983786
601,701.6188711119933
602,701.6840340524734
603,701.751492057699
604,701.8208122173103
605,701.8915763871164
606,701.9633864499093
607,702.035868813282
608,702.1086781295213
609,702.1815001415669
610,702.2540535056534
611,702.3260904292306
612,702.3973959949336
613,702.4677860902387
614,702.5371039351327
615,702.6052153452043
616,702.6720031022323
617,702.737361075172
618,702.8011889331749
619,702.86338831475
620,702.9238611177853
621,702.9825101586288
622,703.0392418881337
623,703.0939703516277
624,703.1466213682471
625,703.1971360145918
626,703.2454727657312
627,703.2916079404396
628,703.3355343860035
629,703.3772585870269
630,703.4167965395909
631,703.4541688014546
632,703.4893951732965
633,703.5224895250185
634,703.5534553170523
635,703.5822823037099
636,703.6089447328626
637,703.6334011658219
638,703.6555959318958
639,703.6754621999959
640,703.6929266048287
641,703.7079152180277
642,703.7203603806839
643,703.7302075940034
644,703.7374214710155
645,703.7419898312329
646,703.7439253496397
647,703.7432645675672
648,703.740064384459
649,703.7343963793368
650,703.7263395103175
651,703.7159718955555
652,703.7033624497478
653,703.6885631367055
654,703.6716025368014
655,703.6524813449918
656,703.6311702849715
657,703.6076107077001
658,703.581717873074
659,703.5533866859768
660,703.5224995019545
661,703.4889354749387
662,703.4525807660868
663,703.4133388285345
664,703.3711399742788
665,703.325949506312
666,703.2777738490641
667,703.2266643271614
668,703.1727185013468
669,703.1160792464477
670,703.0569320118117
671,702.9955008394211
672,702.932043633659
673,702.8668469188262
674,702.8002200476595
675,702.7324887049905
676,702.6639876652829
677,702.5950530284099
678,702.5260143738168
679,702.4571873200817
680,702.388866913696
681,702.321322204241
682,702.2547923201548
683,702.189484295933
684,702.12557277607
685,702.0632015600584
686,702.0024868219665
687,701.9435217432742
688,701.8863821984543
689,701.831133044293
690,701.7778345490007
691,701.7265485673432
692,701.6773441433108
693,701.6303021992566
694,701.5855188474773
695,701.5431067689258
696,701.5031941895776
697,701.4659212811246
698,701.4314342287055
699,701.3998775813002
700,701.3713856804748
701,701.346073924133
702,701.3240304717389
703,701.3053088396082
704,701.2899216786251
705,701.2778358811048
706,701.2689691082707
707,701.26318789396
708,701.2603075418922
709,701.2600939497132
710,701.2622672743825
711,701.2665071359268
712,701.2724589416806
713,701.2797409099776
714,701.287951448833
715,701.2966766528617
716,701.3054977529032
717,701.3139983557015
718,701.3217712990945
719,701.3284249961971
720,701.3335892508678
721,701.3369206364674
722,701.3381076008978
723,701.3368755036452
724,701.3329918195165
725,701.326271723211
726,701.3165841302668
727,701.3038580000895
728,701.288088406952
729,701.2693417098449
730,701.2477591757789
731,701.2235585712218
732,701.1970334128646
733,701.1685496998159
734,701.138540071805
735,701.1074955025658
736,701.0759547886815
737,701.0444921249398
738,701.0137029806061
739,700.9841884391672
740,700.9565382254892
741,700.9313127893143
742,700.9090249666599
743,700.8901218657667
744,700.8749677242695
745,700.8638285399587
746,700.8568592503494
747,700.8540941270908
748,700.8554408979293
749,700.8606789361704
750,700.8694616752327
751,700.8813232334296
752,700.8956890824263
753,700.9118904359502
754,700.9291818390419
755,700.9467612182467
756,700.9637914735812
757,700.9794226092923
758,700.9928134440696
759,701.0031521329191
760,701.0096750393184
761,701.0116837960842
762,701.0085605492587
763,700.9997813450153
764,700.9849274558453
765,700.9636942607867
766,700.9358972130759
767,700.9014745257379
768,700.8604864533244
769,700.8131113169686
770,700.7596385845426
771,700.7004593323688
772,700.6360543176102
773,700.5669797898599
774,700.4938511899578
775,700.4173250584512
776,700.3380797153269
777,700.2567954528155
778,700.1741350594727
779,700.0907254966575
780,700.0071414991502
781,699.923891755493
782,699.8414081282823
783,699.7600381254927
784,699.6800406020698
785,699.6015845204072
786,699.5247505129233
787,699.449534909595
788,699.3758558161694
789,699.3035608107907
790,699.232435896516
791,699.1622154681196
792,699.0925931527526
793,699.0232334290306
794,698.9537839477872
795,698.8838884810118
796,698.8132003433468
797,698.7413959371876
798,698.6681879019849
799,698.5933373630689
800,698.5166649610667
801,698.4380605180462
802,698.3574912212472
803,698.2750081288516
804,698.1907507446883
805,698.1049493700608
806,698.0179248635543
807,697.9300853705203
808,697.8419196202087
809,697.7539865462566
810,697.6669012056677
811,697.5813171925106
812,697.4979059690414
813,697.4173338300292
814,697.3402375784872
815,697.2672002928293
816,697.1987286454932
817,697.1352330572837
818,697.0770116614705
819,697.0242387632175
820,696.9769582782777
821,696.9350824803367
822,696.8983962053276
823,696.8665664176456
824,696.8391567611301
825,696.8156464547466
826,696.7954527095128
827,696.777955762652
828,696.7625255889603
829,696.7485492577464
830,696.7354577315051
831,696.7227507444712
832,696.7100183824933
833,696.6969581428234
834,696.6833865051949
835,696.6692443498694
836,696.6545959907677
837,696.6396222006875
838,696.6246082539669
839,696.6099284582543
840,696.596028741597
841,696.5834086395987
842,696.5726036571048
843,696.5641686335441
844,696.5586625032898
845,696.5566346899018
846,696.5586132475752
847,696.5650947583938
848,696.5765359556465
849,696.593347067601
850,696.6158868611186
851,696.6444592149504
852,696.6793108098427
853,696.7206293486776
854,696.7685417440229
855,696.8231119181285
856,696.8843381501378
857,696.95215020137
858,697.0264067074168
859,697.1068934899106
860,697.1933234657805
861,697.285338713415
862,697.3825150221521
863,697.4843689582598
864,697.5903671962868
865,697.6999376371444
866,697.8124816767379
867,697.9273869213674
868,698.0440397088097
869,698.1618369722879
870,698.2801971615995
871,698.3985699939685
872,698.5164447620375
873,698.6333569020492
874,698.7488926039531
875,698.8626913943076
876,698.974446786139
877,699.0839052757876
878,699.1908641798154
879,699.2951689590382
880,699.3967106647254
881,699.4954239539302
882,699.5912858451964
883,699.6843151246964
884,699.7745721138563
885,699.8621583747943
886,699.9472158678594
887,700.0299251073594
888,700.1105019950337
889,700.1891932282375
890,700.2662704193366
891,700.3420232317151
892,700.4167518827707
893,700.4907593003168
894,700.5643430967233
895,700.6377874208389
896,700.7113547439848
897,700.7852777501506
898,700.8597516558335
899,700.9349273869655
900,701.0109060454186
901,701.0877350135524
902,701.1654059126369
903,701.243854492803
904,701.3229623852967
905,701.4025604581461
906,701.4824333196808
907,701.5623244402937
908,701.6419414870628
909,701.7209616849638
910,701.799037157794
911,701.8758002131196
912,701.9508685056445
913,702.0238500229011
914,702.094347886622
915,702.1619650088196
916,702.2263086511889
917,702.2869949064594
