frame_number,force
0,702.38928200022
1,702.1520494020308
2,701.9177741499981
3,701.6893525592207
4,701.4695611655922
5,701.2610022010151
6,701.0660547556668
7,700.8868327119369
8,700.7251503047027
9,700.5824959502355
10,700.4600146704195
11,700.3584990494087
12,700.278388309979
13,700.2197748380303
14,700.1824172888521
15,700.1657592849174
16,700.1689527318231
17,700.190884955028
18,700.2302090999241
19,700.2853773970064
20,700.3546768665542
21,700.4362668307836
22,700.5282173520785
23,700.6285475695414
24,700.7352629019847
25,700.8463901965763
26,700.9600101029355
27,701.0742861983963
28,701.1874906196522
29,701.2980261356303
30,701.4044447098428
31,701.5054626261331
32,701.5999722096647
33,701.6870501348675
34,701.7659623088825
35,701.8361653302203
36,701.897304554777
37,701.9492089142485
38,701.9918828214747
39,702.0254956320894
40,702.0503690885256
41,702.0669630017711
42,702.0758593059452
43,702.0777446430283
44,702.0733917097242
45,702.0636395923973
46,702.0493732239129
47,702.0315020279455
48,702.010937872488
49,701.9885726509365
50,701.9652560749953
51,701.9417744784404
52,701.9188314962732
53,701.8970313864207
54,701.8768655713653
55,701.8587027915889
56,701.8427831347317
57,701.8292161098124
58,701.817982812782
59,701.8089420565946
60,701.8018401637656
61,701.7963240032489
62,701.7919567889256
63,701.7882360809423
64,701.7846133350979
65,701.7805142937985
66,701.7753595269428
67,701.7685844629301
68,701.7596582738777
69,701.7481010153177
70,701.7334984651217
71,701.7155141468571
72,701.6938981124385
73,701.668492272411
74,701.6392323813253
75,701.6061470925387
76,701.5693546566768
77,701.5290577719427
78,701.485536831519
79,701.4391415022566
80,701.3902804067416
81,701.3394087768315
82,701.2870142244183
83,701.2336010440941
84,701.1796736090217
85,701.1257194834404
86,701.0721929313307
87,701.0194995622426
88,700.9679828852833
89,700.9179135211822
90,700.8694817518592
91,700.8227939494215
92,700.777873200111
93,700.734664152192
94,700.6930418282694
95,700.6528238684963
96,700.613785396381
97,700.5756754557502
98,700.5382338505458
99,700.5012073011309
100,700.464364080854
101,700.4275065905784
102,700.390481538423
103,700.3531874830664
104,700.3155795483
105,700.2776712163472
106,700.2395332777087
107,700.201290220386
108,700.1631145346871
109,700.1252195576332
110,700.0878515958304
111,700.0512821700338
112,700.0158012437148
113,699.9817120937058
114,699.9493280470812
115,699.9189708418537
116,699.8909700931158
117,699.8656633010561
118,699.8433958889863
119,699.8245207904477
120,699.8093971153115
121,699.7983874671693
122,699.7918535942393
123,699.7901502366149
124,699.7936172412284
125,699.8025702041684
126,699.8172900627835
127,699.8380121979071
128,699.8649156942104
129,699.8981134307755
130,699.937643628071
131,699.9834633261584
132,700.0354440202784
133,700.0933694681313
134,700.1569356543151
135,700.2257530236304
136,700.2993511919628
137,700.3771862538665
138,700.4586505242182
139,700.5430842220256
140,700.6297884168029
141,700.718038575984
142,700.8070981626245
143,700.8962318082774
144,700.9847176208445
145,701.0718582343992
146,701.1569902873773
147,701.2394921213156
148,701.3187896168746
149,701.3943602143258
150,701.4657352724722
151,701.5325009588138
152,701.5942978261402
153,701.6508191879792
154,701.7018084375968
155,701.7470555408295
156,701.7863929813421
157,701.8196914143656
158,701.846855233738
159,701.8678182163115
160,701.8825393805246
161,701.890999180788
162,701.8931961875433
163,701.8891445200647
164,701.878872471203
165,701.8624228365886
166,701.8398552972413
167,701.8112508442186
168,701.7767178679331
169,701.7363993247128
170,701.6904803372971
171,701.639195558582
172,701.5828355553022
173,701.5217514296442
174,701.4563570102388
175,701.3871282203328
176,701.3145995880067
177,701.239358195861
178,701.1620355785554
179,701.0832981309575
180,701.0038365368285
181,700.9243546335142
182,700.8455580295797
183,700.7681427120121
184,700.6927838188834
185,700.6201246999088
186,700.5507663489932
187,700.4852572852374
188,700.4240839766597
189,700.3676619403159
190,700.3163277236866
191,700.270332061974
192,700.2298345745376
193,700.1949003876505
194,700.165499039619
195,700.1415059147992
196,700.1227062731592
197,700.1088017573086
198,700.0994191094369
199,700.094120691869
200,700.0924162717621
201,700.093775449428
202,700.097640105959
203,700.1034362936481
204,700.1105850689291
205,700.1185118889421
206,700.1266543926515
207,700.134468662369
208,700.1414343390784
209,700.1470591392989
210,700.1508833379552
211,700.1524846714456
212,700.1514839339034
213,700.147551311818
214,700.1404132450092
215,700.129859365736
216,700.115748906461
217,700.0980158972301
218,700.07667249484
219,700.0518098990759
220,700.0235964976254
221,699.9922730964926
222,699.9581452985836
223,699.9215732836915
224,699.8829594221115
225,699.8427342890691
226,699.8013416908906
227,699.7592232711617
228,699.7168031880768
229,699.6744732995477
230,699.6325793184553
231,699.5914085389319
232,699.551179930283
233,699.5120375050961
234,699.4740477399216
235,699.4372014150018
236,699.4014196859571
237,699.3665637500859
238,699.3324472540565
239,699.2988505376213
240,699.2655358003057
241,699.232262306943
242,699.1988008640278
243,699.1649469800122
244,699.1305322929632
245,699.0954339741453
246,699.0595818953182
247,699.0229633669462
248,698.9856252218549
249,698.9476730025037
250,698.9092670979118
251,698.8706158985784
252,698.8319663212948
253,698.793592275319
254,698.7557817471256
255,698.7188232307637
256,698.6829922771497
257,698.64853895208
258,698.6156769359866
259,698.5845748716483
260,698.5553503926353
261,698.5280670573328
262,698.5027341942289
263,698.479309466658
264,698.4577037973924
265,698.4377881556987
266,698.419401623858
267,698.4023601374722
268,698.3864653104476
269,698.3715127930648
270,698.3572996863383
271,698.3436306691801
272,698.3303226686468
273,698.3172080608506
274,698.3041364839017
275,698.2909753753784
276,698.2776093500012
277,698.2639385365028
278,698.2498759924187
279,698.2353442996086
280,698.2202714560275
281,698.2045863071058
282,698.188213995402
283,698.1710721031884
284,698.1530681911154
285,698.1340993035687
286,698.1140537737043
287,698.0928153267114
288,698.0702690686267
289,698.0463085811604
290,698.0208431771912
291,697.9938044426528
292,697.9651513900732
293,697.9348737667835
294,697.902993290797
295,697.8695628658586
296,697.8346641196385
297,697.7984038196106
298,697.7609097847621
299,697.7223268276556
300,697.6828130741466
301,697.6425367786499
302,697.6016735361587
303,697.5604036439668
304,697.5189093451395
305,697.4773717974333
306,697.4359677867864
307,697.3948663681737
308,697.3542257181989
309,697.3141904750645
310,697.2748897068869
311,697.2364354640971
312,697.1989217623595
313,697.1624238625271
314,697.1269977927924
315,697.0926800931393
316,697.0594877355676
317,697.027418154424
318,696.9964493692033
319,696.9665402655241
320,696.937631131267
321,696.9096445042292
322,696.8824863463801
323,696.8560475583171
324,696.8302058364017
325,696.8048278138587
326,696.779771370014
327,696.7548880195403
328,696.730025389031
329,696.7050298538534
330,696.6797493999181
331,696.6540367316641
332,696.6277526023653
333,696.6007692922095
334,696.5729741068412
335,696.5442727456823
336,696.5145924227382
337,696.4838846956889
338,696.4521280309037
339,696.4193301819511
340,696.3855304741381
341,696.3508020504631
342,696.315254046098
343,696.2790335300889
344,696.2423269082014
345,696.2053603902385
346,696.1683991581292
347,696.1317450107151
348,696.0957324320905
349,696.0607231841462
350,696.0270996532139
351,695.9952572837722
352,695.9655964903518
353,695.9385144155736
354,695.9143967809059
355,695.8936099157586
356,695.8764929582068
357,695.8633502446436
358,695.8544439961246
359,695.8499875017868
360,695.8501390631258
361,695.8549969632089
362,695.8645956403226
363,695.8789031281879
364,695.8978197671471
365,695.9211782202511
366,695.9487448799234
367,695.9802227435252
368,696.0152557645196
369,696.0534346253714
370,696.0943038759021
371,696.1373703773097
372,696.1821129116162
373,696.2279926947555
374,696.2744644692133
375,696.3209878653714
376,696.3670387364923
377,696.412120161906
378,696.4557728413664
379,696.4975847171829
380,696.5371997772777
381,696.5743259655136
382,696.6087419218829
383,696.6403020320447
384,696.6689391723235
385,696.6946646837877
386,696.7175654302355
387,696.737798131371
388,696.755581405526
389,696.7711860941615
390,696.784924477467
391,696.7971389220043
392,696.8081903809874
393,696.8184470907764
394,696.8282738015012
395,696.8380218894481
396,696.8480206810194
397,696.8585702808023
398,696.8699361400055
399,696.8823455055273
400,696.8959857585154
401,696.9110045045041
402,696.9275111258992
403,696.9455793872012
404,696.9652506443788
405,696.986537251934
406,697.0094258539389
407,697.0338803861464
408,697.0598447922324
409,697.0872456058369
410,697.1159946155153
411,697.1459918006803
412,697.1771286139751
413,697.2092915316744
414,697.2423656815366
415,697.276238342083
416,697.3108021626185
417,697.3459580220238
418,697.3816175000364
419,697.417704987605
420,697.4541595359226
421,697.4909366154633
422,697.5280099335647
423,697.5653732866944
424,697.6030421877479
425,697.6410548500379
426,697.6794720872575
427,697.7183757729198
428,697.7578656392633
429,697.798054358218
430,697.8390610429645
431,697.8810035240692
432,697.9239899174707
433,697.9681100400124
434,698.0134271565057
435,698.0599704534555
436,698.1077285899914
437,698.156644653574
438,698.2066128145229
439,698.2574769394712
440,698.3090313747767
441,698.3610239750999
442,698.4131612149971
443,698.4651150013424
444,698.5165307378498
445,698.5670362859256
446,698.6162516101684
447,698.6637989860573
448,698.7093136334993
449,698.7524545235884
450,698.7929149517041
451,698.8304323839118
452,698.8647970934436
453,698.8958591307843
454,698.9235331704726
455,698.9478008135469
456,698.9687100709983
457,698.9863720177245
458,699.0009549463424
459,699.0126766879041
460,699.0217959809171
461,699.02860375547
462,699.0334149718436
463,699.0365613695108
464,699.038385313551
465,699.0392349019023
466,699.0394605016398
467,699.0394127981832
468,699.0394422602077
469,699.0398997006769
470,699.0411373895895
471,699.043509977323
472,699.0473743821941
473,699.0530878630229
474,699.0610037593797
475,699.0714647512265
476,699.08479384083
477,699.101283549522
478,699.1211840791249
479,699.1446914054326
480,699.1719363711754
481,699.202975762175
482,699.2377861133826
483,699.2762607061659
484,699.3182099561243
485,699.3633651432438
486,699.4113851895781
487,699.4618659859646
488,699.5143516615157
489,699.5683471806221
490,699.6233316999587
491,699.6787721708936
492,699.734136691581
493,699.788907096488
494,699.8425902681904
495,699.8947277240693
496,699.9449031912469
497,699.9927481308135
498,700.0379454644722
499,700.0802319870706
500,700.1193999998943
501,700.1552985530947
502,700.187834443841
503,700.2169729089443
504,700.2427378400348
505,700.2652113289635
506,700.28453238936
507,700.3008947645534
508,700.3145437765895
509,700.3257721443935
510,700.3349146052323
511,700.3423411060606
512,700.3484484028583
513,700.3536501387305
514,700.3583657540318
515,700.3630087539964
516,700.3679748822301
517,700.3736307512031
518,700.3803035813826
519,700.3882728399823
520,700.3977645779842
521,700.4089490294853
522,700.4219416088923
523,700.4368069983792
524,700.4535657111478
525,700.4722023301408
526,700.4926744642124
527,700.514921355592
528,700.5388711499253
529,700.5644461766502
530,700.5915660822963
531,700.620149101398
532,700.650111977411
533,700.6813690656244
534,700.7138310884562
535,700.7474039406123
536,700.7819878155295
537,700.8174767461941
538,700.8537585351935
539,700.8907150536006
540,700.9282229363587
541,700.9661546972352
542,701.0043802223835
543,701.0427685205611
544,701.0811895429367
545,701.1195158461082
546,701.157623855425
547,701.195394498208
548,701.2327130297812
549,701.2694679564194
550,701.305549041387
551,701.3408444539243
552,701.3752371858029
553,701.4086009198404
554,701.4407956092699
555,701.471663118029
556,701.5010233478396
557,701.5286713335246
558,701.5543758584415
559,701.5778802099987
560,701.5989056509648
561,701.6171579327713
562,701.6323367710099
563,701.6441477895276
564,701.6523161264646
565,701.6566007267947
566,701.6568083562066
567,701.6528065491849
568,701.6445349366898
569,701.6320145495639
570,701.6153547291293
571,701.5947572742075
572,701.5705175097628
573,701.5430221114569
574,701.5127437188801
575,701.480232532602
576,701.446105162825
577,701.4110310109637
578,701.3757165200772
579,701.340887817635
580,701.3072725764162
581,701.2755821812556
582,701.2464953342238
583,701.2206440135132
584,701.1986023308071
585,701.1808784469462
586,701.167909357345
587,701.1600580490552
588,701.157612336678
589,701.1607847242777
590,701.1697128935589
591,701.1844606935792
592,701.2050196620288
593,701.2313111853861
594,701.2631894895355
595,701.3004457072345
596,701.342813211058
597,701.3899742499606
598,701.4415677736401
599,701.497198204632
600,701.5564447981147
601,701.6188711117532
602,701.684034052259
603,701.7514920575112
604,701.820812217149
605,701.8915763869804
606,701.9633864497964
607,702.0358688131892
608,702.1086781294448
609,702.1815001415029
610,702.2540535055981
611,702.3260904291809
612,702.3973959948866
613,702.4677860901918
614,702.5371039350842
615,702.6052153451535
616,702.6720031021785
617,702.7373610751143
618,702.8011889331121
619,702.8633883146799
620,702.9238611177053
621,702.9825101585357
622,703.0392418880247
623,703.0939703515
624,703.1466213680985
625,703.1971360144202
626,703.2454727655341
627,703.2916079402157
628,703.335534385752
629,703.3772585867474
630,703.4167965392837
631,703.4541688011199
632,703.4893951729345
633,703.5224895246291
634,703.5534553166357
635,703.5822823032664
636,703.6089447323932
637,703.6334011653283
638,703.6555959313812
639,703.6754621994639
640,703.6929266042838
641,703.7079152174746
642,703.7203603801279
643,703.7302075934498
644,703.7374214704695
645,703.7419898306997
646,703.7439253491241
647,703.7432645670735
648,703.7400643839907
649,703.7343963788965
650,703.7263395099067
651,703.7159718951747
652,703.703362449397
653,703.688563136384
654,703.671602536508
655,703.6524813447245
656,703.6311702847281
657,703.6076107074779
658,703.5817178728697
659,703.5533866857867
660,703.5224995017747
661,703.4889354747652
662,703.4525807659155
663,703.4133388283614
664,703.3711399741004
665,703.3259495061255
666,703.277773848867
667,703.2266643269511
668,703.1727185011214
669,703.1160792462057
670,703.0569320115515
671,702.9955008391414
672,702.9320436333592
673,702.8668469185064
674,702.8002200473203
675,702.7324887046328
676,702.6639876649084
677,702.5950530280209
678,702.5260143734164
679,702.457187319674
680,702.3888669132845
681,702.3213222038287
682,702.2547923197441
683,702.189484295526
684,702.1255727756687
685,702.0632015596649
686,702.0024868215834
687,701.9435217429043
688,701.8863821981
689,701.8311330439565
690,701.7778345486837
691,701.7265485670476
692,701.6773441430383
693,701.6303021990085
694,701.5855188472542
695,701.5431067687273
696,701.5031941894026
697,701.4659212809719
698,701.4314342285735
699,701.399877581187
700,701.3713856803785
701,701.3460739240514
702,701.3240304716695
703,701.3053088395482
704,701.2899216785714
705,701.2778358810549
706,701.2689691082219
707,701.2631878939102
708,701.2603075418398
709,701.2600939496573
710,701.2622672743228
711,701.2665071358634
712,701.2724589416139
713,701.2797409099079
714,701.2879514487612
715,701.2966766527882
716,701.3054977528287
717,701.3139983556268
718,701.3217712990198
719,701.3284249961224
720,701.3335892507923
721,701.3369206363897
722,701.338107600816
723,701.3368755035569
724,701.3329918194192
725,701.326271723102
726,701.3165841301433
727,701.3038579999492
728,701.2880884067936
729,701.2693417096673
730,701.2477591755821
731,701.2235585710064
732,701.1970334126314
733,701.1685496995665
734,701.138540071541
735,701.1074955022892
736,701.0759547883941
737,701.044492124643
738,701.0137029803019
739,700.9841884388578
740,700.9565382251781
741,700.9313127890046
742,700.9090249663547
743,700.8901218654694
744,700.8749677239834
745,700.863828539687
746,700.8568592500947
747,700.854094126855
748,700.8554408977138
749,700.8606789359762
750,700.8694616750598
751,700.8813232332773
752,700.8956890822933
753,700.9118904358345
754,700.929181838941
755,700.9467612181577
756,700.9637914735016
757,700.9794226092198
758,700.9928134440019
759,701.003152132854
760,701.009675039254
761,701.0116837960188
762,701.0085605491907
763,700.9997813449431
764,700.9849274557674
765,700.9636942607021
766,700.9358972129836
767,700.9014745256374
768,700.8604864532152
769,700.8131113168503
770,700.7596385844145
771,700.7004593322303
772,700.6360543174605
773,700.5669797896986
774,700.4938511897843
775,700.4173250582655
776,700.3380797151294
777,700.256795452607
778,700.1741350592541
779,700.0907254964297
780,700.0071414989146
781,699.9238917552512
782,699.841408128036
783,699.7600381252435
784,699.6800406018193
785,699.6015845201571
786,699.524750512675
787,699.4495349093495
788,699.3758558159276
789,699.303560810553
790,699.2324358962825
791,699.1622154678901
792,699.0925931525261
793,699.0232334288058
794,698.9537839475626
795,698.8838884807858
796,698.8132003431176
797,698.7413959369536
798,698.6681879017447
799,698.5933373628209
800,698.516664960809
801,698.4380605177766
802,698.3574912209633
803,698.2750081285515
804,698.19075074437
805,698.104949369723
806,698.0179248631966
807,697.9300853701429
808,697.8419196198132
809,697.7539865458454
810,697.6669012052439
811,697.5813171920776
812,697.497905968603
813,697.4173338295896
814,697.3402375780502
815,697.2672002923986
816,697.1987286450722
817,697.135233056875
818,697.0770116610762
819,697.0242387628388
820,696.9769582779145
821,696.9350824799878
822,696.8983962049916
823,696.8665664173211
824,696.8391567608154
825,696.81564645444
826,696.795452709213
827,696.7779557623581
828,696.7625255886718
829,696.7485492574625
830,696.735457731225
831,696.7227507441943
832,696.7100183822191
833,696.6969581425515
834,696.6833865049247
835,696.6692443495998
836,696.6545959904975
837,696.6396222004151
838,696.624608253691
839,696.6099284579734
840,696.5960287413099
841,696.583408639304
842,696.5726036568016
843,696.5641686332311
844,696.5586625029654
845,696.5566346895641
846,696.5586132472234
847,696.5650947580277
848,696.5765359552665
849,696.593347067208
850,696.6158868607133
851,696.6444592145332
852,696.6793108094137
853,696.7206293482371
854,696.7685417435719
855,696.8231119176683
856,696.8843381496705
857,696.9521502008978
858,697.0264067069417
859,697.1068934894348
860,697.1933234653062
861,697.2853387129443
862,697.3825150216873
863,697.4843689578026
864,697.5903671958391
865,697.6999376367072
866,697.8124816763116
867,697.9273869209521
868,698.044039708405
869,698.1618369718931
870,698.2801971612139
871,698.3985699935912
872,698.5164447616675
873,698.6333569016851
874,698.7488926035938
875,698.8626913939521
876,698.974446785786
877,699.0839052754359
878,699.1908641794637
879,699.2951689586852
880,699.39671066437
881,699.4954239535712
882,699.5912858448327
883,699.6843151243263
884,699.7745721134783
885,699.8621583744072
886,699.9472158674627
887,700.029925106953
888,700.1105019946183
889,700.1891932278144
890,700.2662704189074
891,700.3420232312818
892,700.4167518823356
893,700.4907592998826
894,700.5643430962929
895,700.6377874204154
896,700.7113547435712
897,700.7852777497493
898,700.8597516554458
899,700.9349273865919
900,701.0109060450588
901,701.0877350132063
902,701.1654059123039
903,701.2438544924827
904,701.3229623849878
905,701.4025604578471
906,701.4824333193897
907,701.5623244400083
908,701.6419414867813
909,701.7209616846841
910,701.7990371575145
911,701.875800212839
912,701.9508685053619
913,702.0238500226159
914,702.0943478863333
915,702.161965008527
916,702.2263086508929
917,702.286994906161
918,702.3436530559354
