frame_number,force
0,702.3892819918736
1,702.2897928607575
2,702.1908316686892
3,702.0929217151015
4,701.9965770878811
5,701.9022982223435
6,701.8105676477907
7,701.7218459723362
8,701.6365681518653
9,701.5551400838988
10,701.4779355604278
11,701.4052936058655
12,701.3375162184675
13,701.2748665265553
14,701.2175673643912
15,701.1658002667484
16,701.1197048769592
17,701.0793787607796
18,701.0448776167726
19,701.0162158715056
20,700.9933676435421
21,700.9762680541255
22,700.9648148561859
23,700.9588703485608
24,700.9582635395732
25,700.9627925230809
26,700.9722270305368
27,700.9863111239766
28,701.0047659964981
29,701.0272928483248
30,701.0535758077625
31,701.0832848670015
32,701.11607880299
33,701.1516080542766
34,701.1895175261388
35,701.2294492982096
36,701.2710452112001
37,701.3139493128405
38,701.3578101477227
39,701.4022828798048
40,701.4470312384722
41,701.4917292797899
42,701.5360629558808
43,701.5797314882395
44,701.6224485441822
45,701.6639432179852
46,701.7039608195029
47,701.742263474386
48,701.7786305425632
49,701.8128588655719
50,701.844762857808
51,701.8741744604249
52,701.900942978353
53,701.9249348205586
54,701.9460331620396
55,701.9641375442502
56,701.9791634292941
57,701.9910417220495
58,701.9997182727241
59,702.005153369945
60,702.0073212319485
61,702.0062095014453
62,702.0018187482559
63,701.9941619821328
64,701.983264176239
65,701.9691618002915
66,701.9519023616655
67,701.9315439522501
68,701.9081547982831
69,701.881812810002
70,701.8526051277079
71,701.820627660606
72,701.7859846151662
73,701.7487880115976
74,701.7091571901374
75,701.6672183118751
76,701.6231038602535
77,701.5769521482832
78,701.5289068332281
79,701.4791164367247
80,701.4277338662247
81,701.3749159345299
82,701.3208228771438
83,701.2656178700381
84,701.2094665519325
85,701.1525365557355
86,701.0949970542896
87,701.0370183261201
88,700.97877134711
89,700.9204274136672
90,700.8621578020653
91,700.8041334670073
92,700.7465247798591
93,700.6895013037476
94,700.6332315994858
95,700.5778830532663
96,700.523621714091
97,700.4706121263436
98,700.4190171418466
99,700.368997696991
100,700.3207125437483
101,700.2743179271478
102,700.2299672046835
103,700.187810404706
104,700.1479937220166
105,700.1106589506586
106,700.0759428565069
107,700.0439764952723
108,700.0148844844354
109,699.9887842400002
110,699.9657851909466
111,699.945987986101
112,699.9294837089851
113,699.9163531144575
114,699.9066658965585
115,699.9004799921184
116,699.8978409219244
117,699.8987811709992
118,699.9033196103088
119,699.9114609626372
120,699.9231953154595
121,699.9384976839794
122,699.9573276284877
123,699.9796289318721
124,700.0053293449918
125,700.0343404091666
126,700.0665573661767
127,700.1018591669291
128,700.1401085900471
129,700.1811524809314
130,700.2248221202694
131,700.2709337281439
132,700.3192891059073
133,700.3696764144021
134,700.4218710855636
135,700.475636864666
136,700.5307269803741
137,700.5868854375849
138,700.643848423733
139,700.7013458144519
140,700.7591027613802
141,700.8168413442224
142,700.87428226965
143,700.931146599818
144,700.9871574931224
145,701.0420419399416
146,701.0955324767202
147,701.1473688628051
148,701.197299705843
149,701.2450840231529
150,701.2904927279552
151,701.3333100301658
152,701.3733347415523
153,701.4103814751918
154,701.4442817302754
155,701.4748848551179
156,701.5020588827114
157,701.5256912339223
158,701.545689283941
159,701.5619807882808
160,701.5745141655212
161,701.5832586350599
162,701.588204209736
163,701.5893615458087
164,701.5867616560328
165,701.5804554937042
166,701.5705134149925
167,701.5570245240565
168,701.5400959025322
169,701.5198517237956
170,701.4964322529058
171,701.4699927339037
172,701.4407021663114
173,701.4087419731612
174,701.3743045649813
175,701.3375918080139
176,701.2988134095849
177,701.258185237789
178,701.2159275953884
179,701.1722634686448
180,701.1274167712714
181,701.0816106025372
182,701.0350655372098
183,700.987997963735
184,700.9406184858393
185,700.8931304014695
186,700.8457282717483
187,700.7985965916096
188,700.7519085729332
189,700.7058250502917
190,700.6604935189858
191,700.6160473147406
192,700.5726049438272
193,700.5302695712255
194,700.4891286726358
195,700.4492538534483
196,700.4107008342992
197,700.3735095993324
198,700.3377047002281
199,700.3032957061891
200,700.2702777873521
201,700.2386324170549
202,700.2083281773419
203,700.1793216517478
204,700.1515583895109
205,700.1249739261286
206,700.0994948469664
207,700.0750398834181
208,700.0515210340875
209,700.0288447054058
210,700.0069128663974
211,699.9856242113051
212,699.9648753221052
213,699.9445618208564
214,699.9245794995138
215,699.9048254128612
216,699.8851989191701
217,699.8656026532577
218,699.8459434177624
219,699.8261329806822
220,699.8060887703033
221,699.7857344620616
222,699.7650004551843
223,699.743824240069
224,699.7221506603021
225,699.6999320756227
226,699.6771284334459
227,699.6537072568316
228,699.6296435565919
229,699.6049196752203
230,699.5795250711462
231,699.5534560538413
232,699.5267154828967
233,699.4993124457402
234,699.471261927438
235,699.4425844815316
236,699.4133059046932
237,699.3834569129459
238,699.3530728147671
239,699.3221931757836
240,699.2908614696407
241,699.259124709883
242,699.2270330589206
243,699.1946394121087
244,699.1619989567938
245,699.1291687074834
246,699.0962070190723
247,699.0631730801518
248,699.0301263879207
249,698.9971262058848
250,698.9642310063699
251,698.9314979022153
252,698.8989820750368
253,698.866736209725
254,698.8348099458035
255,698.8032493565776
256,698.772096467242
257,698.7413888229916
258,698.7111591171988
259,698.6814348879303
260,698.6522382887285
261,698.6235859368397
262,698.5954888391818
263,698.567952393699
264,698.5409764614408
265,698.5145555027407
266,698.4886787695073
267,698.4633305450124
268,698.4384904223949
269,698.4141336132043
270,698.3902312778592
271,698.3667508711529
272,698.3436564976845
273,698.320909273698
274,698.2984676927331
275,698.2762879927456
276,698.2543245223353
277,698.2325301037388
278,698.2108563902628
279,698.1892542157182
280,698.1676739336515
281,698.1460657457562
282,698.1243800216727
283,698.1025676148053
284,698.0805801793283
285,698.0583704922972
286,698.0358927823582
287,698.0131030630514
288,697.9899594643442
289,697.9664225521977
290,697.9424556244174
291,697.9180249721823
292,697.8931000992458
293,697.8676538936086
294,697.8416627493959
295,697.8151066401502
296,697.7879691483672
297,697.7602374587716
298,697.7319023238076
299,697.7029580091007
300,697.6734022247215
301,697.6432360456417
302,697.6124638224409
303,697.5810930817204
304,697.5491344154882
305,697.5166013600345
306,697.4835102667668
307,697.4498801692373
308,697.415732651623
309,697.3810917236518
310,697.3459837052455
311,697.3104371218184
312,697.2744826096741
313,697.2381528308915
314,697.2014823976804
315,697.1645078062772
316,697.1272673798303
317,697.0898012191902
318,697.0521511607535
319,697.0143607411505
320,696.976475168641
321,696.938541300357
322,696.9006076238354
323,696.8627242410627
324,696.8249428529684
325,696.787316741491
326,696.7499007456165
327,696.7127512280789
328,696.6759260305158
329,696.6394844156929
330,696.6034869954431
331,696.5679956426545
332,696.5330733853567
333,696.4987842806584
334,696.4651932660131
335,696.4323659853877
336,696.4003685886836
337,696.3692675040213
338,696.3391291837637
339,696.3100198261897
340,696.2820050753808
341,696.2551497019415
342,696.2295172666475
343,696.20516976812
344,696.1821672744152
345,696.1605675377913
346,696.1404255926484
347,696.1217933385255
348,696.1047191122251
349,696.0892472550656
350,696.075417682841
351,696.0632654672714
352,696.0528204383501
353,696.0441068166035
354,696.0371428827024
355,696.031940689747
356,696.0285058221367
357,696.026837204758
358,696.0269269667345
359,696.0287603644496
360,696.0323157686287
361,696.0375647195883
362,696.0444720530696
363,696.0529960969991
364,696.0630889380947
365,696.074696756806
366,696.0877602289079
367,696.1022149912528
368,696.1179921676845
369,696.1350189497806
370,696.1532192264862
371,696.1725142561461
372,696.1928233731022
373,696.2140647193024
374,696.2361559904153
375,696.2590151859471
376,696.2825613529914
377,696.306715313183
378,696.3314003629094
379,696.3565429383816
380,696.3820732388401
381,696.4079258013122
382,696.4340400185449
383,696.4603605895776
384,696.486837892009
385,696.5134282673838
386,696.5400942154961
387,696.5668044979777
388,696.5935341550579
389,696.6202644417031
390,696.6469826905159
391,696.6736821087151
392,696.7003615158364
393,696.7270250285604
394,696.7536816995892
395,696.7803451181287
396,696.8070329797876
397,696.8337666336677
398,696.8605706141057
399,696.8874721636806
400,696.9145007527927
401,696.9416875995638
402,696.9690651921376
403,696.9966668140772
404,697.0245260730435
405,697.0526764332858
406,697.0811507533609
407,697.1099808318745
408,697.1391969657885
409,697.1688275272462
410,697.1988985653044
411,697.2294334383158
412,697.2604524810918
413,697.2919727088869
414,697.3240075586278
415,697.3565666672772
416,697.3896556874986
417,697.4232761412153
418,697.4574253119396
419,697.492096177006
420,697.5272773813335
421,697.5629532548232
422,697.5991038749169
423,697.6357051735683
424,697.6727290848961
425,697.7101437276771
426,697.7479136162849
427,697.7859998943296
428,697.8243605865038
429,697.8629508656894
430,697.9017233343085
431,697.9406283210541
432,697.9796141957071
433,698.0186277049067
434,698.0576143306643
435,698.0965186721523
436,698.1352848505647
437,698.1738569363688
438,698.2121793977116
439,698.2501975682045
440,698.2878581316442
441,698.3251096196186
442,698.3619029152397
443,698.3981917537852
444,698.4339332103725
445,698.4690881659965
446,698.5036217451158
447,698.5375037192705
448,698.5707088714072
449,698.6032173146847
450,698.6350147582632
451,698.6660927121355
452,698.6964486237559
453,698.7260859401539
454,698.7550140898801
455,698.7832483802301
456,698.8108098075581
457,698.8377247821995
458,698.8640247740825
459,698.8897458896271
460,698.914928393621
461,698.939616190223
462,698.9638562752388
463,698.9876981691225
464,699.0111933386868
465,699.0343946156133
466,699.0573556202015
467,699.0801301980399
468,699.102771875348
469,699.1253333362339
470,699.1478659224877
471,699.1704191541302
472,699.1930402674736
473,699.2157737678514
474,699.2386609966903
475,699.2617397162483
476,699.2850437186999
477,699.3086024688555
478,699.3324407919624
479,699.356578619702
480,699.3810308077891
481,699.4058070367577
482,699.4309118039421
483,699.4563445105407
484,699.4820996437994
485,699.5081670506963
486,699.534532295903
487,699.5611770937344
488,699.5880798018906
489,699.6152159640831
490,699.6425588886636
491,699.6700802505563
492,699.6977507036976
493,699.7255404908062
494,699.75342003719
495,699.7813605161012
496,699.8093343751248
497,699.8373158161597
498,699.8652812252354
499,699.8932095514904
500,699.9210826357953
501,699.9488854884933
502,699.976606513713
503,700.0042376761442
504,700.0317746057407
505,700.0592166364564
506,700.0865667764363
507,700.1138316087115
508,700.1410211228389
509,700.1681484784863
510,700.1952297017394
511,700.2222833149225
512,700.249329902271
513,700.2763916170933
514,700.3034916398494
515,700.3306535990354
516,700.3579009674377
517,700.385256446684
518,700.4127413543879
519,700.440375029904
520,700.4681742748422
521,700.4961528417845
522,700.5243209796577
523,700.5526850389787
524,700.5812471364133
525,700.61000487562
526,700.6389511191329
527,700.6680738043232
528,700.6973557968195
529,700.7267747779994
530,700.7563031681532
531,700.7859080912854
532,700.8155513894288
533,700.8451896938819
534,700.874774559383
535,700.9042526657082
536,700.9335660890491
537,700.9626526428113
538,700.9914462854537
539,701.0198775923752
540,701.0478742887618
541,701.0753618396338
542,701.1022640920295
543,701.1285039627918
544,701.1540041641837
545,701.1786879586458
546,701.202479933411
547,701.2253067854683
548,701.2470981076644
549,701.267787167403
550,701.2873116701415
551,701.3056145005972
552,701.3226444352446
553,701.3383568203795
554,701.3527142109447
555,701.3656869664964
556,701.3772538017805
557,701.3874022903129
558,701.3961293205365
559,701.403441505349
560,701.409355545823
561,701.4138985477118
562,701.4171082854048
563,701.41903340405
564,701.4197335478133
565,701.419279401194
566,701.4177526313412
567,701.4152457222849
568,701.4118616956146
569,701.4077137148428
570,701.4029245721036
571,701.3976260568073
572,701.3919582074863
573,701.3860684507016
574,701.38011063402
575,701.374243962739
576,701.3686318516138
577,701.3634407036473
578,701.358838629183
579,701.354994121111
580,701.3520747057468
581,701.3502455921121
582,701.3496683429252
583,701.3504995880877
584,701.3528897970677
585,701.3569821219019
586,701.3629113181596
587,701.3708027471592
588,701.3807714598701
589,701.3929213626494
590,701.4073444670119
591,701.4241202278585
592,701.4433149754107
593,701.4649814459909
594,701.4891584167488
595,701.5158704490419
596,701.5451277435252
597,701.5769261073071
598,701.61124703084
599,701.6480578698878
600,701.6873121257067
601,701.7289498144454
602,701.7728979154266
603,701.8190708883757
604,701.8673712518728
605,701.9176902176963
606,701.9699083764505
607,702.023896428877
608,702.0795159558531
609,702.1366202190437
610,702.1950549835398
611,702.2546593537228
612,702.3152666140793
613,702.376705067427
614,702.4387988640837
615,702.5013688174515
616,702.5642332044928
617,702.627208553022
618,702.6901104204084
619,702.7527541689687
620,702.8149557415292
621,702.8765324363741
622,702.9373036749233
623,702.9970917502649
624,703.0557225427344
625,703.1130261904227
626,703.168837705959
627,703.2229975346607
628,703.2753520527928
629,703.3257540078582
630,703.3740629049474
631,703.4201453442477
632,703.4638753155748
633,703.5051344566772
634,703.54381228265
635,703.579806393234
636,703.6130226629224
637,703.6433754167211
638,703.6707875932074
639,703.6951908961837
640,703.7165259357014
641,703.7347423575176
642,703.7497989568874
643,703.761663768884
644,703.7703141251483
645,703.7757366677494
646,703.7779273144523
647,703.7768911740441
648,703.772642413762
649,703.7652040833323
650,703.7546079022427
651,703.7408940184939
652,703.7241107477353
653,703.7043143014114
654,703.6815685117281
655,703.6559445602014
656,703.6275207149937
657,703.5963820797134
658,703.5626203532628
659,703.5263335977252
660,703.487626009534
661,703.4466076875968
662,703.4033943903913
663,703.3581072729814
664,703.3108725949551
665,703.2618213913316
666,703.2110891003966
667,703.1588151451083
668,703.105142467908
669,703.050217022163
670,702.9941872266453
671,702.937203391261
672,702.879417121607
673,702.8209807072836
674,702.7620464960635
675,702.7027662549095
676,702.6432905203545
677,702.5837679439558
678,702.5243446411447
679,702.4651635524478
680,702.4063638254244
681,702.3480802249579
682,702.290442579061
683,702.2335752665979
684,702.1775967518352
685,702.1226191687947
686,702.068747956747
687,702.0160815469239
688,701.9647110991868
689,701.914720286129
690,701.8661851216448
691,701.8191738314825
692,701.7737467638203
693,701.7299563372932
694,701.687847022132
695,701.6474553486456
696,701.6088099378406
697,701.571931551909
698,701.5368331665907
699,701.5035200712064
700,701.4719900037459
701,701.4422333275088
702,701.4142332536459
703,701.3879661117229
704,701.3634016682357
705,701.3405034909498
706,701.3192293559318
707,701.2995316945238
708,701.2813580779014
709,701.2646517356446
710,701.2493521020622
711,701.2353953813958
712,701.2227151216458
713,701.211242786704
714,701.2009083174114
715,701.1916406735083
716,701.1833683494687
717,701.1760198575317
718,701.1695241714816
719,701.16381112571
720,701.1588117658515
721,701.1544586491037
722,701.1506860937919
723,701.1474303789167
724,701.144629895485
725,701.1422252519615
726,701.1401593353955
727,701.1383773275123
728,701.136826672453
729,701.1354569916374
730,701.1342199422292
731,701.1330690181915
732,701.1319592955527
733,701.1308471255479
734,701.1296897811592
735,701.1284450648226
736,701.1270708870502
737,701.1255248262194
738,701.1237636789479
739,701.1217430097938
740,701.1194167094974
741,701.1167365722829
742,701.1136519040065
743,701.1101091737731
744,701.1060517220981
745,701.1014195385392
746,701.0961491205637
747,701.0901734232527
748,701.0834219067422
749,701.0758206853463
750,701.0672927792431
751,701.0577584666565
752,701.0471357318031
753,701.0353408011854
754,701.0222887577692
755,701.0078942193479
756,700.992072064729
757,700.9747381899098
758,700.9558102765152
759,700.9352085566818
760,700.9128565619264
761,700.8886818469521
762,700.8626166812622
763,700.8345987013478
764,700.8045715147563
765,700.7724852458099
766,700.7382970124219
767,700.7019713252505
768,700.6634804039899
769,700.6228044094407
770,700.579931592697
771,700.5348583637822
772,700.4875892817902
773,700.4381369682416
774,700.3865219463398
775,700.3327724114822
776,700.2769239417156
777,700.2190191594112
778,700.1591073567502
779,700.0972440980044
780,700.033490811299
781,699.9679143813887
782,699.9005867528375
783,699.8315845501448
784,699.760988718632
785,699.6888841880173
786,699.6153595594
787,699.5405068151705
788,699.4644210501542
789,699.3872002217355
790,699.3089449171227
791,699.2297581369098
792,699.1497450948676
793,699.0690130340627
794,698.987671059291
795,698.9058299855712
796,698.8236022012696
797,698.7411015420447
798,698.6584431697254
799,698.5757434503049
800,698.4931198272924
801,698.410690688642
802,698.3285752257968
803,698.2468932825839
804,698.165765191137
805,698.0853115916933
806,698.0056532323449
807,697.9269107441538
808,697.8492043875491
809,697.7726537677855
810,697.6973775197763
811,697.6234929651249
812,697.5511157467148
813,697.4803594494533
814,697.4113352197459
815,697.3441513995183
816,697.2789131912914
817,697.2157223685567
818,697.1546770418934
819,697.0958714876775
820,697.039396043623
821,696.9853370733075
822,696.93377699947
823,696.8847944028124
824,696.8384641795905
825,696.7948577480917
826,696.7540432918828
827,696.7160860267219
828,696.6810484776325
829,696.6489907516893
830,696.619970790288
831,696.5940445831442
832,696.5712663264167
833,696.5516885095476
834,696.5353619187595
835,696.5223355491332
836,696.5126564226703
837,696.5063693172464
838,696.5035164193303
839,696.504136919006
840,696.5082665675042
841,696.5159372154878
842,696.5271763466484
843,696.5420066176926
844,696.5604454134724
845,696.5825044245622
846,696.6081892533522
847,696.6374990536342
848,696.6704262082114
849,696.7069560492293
850,696.747066625546
851,696.7907285194633
852,696.8379047119939
853,696.8885504933941
854,696.9426134154152
855,697.0000332834686
856,697.0607421895161
857,697.1246645891509
858,697.1917174285281
859,697.2618103279209
860,697.3348458282235
861,697.4107197046577
862,697.4893213486059
863,697.5705342145211
864,697.6542363250512
865,697.7403008244102
866,697.8285965677952
867,697.9189887335237
868,698.011339445005
869,698.1055083915148
870,698.2013534386792
871,698.2987312202675
872,698.3974977025241
873,698.497508712224
874,698.5986204208613
875,698.7006897794876
876,698.8035749010676
877,698.9071353898937
878,699.0112326206473
879,699.1157299721186
880,699.2204930211789
881,699.3253897012075
882,699.4302904268077
883,699.535068184436
884,699.6395985870578
885,699.743759890125
886,699.8474329661484
887,699.9505012361204
888,700.0528505581273
889,700.1543690764465
890,700.2549470375627
891,700.3544765817792
892,700.4528515198567
893,700.5499671035294
894,700.6457197974125
895,700.7400070585828
896,700.8327271299167
897,700.9237788543145
898,701.0130615183537
899,701.1004747346457
900,701.1859183717135
901,701.2692925386772
902,701.350497629886
903,701.4294344323731
904,701.5060042966123
905,701.5801093681423
906,701.6516528746165
907,701.7205394612206
908,701.7866755680363
909,701.8499698446685
910,701.9103335983184
911,701.9676812709525
912,702.021930940264
913,702.0730048386916
914,702.1208298848533
915,702.1653382218815
916,702.2064677569587
917,702.2441626958032
