frame_number,force
0,702.3892819920159
1,702.2897928608899
2,702.1908316688151
3,702.0929217152238
4,701.9965770880023
5,701.9022982224658
6,701.8105676479164
7,701.7218459724676
8,701.6365681520048
9,701.555140084049
10,701.4779355605916
11,701.405293606046
12,701.3375162186677
13,701.2748665267779
14,701.2175673646391
15,701.1658002670245
16,701.119704877266
17,701.0793787611191
18,701.0448776171455
19,701.0162158719116
20,700.9933676439799
21,700.9762680545929
22,700.9648148566798
23,700.9588703490786
24,700.9582635401122
25,700.9627925236396
26,700.9722270311142
27,700.9863111245724
28,701.0047659971119
29,701.0272928489563
30,701.0535758084118
31,701.0832848676689
32,701.1160788036767
33,701.151608054984
34,701.1895175268686
35,701.2294492989639
36,701.2710452119815
37,701.3139493136515
38,701.3578101485663
39,701.4022828806842
40,701.4470312393911
41,701.4917292807521
42,701.5360629568901
43,701.5797314892997
44,701.6224485452973
45,701.663943219159
46,701.703960820739
47,701.7422634756877
48,701.7786305439334
49,701.8128588670136
50,701.8447628593233
51,701.8741744620157
52,701.9009429800202
53,701.9249348223021
54,701.9460331638578
55,701.9641375461405
56,701.9791634312526
57,701.9910417240714
58,701.9997182748033
59,702.0051533720748
60,702.0073212341215
61,702.0062095036533
62,702.0018187504899
63,701.9941619843831
64,701.9832641784959
65,701.9691618025453
66,701.9519023639066
67,701.9315439544694
68,701.9081548004715
69,701.881812812151
70,701.8526051298102
71,701.8206276626554
72,701.7859846171572
73,701.7487880135257
74,701.7091571919989
75,701.6672183136676
76,701.6231038619753
77,701.5769521499334
78,701.5289068348067
79,701.479116438232
80,701.4277338676615
81,701.3749159358968
82,701.3208228784416
83,701.2656178712684
84,701.2094665530974
85,701.1525365568378
86,701.0949970553323
87,701.0370183271066
88,700.9787713480438
89,700.920427414552
90,700.8621578029046
91,700.8041334678036
92,700.7465247806143
93,700.689501304463
94,700.6332316001614
95,700.5778830539016
96,700.5236217146854
97,700.4706121268965
98,700.419017142357
99,700.3689976974578
100,700.3207125441703
101,700.274317927524
102,700.2299672050124
103,700.1878104049863
104,700.147993722247
105,700.1106589508385
106,700.0759428566362
107,700.0439764953514
108,700.0148844844655
109,699.9887842399836
110,699.9657851908868
111,699.9459879860023
112,699.929483708852
113,699.9163531142945
114,699.9066658963698
115,699.9004799919079
116,699.8978409216952
117,699.8987811707542
118,699.9033196100505
119,699.9114609623681
120,699.9231953151814
121,699.9384976836942
122,699.9573276281973
123,699.9796289315784
124,700.0053293446964
125,700.0343404088707
126,700.0665573658813
127,700.1018591666354
128,700.1401085897558
129,700.1811524806419
130,700.224822119981
131,700.2709337278551
132,700.3192891056163
133,700.3696764141071
134,700.4218710852628
135,700.475636864358
136,700.5307269800578
137,700.5868854372591
138,700.6438484233963
139,700.7013458141037
140,700.7591027610198
141,700.8168413438494
142,700.8742822692642
143,700.9311465994193
144,700.9871574927115
145,701.0420419395198
146,701.095532476289
147,701.1473688623657
148,701.1972997053965
149,701.2450840227008
150,701.2904927274994
151,701.3333100297092
152,701.3733347410986
153,701.4103814747449
154,701.4442817298393
155,701.4748848546964
156,701.5020588823079
157,701.5256912335398
158,701.5456892835815
159,701.5619807879458
160,701.5745141652117
161,701.5832586347767
162,701.5882042094802
163,701.5893615455818
164,701.5867616558364
165,701.5804554935407
166,701.5705134148646
167,701.5570245239669
168,701.5400959024835
169,701.5198517237899
170,701.4964322529453
171,701.46999273399
172,701.4407021664462
173,701.408741973346
174,701.3743045652176
175,701.337591808303
176,701.298813409928
177,701.2581852381871
178,701.2159275958426
179,701.1722634691558
180,701.1274167718396
181,701.0816106031621
182,701.0350655378902
183,700.9879979644696
184,700.9406184866264
185,700.8931304023072
186,700.8457282726347
187,700.7985965925429
188,700.7519085739114
189,700.705825051312
190,700.6604935200454
191,700.6160473158361
192,700.5726049449548
193,700.5302695723815
194,700.4891286738165
195,700.4492538546499
196,700.4107008355177
197,700.3735096005635
198,700.3377047014669
199,700.3032957074305
200,700.2702777885905
201,700.2386324182849
202,700.2083281785573
203,700.1793216529422
204,700.1515583906776
205,700.1249739272607
206,700.0994948480571
207,700.0750398844605
208,700.051521035075
209,700.0288447063322
210,700.0069128672571
211,699.9856242120934
212,699.9648753228182
213,699.9445618214911
214,699.9245795000678
215,699.9048254133328
216,699.8851989195581
217,699.8656026535616
218,699.8459434179821
219,699.826132980818
220,699.8060887703563
221,699.7857344620334
222,699.7650004550774
223,699.7438242398863
224,699.7221506600473
225,699.6999320753
226,699.67712843306
227,699.6537072563879
228,699.6296435560965
229,699.6049196746801
230,699.5795250705684
231,699.5534560532332
232,699.5267154822658
233,699.4993124450939
234,699.4712619267839
235,699.442584480877
236,699.4133059040454
237,699.3834569123119
238,699.3530728141534
239,699.3221931751962
240,699.2908614690848
241,699.259124709363
242,699.2270330584405
243,699.1946394116719
244,699.1619989564037
245,699.1291687071434
246,699.0962070187854
247,699.0631730799212
248,699.0301263877494
249,698.9971262057763
250,698.9642310063276
251,698.9314979022422
252,698.8989820751356
253,698.8667362098973
254,698.8348099460499
255,698.8032493568975
256,698.7720964676341
257,698.7413888234533
258,698.711159117727
259,698.6814348885209
260,698.652238289377
261,698.6235859375405
262,698.5954888399286
263,698.567952394485
264,698.540976462259
265,698.5145555035839
266,698.4886787703682
267,698.4633305458837
268,698.438490423269
269,698.4141336140731
270,698.3902312787143
271,698.3667508719859
272,698.3436564984878
273,698.320909274465
274,698.2984676934576
275,698.2762879934221
276,698.2543245229593
277,698.2325301043065
278,698.2108563907714
279,698.1892542161655
280,698.1676739340367
281,698.146065746079
282,698.1243800219337
283,698.1025676150065
284,698.0805801794725
285,698.058370492388
286,698.0358927824004
287,698.0131030630506
288,697.9899594643066
289,697.9664225521293
290,697.9424556243238
291,697.9180249720685
292,697.893100099117
293,697.8676538934697
294,697.8416627492511
295,697.8151066400033
296,697.7879691482211
297,697.7602374586288
298,697.7319023236699
299,697.7029580089692
300,697.6734022245963
301,697.6432360455228
302,697.6124638223282
303,697.5810930816144
304,697.5491344153899
305,697.5166013599455
306,697.4835102666888
307,697.4498801691715
308,697.4157326515696
309,697.3810917236104
310,697.3459837052151
311,697.3104371217968
312,697.2744826096588
313,697.2381528308792
314,697.2014823976674
315,697.1645078062596
316,697.127267379804
317,697.0898012191515
318,697.0521511606989
319,697.014360741077
320,696.9764751685454
321,696.9385413002368
322,696.9006076236885
323,696.8627242408872
324,696.824942852763
325,696.7873167412545
326,696.7499007453474
327,696.7127512277757
328,696.6759260301762
329,696.6394844153143
330,696.6034869950223
331,696.567995642188
332,696.5330733848403
333,696.4987842800876
334,696.4651932653833
335,696.4323659846939
336,696.4003685879213
337,696.3692675031867
338,696.3391291828533
339,696.3100198252004
340,696.2820050743102
341,696.2551497007878
342,696.2295172654094
343,696.205169766797
344,696.1821672730066
345,696.1605675362965
346,696.1404255910672
347,696.1217933368584
348,696.1047191104736
349,696.0892472532327
350,696.0754176809303
351,696.0632654652877
352,696.0528204362988
353,696.044106814491
354,696.0371428805357
355,696.0319406875338
356,696.0285058198849
357,696.0268372024753
358,696.0269269644289
359,696.0287603621281
360,696.0323157662983
361,696.0375647172558
362,696.0444720507418
363,696.0529960946824
364,696.063088935795
365,696.0746967545285
366,696.0877602266573
367,696.1022149890337
368,696.1179921655013
369,696.1350189476376
370,696.1532192243875
371,696.1725142540952
372,696.1928233711019
373,696.214064717355
374,696.2361559885223
375,696.2590151841096
376,696.2825613512097
377,696.3067153114567
378,696.3314003612379
379,696.3565429367637
380,696.3820732372745
381,696.4079257997971
382,696.4340400170781
383,696.4603605881566
384,696.4868378906309
385,696.5134282660449
386,696.5400942141923
387,696.5668044967045
388,696.5935341538103
389,696.6202644404763
390,696.6469826893049
391,696.6736821075147
392,696.7003615146411
393,696.7270250273641
394,696.7536816983852
395,696.7803451169108
396,696.8070329785502
397,696.833766632406
398,696.8605706128154
399,696.8874721623586
400,696.9145007514365
401,696.9416875981716
402,696.9690651907082
403,696.9966668126102
404,697.0245260715388
405,697.0526764317443
406,697.0811507517838
407,697.1099808302631
408,697.1391969641445
409,697.1688275255706
410,697.1988985635982
411,697.2294334365796
412,697.260452479326
413,697.2919727070924
414,697.3240075568058
415,697.3565666654284
416,697.3896556856243
417,697.4232761393168
418,697.4574253100179
419,697.4920961750614
420,697.5272773793661
421,697.562953252833
422,697.5991038729046
423,697.6357051715353
424,697.6727290828444
425,697.7101437256094
426,697.7479136142042
427,697.785999892239
428,697.8243605844071
429,697.8629508635911
430,697.9017233322127
431,697.9406283189647
432,697.9796141936284
433,698.0186277028434
434,698.0576143286212
435,698.0965186701346
436,698.1352848485777
437,698.1738569344185
438,698.2121793958046
439,698.2501975663479
440,698.2878581298454
441,698.3251096178853
442,698.3619029135793
443,698.3981917522046
444,698.4339332088782
445,698.4690881645944
446,698.5036217438116
447,698.53750371807
448,698.5707088703159
449,698.603217313708
450,698.6350147574062
451,698.666092711403
452,698.696448623152
453,698.7260859396818
454,698.7550140895421
455,698.7832483800278
456,698.8108098074916
457,698.8377247822679
458,698.8640247742838
459,698.8897458899586
460,698.9149283940794
461,698.9396161908045
462,698.9638562759394
463,698.987698169938
464,699.0111933396121
465,699.0343946166428
466,699.0573556213285
467,699.0801301992569
468,699.1027718766467
469,699.1253333376054
470,699.147865923923
471,699.1704191556196
472,699.1930402690076
473,699.2157737694203
474,699.2386609982847
475,699.2617397178585
476,699.2850437203165
477,699.3086024704688
478,699.3324407935626
479,699.3565786212794
480,699.3810308093348
481,699.4058070382632
482,699.430911805399
483,699.4563445119404
484,699.4820996451338
485,699.5081670519572
486,699.5345322970826
487,699.5611770948254
488,699.5880798028867
489,699.6152159649791
490,699.6425588894559
491,699.6700802512423
492,699.697750704276
493,699.7255404912775
494,699.7534200375558
495,699.7813605163642
496,699.8093343752887
497,699.8373158162293
498,699.8652812252159
499,699.8932095513879
500,699.9210826356173
501,699.948885488248
502,699.9766065134098
503,700.0042376757928
504,700.0317746053515
505,700.0592166360402
506,700.0865667760035
507,700.1138316082722
508,700.1410211224028
509,700.1681484780624
510,700.195229701336
511,700.2222833145469
512,700.2493299019296
513,700.2763916167911
514,700.3034916395903
515,700.3306535988222
516,700.3579009672724
517,700.385256446568
518,700.4127413543222
519,700.4403750298895
520,700.4681742748797
521,700.496152841874
522,700.5243209797989
523,700.5526850391707
524,700.5812471366551
525,700.6100048759109
526,700.6389511194725
527,700.6680738047112
528,700.6973557972559
529,700.7267747784847
530,700.7563031686883
531,700.7859080918715
532,700.8155513900675
533,700.8451896945749
534,700.8747745601316
535,700.9042526665138
536,700.9335660899125
537,700.9626526437331
538,700.9914462864344
539,701.0198775934159
540,701.0478742898636
541,701.0753618407979
542,701.1022640932573
543,701.1285039640849
544,701.1540041655433
545,701.1786879600727
546,701.2024799349055
547,701.2253067870295
548,701.2470981092905
549,701.2677871690908
550,701.2873116718866
551,701.3056145023944
552,701.3226444370877
553,701.3383568222614
554,701.3527142128574
555,701.3656869684315
556,701.3772538037289
557,701.3874022922645
558,701.3961293224801
559,701.4034415072728
560,701.4093555477148
561,701.4138985495593
562,701.4171082871965
563,701.4190334057754
564,701.4197335494631
565,701.4192794027599
566,701.4177526328157
567,701.4152457236613
568,701.4118616968871
569,701.4077137160069
570,701.4029245731564
571,701.3976260577468
572,701.391958208312
573,701.3860684514141
574,701.3801106346208
575,701.3742439632314
576,701.3686318520026
577,701.3634407039385
578,701.3588386293834
579,701.3549941212282
580,701.3520747057887
581,701.3502455920866
582,701.3496683428395
583,701.350499587949
584,701.3528897968823
585,701.3569821216757
586,701.3629113178984
587,701.3708027468684
588,701.3807714595551
589,701.3929213623156
590,701.4073444666644
591,701.4241202275027
592,701.443314975052
593,701.4649814456344
594,701.4891584163987
595,701.5158704487018
596,701.5451277431974
597,701.5769261069935
598,701.611247030541
599,701.6480578696033
600,701.6873121254365
601,701.728949814189
602,701.7728979151835
603,701.8190708881453
604,701.8673712516538
605,701.9176902174868
606,701.9699083762484
607,702.0238964286808
608,702.0795159556612
609,702.1366202188544
610,702.1950549833513
611,702.2546593535335
612,702.3152666138882
613,702.3767050672332
614,702.4387988638869
615,702.5013688172525
616,702.5642332042928
617,702.627208552823
618,702.6901104202127
619,702.7527541687789
620,702.8149557413476
621,702.8765324362031
622,702.9373036747648
623,702.9970917501203
624,703.0557225426044
625,703.113026190307
626,703.1688377058568
627,703.2229975345709
628,703.2753520527136
629,703.3257540077881
630,703.3740629048849
631,703.4201453441917
632,703.4638753155245
633,703.5051344566318
634,703.5438122826085
635,703.5798063931952
636,703.6130226628853
637,703.6433754166849
638,703.6707875931709
639,703.6951908961458
640,703.7165259356609
641,703.734742357473
642,703.7497989568367
643,703.7616637688246
644,703.7703141250774
645,703.7757366676647
646,703.7779273143519
647,703.7768911739266
648,703.7726424136268
649,703.7652040831791
650,703.754607902072
651,703.740894018307
652,703.724110747534
653,703.7043143011982
654,703.6815685115054
655,703.6559445599712
656,703.6275207147578
657,703.5963820794732
658,703.5626203530194
659,703.5263335974796
660,703.4876260092872
661,703.4466076873493
662,703.4033943901437
663,703.3581072727343
664,703.3108725947087
665,703.2618213910864
666,703.211089100153
667,703.1588151448667
668,703.1051424676692
669,703.0502170219285
670,702.9941872264167
671,702.9372033910403
672,702.8794171213965
673,702.8209807070858
674,702.762046495881
675,702.7027662547453
676,702.6432905202115
677,702.5837679438366
678,702.5243446410518
679,702.4651635523835
680,702.4063638253907
681,702.3480802249568
682,702.2904425790939
683,702.2335752666656
684,702.1775967519385
685,702.122619168934
686,702.0687479569216
687,702.0160815471324
688,701.9647110994272
689,701.9147202863993
690,701.8661851219432
691,701.819173831807
692,701.7737467641685
693,701.7299563376629
694,701.687847022521
695,701.6474553490518
696,701.6088099382621
697,701.5719315523437
698,701.5368331670369
699,701.5035200716624
700,701.4719900042098
701,701.4422333279788
702,701.4142332541195
703,701.3879661121972
704,701.3634016687071
705,701.3405034914139
706,701.3192293563844
707,701.2995316949612
708,701.28135807832
709,701.2646517360411
710,701.2493521024337
711,701.2353953817401
712,701.2227151219606
713,701.2112427869874
714,701.200908317662
715,701.1916406737248
716,701.1833683496502
717,701.1760198576779
718,701.1695241715925
719,701.1638111257855
720,701.1588117658914
721,701.1544586491075
722,701.1506860937585
723,701.1474303788443
724,701.144629895371
725,701.1422252518037
726,701.1401593351917
727,701.1383773272607
728,701.1368266721524
729,701.1354569912874
730,701.1342199418303
731,701.1330690177452
732,701.1319592950614
733,701.1308471250148
734,701.1296897805887
735,701.1284450642195
736,701.1270708864195
737,701.125524825566
738,701.1237636782773
739,701.1217430091118
740,701.1194167088092
741,701.1167365715937
742,701.113651903321
743,701.110109173096
744,701.1060517214338
745,701.1014195378923
746,701.0961491199392
747,701.090173422656
748,701.0834219061791
749,701.075820684823
750,701.0672927787655
751,701.0577584662309
752,701.0471357314353
753,701.0353408008807
754,701.0222887575318
755,701.0078942191811
756,700.992072064635
757,700.9747381898894
758,700.9558102765681
759,700.9352085568065
760,700.9128565621213
761,700.8886818472148
762,700.8626166815897
763,700.8345987017358
764,700.8045715152001
765,700.7724852463042
766,700.7382970129611
767,700.7019713258292
768,700.6634804046022
769,700.622804410081
770,700.5799315933596
771,700.5348583644613
772,700.4875892824805
773,700.4381369689378
774,700.3865219470367
775,700.3327724121748
776,700.2769239423991
777,700.219019160081
778,700.1591073574019
779,700.0972440986347
780,700.0334908119055
781,699.9679143819698
782,699.9005867533922
783,699.8315845506727
784,699.7609887191335
785,699.6888841884936
786,699.6153595598529
787,699.540506815602
788,699.464421050567
789,699.3872002221327
790,699.3089449175081
791,699.229758137287
792,699.1497450952404
793,699.0690130344351
794,698.9876710596675
795,698.9058299859563
796,698.8236022016677
797,698.7411015424601
798,698.6584431701623
799,698.575743450767
800,698.4931198277832
801,698.4106906891644
802,698.3285752263537
803,698.2468932831782
804,698.1657651917722
805,698.0853115923728
806,698.005653233072
807,697.9269107449317
808,697.8492043883808
809,697.7726537686749
810,697.6973775207271
811,697.6234929661408
812,697.5511157477999
813,697.480359450612
814,697.4113352209823
815,697.3441514008356
816,697.2789131926914
817,697.2157223700401
818,697.1546770434591
819,697.0958714893231
820,697.0393960453449
821,696.9853370751007
822,696.9337770013285
823,696.88479440473
824,696.8384641815601
825,696.794857750106
826,696.754043293934
827,696.7160860288021
828,696.6810484797338
829,696.6489907538037
830,696.6199707924076
831,696.5940445852608
832,696.5712663285219
833,696.5516885116326
834,696.5353619208147
835,696.5223355511484
836,696.5126564246347
837,696.5063693191493
838,696.5035164211616
839,696.5041369207567
840,696.5082665691656
841,696.5159372170522
842,696.527176348109
843,696.5420066190442
844,696.5604454147116
845,696.5825044256873
846,696.6081892543626
847,696.637499054531
848,696.6704262089968
849,696.7069560499064
850,696.7470666261183
851,696.7907285199352
852,696.8379047123699
853,696.8885504936786
854,696.9426134156126
855,697.0000332835832
856,697.060742189552
857,697.1246645891123
858,697.1917174284188
859,697.2618103277441
860,697.3348458279827
861,697.4107197043563
862,697.4893213482472
863,697.5705342141083
864,697.6542363245876
865,697.7403008238991
866,697.8285965672404
867,697.9189887329289
868,698.011339444374
869,698.1055083908517
870,698.201353437988
871,698.298731219553
872,698.3974977017918
873,698.4975087114805
874,698.5986204201135
875,698.7006897787435
876,698.8035749003353
877,698.9071353891818
878,699.0112326199643
879,699.1157299714729
880,699.2204930205785
881,699.3253897006601
882,699.4302904263203
883,699.5350681840155
884,699.6395985867109
885,699.7437598898586
886,699.8474329659686
887,699.9505012360328
888,700.0528505581364
889,700.1543690765554
890,700.2549470377728
891,700.3544765820905
892,700.4528515202676
893,700.5499671040367
894,700.645719798012
895,700.7400070592695
896,700.8327271306853
897,700.923778855159
898,701.0130615192676
899,701.100474735622
900,701.185918372745
901,701.2692925397567
902,701.3504976310061
903,701.4294344335261
904,701.5060042977912
905,701.5801093693403
906,701.6516528758277
907,701.7205394624395
908,701.7866755692579
909,701.8499698458877
910,701.9103335995308
911,701.9676812721539
912,702.0219309414501
913,702.0730048398583
914,702.1208298859962
915,702.165338222996
916,702.2064677580403
917,702.2441626968476
