acceleration,velocity,displacement
0.0436768577328757,0.0,0.0
0.04336283277735244,2.1759922627557036e-05,5.439980656889259e-09
0.04304901935726672,4.3362885661211825e-05,2.1720682729081473e-08
0.04273562782802593,6.480904745753498e-05,4.876366600876817e-08
0.04242286619507611,8.60986709633105e-05,8.649059561397955e-08
0.04211093896344905,0.00010723212225294178,1.3482329391804262e-07
0.04180004601587706,0.00012820986849777332,1.936837916057214e-07
0.04149038152790918,0.0001490324753837199,2.629943775760947e-07
0.0411821329280113,0.0001697006039977,3.4267764742144964e-07
0.040875479910056745,0.000190215007207217,4.326565502226789e-07
0.04057059350495857,0.00021057652556097083,5.328544334147259e-07
0.04026763521737818,0.000230786082741555,6.431950854903573e-07
0.03996675623261541,0.0002508446806040534,7.636027763267594e-07
0.039668096698026255,0.00027075339383671377,8.940022949369512e-07
0.039371785082543874,0.0002905133642818563,1.0343189844665936e-06
0.03907793761718021,0.0003101257949567873,1.1844787742762544e-06
0.03878665781875362,0.00032959194381577077,1.344408208969394e-06
0.038498036098637,0.00034891311729511845,1.5140344742471163e-06
0.03821214945788659,0.00036809066368424933,1.6932854194919583e-06
0.03792906126960499,0.0003871259663661222,1.8820895770045513e-06
0.03764882114874234,0.00040602043697070907,2.080376177838759e-06
0.037371464908740805,0.00042477550848507985,2.2880751642027063e-06
0.03709701460358388,0.000443392628363161,2.5051171984147665e-06
0.036825478653127595,0.00046187325167733887,2.7314336684248916e-06
0.03655685204902146,0.00048021883435287615,2.9669566899324453e-06
0.03629111663812837,0.0004984308265246636,3.2116191051518303e-06
0.03602824148006851,0.0005165106660542128,3.4653544782965493e-06
0.03576818327527659,0.0005344597722430491,3.7280970878708647e-06
0.03551088685980994,0.0005522795397768207,3.999781915875832e-06
0.03525628576295225,0.0005699713329325113,4.280344634053165e-06
0.03500430282344378,0.0005875364800791103,4.56972158730607e-06
0.034754850859957054,0.0006049762684999605,4.867849774450838e-06
0.03450783339116712,0.0006222919395627415,5.174666826466514e-06
0.034263145400580924,0.0006394846842606785,5.490110982422369e-06
0.03402067414113356,0.0006565556391461071,5.814121063274066e-06
0.03378029997450371,0.0006735058826750164,6.146636443729347e-06
0.033541897240070104,0.0006903364319786599,6.487597022392766e-06
0.033305335148532976,0.0007070482400758107,6.8369431904063834e-06
0.03307047869539182,0.000723642193536792,7.194615798809534e-06
0.03283718958966401,0.0007401191106080559,7.560556124845746e-06
0.03260532719326037,0.000756479739803787,7.934705837448708e-06
0.03237474946637039,0.0007727247589686948,8.317006962141828e-06
0.03214531391423172,0.0007888547748138453,8.707401845587464e-06
0.03191687853079766,0.0008048703229251026,9.1058331200222e-06
0.031689302735050565,0.0008207718682415647,9.512243667813867e-06
0.03146244829586561,0.0008365598059992937,9.92657658637408e-06
0.031236180241407223,0.000852234463133612,1.0348775153657308e-05
0.031010367749163652,0.0008677961001312547,1.0778782794473525e-05
0.030784885012952845,0.0008832449133217839,1.1216543047836785e-05
0.0305596120836111,0.0008985810375959249,1.1661999535566212e-05
0.030334435680479263,0.0009138045495369476,1.211509593234943e-05
0.030109249971203282,0.0009289154709498682,1.2575775937471133e-05
0.029883957317595484,0.0009439137727720679,1.3043983248401618e-05
0.02965846898539553,0.0009587993793478156,1.3519661536431588e-05
0.02943270581579232,0.0009735721730481125,1.400275442453057e-05
0.029206598856556867,0.0009882319992161998,1.4493205467596648e-05
0.028980089950717682,0.0010027786714180184,1.4990958135255203e-05
0.02875313228078651,0.0010172119769758944,1.549595579735368e-05
0.028525690866599954,0.001031531682762741,1.600814171228834e-05
0.028297743014864624,0.001045737541233107,1.6527459018287304e-05
0.02806927871850631,0.0010598292966664498,1.7053850727762193e-05
0.02784030100398593,0.0010738066915970729,1.7587259724828073e-05
0.027610826224854897,0.001087669473404283,1.8127628766078413e-05
0.027380884299961435,0.001101417401035487,1.8674900484688356e-05
0.027150518894776793,0.0011150502518341716,1.922901739790577e-05
0.026919787544458507,0.0011285678284439803,1.9789921917975307e-05
0.026688761717478526,0.0011419699657594646,2.035755636652617e-05
0.02645752681885286,0.0011552565378935475,2.0931862992439422e-05
0.026226182132231136,0.0011684274651313185,2.151278399319564e-05
0.02599484070032774,0.0011814827208394582,2.2100261539688336e-05
0.025763629143444086,0.0011944223383004013,2.26942378044733e-05
0.025532687416048624,0.0012072464174402743,2.329465499340847e-05
0.025302168501693565,0.00121995513141971,2.3901455380623465e-05
0.02507223804693033,0.0012325487330568658,2.451458134674261e-05
0.024843073935400646,0.0012450275610524485,2.5133975420269937e-05
0.024614865803762025,0.0012573920459872392,2.575958032202986e-05
0.024387814501460405,0.0012696427160635447,2.6391339012542555e-05
0.02416213149651573,0.0012817802025630388,2.7029194742199202e-05
0.023938038229433772,0.001293805244994526,2.7673091104088592e-05
0.02371576541730158,0.0013057186959062098,2.8322972089313776e-05
0.02349555231011595,0.0013175215253380642,2.8978782144624843e-05
0.023277645901718224,0.0013292148248910227,2.9640466232182114e-05
0.023062300098076853,0.0013407998113909715,3.0307969891252614e-05
0.022849774846107694,0.0013522778301270177,3.098123930163211e-05
0.02264033522648006,0.0013636503576451647,3.1660221348575155e-05
0.02243425051405609,0.0013749190040802987,3.234486368900652e-05
0.02223179320978797,0.0013860855150112598,3.303511481877941e-05
0.022033238048071436,0.0013971517728257245,3.3730924140738656e-05
0.021838860983667063,0.0014081197975836593,3.4432242033341e-05
0.021648938162379294,0.0014189917473701708,3.513901991957946e-05
0.021463744879681224,0.001429769918130686,3.5851210335954674e-05
0.021283554531417604,0.0014404567429834607,3.656876700123321e-05
0.021108637560550907,0.0014510547910064528,3.729164488473069e-05
0.020939260403701664,0.001461566765497516,3.801980027385669e-05
0.020775684440977445,0.0014719955017086857,3.875319084065824e-05
0.020618164952364834,0.0014823439640570212,3.949177570709967e-05
0.020466950083708278,0.0014926152428160395,4.0235515508817935e-05
0.02032227982503654,0.0015028125502932258,4.098437245709525e-05
0.02018438500392744,0.0015129392165004667,4.173831039879367e-05
0.02005348629658215,0.001522998684325594,4.249729487400019e-05
0.019929793259519917,0.0015329945042146195,4.326129317113524e-05
0.01981350338497276,0.0015429303283757427,4.4030274379282834e-05
0.01970480118323547,0.0015528099045177947,4.480420943750622e-05
0.019603857295190857,0.0015626370691374013,4.558307118092002e-05
0.019510827638241596,0.0015724157403707595,4.6366834383297057e-05
0.01942585258884478,0.001582149910427531,4.715547579599663e-05
0.019349056204928276,0.0015918436376259743,4.7948974183010006e-05
0.019280545491519023,0.001601501038050086,4.8747310351929024e-05
0.019220409712981973,0.0016111262768512113,4.955046718065435e-05
0.019168719755284357,0.001620723559218278,5.035842963967172e-05
0.019125527541624932,0.0016302971210425052,5.117118480973692e-05
0.01909086550474882,0.0016398512193040986,5.198872189482357e-05
0.019064746119096213,0.00164939012221006,5.2811032230202116e-05
0.01904716149558556,0.0016589180991137304,5.363810928553306e-05
0.01903808304123225,0.0016684394102479349,5.446994866287348e-05
0.019037461185202404,0.0016779582963045436,5.53065480895116e-05
0.01904522517241819,0.0016874789678939489,5.614790740556122e-05
0.01906128292559032,0.001697005594918451,5.699402854626432e-05
0.019085520976344323,0.0017065422958939347,5.784491551896742e-05
0.019117804465915936,0.0017160931272544998,5.870057437475453e-05
0.019157977215616507,0.001725662072674883,5.9561013174736876e-05
0.019205861867093957,0.0017352530324455607,6.042624195101699e-05
0.019261260092178795,0.001744869812935379,6.129627266236223e-05
0.019323952872059975,0.0017545161161764387,6.217111914464018e-05
0.019393700845391874,0.0017641955296058016,6.305079705608574e-05
0.019470244724836397,0.0017739115159983586,6.393532381748679e-05
0.019553305781391073,0.0017836674036249155,6.482471854739261e-05
0.019642586395712095,0.0017934663766691914,6.571900199246614e-05
0.019737770675386027,0.0018033114659369658,6.661819645311768e-05
0.019838525136869525,0.0018132055398900296,6.752232570457443e-05
0.019944499450467033,0.0018231512960368637,6.843141491355616e-05
0.020055327246284345,0.0018331512527110516,6.934549055074314e-05
0.020170626978630042,0.0018432077412672801,7.026458029923773e-05
0.02029000284583618,0.0018533228987233966,7.11887129592354e-05
0.020413045762214314,0.0018634986608754092,7.21179183491351e-05
0.020539334378708286,0.0018737367559106398,7.30522272033316e-05
0.020668436148687193,0.0018840386985424886,7.399167106694488e-05
0.020799908435009264,0.0018944057846884128,7.49362821877526e-05
0.020933299654048963,0.0019048390867106775,7.588609340560238e-05
0.021068150451905715,0.0019153394492371662,7.684113803958934e-05
0.021203994907679553,0.0019259074855770624,7.780144977329289e-05
0.021340361758599904,0.0019365435747436322,7.876706253837307e-05
0.02147677564177634,0.0019472478590937263,7.97380103968324e-05
0.02161275834735436,0.001958020242591009,8.071432742225359e-05
0.021747830077798777,0.0019688603896972972,8.169604758032566e-05
0.021881510708073378,0.001979767724893765,8.268320460897344e-05
0.02201332104155112,0.0019907414328311714,8.367583189840467e-05
0.02214278405660535,0.0020017804591057104,8.467396237138889e-05
0.022269426139004928,0.002012883511654613,8.567762836407896e-05
0.02239277829542903,0.0020240490627632213,8.668686150768342e-05
0.022512377343631203,0.0020352753516729863,8.770169261129248e-05
0.022627767074933653,0.0020465603877776275,8.872215154615512e-05
0.022738499384873188,0.0020579019543925793,8.974826713169767e-05
0.022844135367927065,0.002069297613080779,9.078006702356601e-05
0.022944246372505358,0.0020807447085158873,9.181757760396518e-05
0.02303841501267394,0.002092240373862182,9.28608238745597e-05
0.023126236133360963,0.0021037815366486906,9.390982935218742e-05
0.02320731772603717,0.0021153649251135402,9.496461596762797e-05
0.023281281792072738,0.0021269870749930676,9.602520396765462e-05
0.023347765151209118,0.002138644336728888,9.70916118205851e-05
0.023406420192874852,0.002150332883064909,9.816385612553355e-05
0.02345691556835012,0.0021620487170052154,9.924195152555108e-05
0.02349893682212292,0.002173787680102834,0.00010032591062482809
0.023532186961191297,0.0021855454610486625,0.00010141574391011597
0.02355638696155084,0.002197317604529348,0.00010251145967651047
0.023571276211500618,0.002209099520322611,0.00010361306395772346
0.023576612891552273,0.002220886492598374,0.0001047205604609537
0.023572174290734896,0.0022326736893939457,0.00010583395050645179
0.02355775705905489,0.0022444561722313934,0.00010695323297185812
0.02353317739601034,0.0022562289058451596,0.00010807840424137726
0.023498271175290616,0.002267986767987985,0.00010920945815983554
0.023452894006053656,0.002279724559283321,0.00011034638599165337
0.023396921231399637,0.0022914370130926844,0.00011148917638474737
0.023330247864891192,0.002303118805366757,0.00011263781533936223
0.023252788466308315,0.002314764564449557,0.0001137922861818163
0.023164476958328555,0.0023263688808057162,0.00011495256954313013
0.02306526638635738,0.0023379263166418878,0.00011611864334249203
0.02295512862423119,0.002349431415394535,0.00011729048277550115
0.0228340540288854,0.002360878711057814,0.00011846806030711423
0.02270205104728597,0.0023722627373268567,0.0001196513456692104
0.022559145779010165,0.0023835780365334307,0.00012084030586267548
0.022405381497886543,0.002394819168352655,0.000122034905163897
0.02224081813610559,0.002405980718261153,0.00012323510513555046
0.0220655317342013,0.00241705730572873,0.00012444086464154794
0.021879613860291268,0.002428043592127353,0.00012565213986601197
0.02168317100192774,0.002438934288342908,0.00012686888433612953
0.021476323933881783,0.0024497241620768605,0.00012809104894873446
0.021259207065142848,0.0024604080448266167,0.00012931858200046034
0.021031967768390496,0.002470980838535,0.00013055142922130074
0.020794765695150402,0.0024814375219008853,0.00013178953381140973
0.020547772079840355,0.002491773156344633,0.0001330328364809711
0.020291169035880092,0.002501982891623563,0.00013428127549296314
0.020025148846998887,0.0025120619710942826,0.0001355347867086426
0.019749913256731415,0.0025220057366202153,0.00013679330363557124
0.019465672758962962,0.002531809633124139,0.00013805675747800733
0.019172645892099913,0.0025414692127869046,0.0001393250771894851
0.01887105853914126,0.0025509801388947147,0.00014059818952740549
0.01856114323558582,0.0025603381893383966,0.00014187601910946378
0.018243138486805165,0.0025695392597689945,0.00014315848847174062
0.0179172880962107,0.0025785793664147485,0.00014444551812828655
0.017583840505266034,0.0025874546485651177,0.00014573702663203152
0.017243048146157965,0.0025961613707279735,0.00014703293063685478
0.016895166807760882,0.0026046959244664532,0.00014833314496065338
0.01654045501543045,0.0026130548299222512,0.00014963758264925056
0.01617917342506678,0.0026212347370323757,0.00015094615504098922
0.015811584231882447,0.002629232426446613,0.00015225877183185896
0.015437950594342761,0.0026370448101531692,0.0001535753411410089
0.015058536073882614,0.0026446689318202258,0.00015489576957650224
0.014673604091146425,0.002652101966861483,0.00015621996230117267
0.014283417399559734,0.0026593412222341594,0.0001575478230984466
0.013888237576970908,0.002666384135978292,0.0001588792544379997
0.013488324535921149,0.002673228276506515,0.0001602141575411209
0.013083936052884113,0.002679871341653716,0.00016155243244566096
0.0126753273165565,0.0026863111574960763,0.00016289397807044842
0.012262750495006604,0.002692545676948967,0.0001642386922790597
0.01184645432124545,0.00269857297815303,0.0001655864719428352
0.011426683696612825,0.0027043912626574947,0.00016693721300303782
0.011003679311303608,0.0027099988534094737,0.00016829081053205456
0.0105776772813709,0.0027153941925576425,0.00016964715879354633
0.010148908801641352,0.0027205758390783956,0.00017100615130145533
0.009717599814169527,0.0027255424662323484,0.000172367680877783
0.009283970692054219,0.002730292858858904,0.00017373163970905582
0.008848235938632707,0.002734825910516576,0.0001750979194013997
0.008410603902282597,0.0027391406204768046,0.00017646641103414803
0.00797127650721881,0.00274323609057918,0.00017783700521191204
0.0075304490008247914,0.002747111521956191,0.00017920959211504588
0.007088309718106459,0.0027507662116359236,0.0001805840615484439
0.006645039863839848,0.0027541995490314103,0.00018196030298861074
0.0062008133129292115,0.0027574110123256028,0.00018333820562895
0.005755796429439686,0.002760400164761195,0.0001847176584232217
0.005310147904810088,0.002763166650844757,0.00018609855012712318
0.004864018615880635,0.00276571019247493,0.0001874807693379531
0.004417551503537788,0.0027680305850047845,0.00018886420453232303
0.0039708814728853315,0.0027701276932488904,0.00019024874410188646
0.0035241353157135975,0.0027720014474460404,0.0001916342763870602
0.003077431655673542,0.002773651839188887,0.00019302068970871892
0.0026308809160360516,0.0027750789173318145,0.0001944078723978491
0.002184585309484649,0.0027762827838881945,0.0001957957128231541
0.0017386388491999777,0.0027772635899278655,0.0001971840994166081
0.001293127380403526,0.0027780215314852663,0.00019857292069696137
0.000848128631512118,0.002778556845488245,0.00019996206529120474
0.0004037122840530887,0.0027788698057171365,0.00020135142195400608
-4.005993941264253e-05,0.0027789607188032964,0.0002027408795851362
-0.0004831341699927704,0.002778829920275945,0.00020413032724490602
-0.000925464270282301,0.0027784777706658763,0.00020551965416764148
-0.0013670116956942804,0.0027779046516743823,0.00020690874977322656
-0.0018077453396725697,0.0027771109624155407,0.00020829750367674905
-0.002247641363148704,0.002776097115739835,0.00020968580569628788
-0.002686683008662295,0.0027748635346468826,0.00021107354585888456
-0.0031248603996186547,0.002773410648794812,0.00021246061440474497
-0.0035621703250935345,0.002771738891113634,0.0002138469017897221
-0.003998616010444934,0.0027698486945297494,0.00021523229868613294
-0.004434206873747945,0.0027677404888087013,0.00021661669598196755
-0.004868958267915453,0.0027654146975232856,0.00021799998477855053
-0.00530289120830854,0.0027628717351542297,0.0002193820563867199
-0.0057360320856404065,0.0027601120043307423,0.00022076280232159113
-0.0061684123639728595,0.002757135893218339,0.0002221421142959784
-0.006600068263639503,0.002753943773061436,0.00022351988421254835
-0.007031040429033422,0.002750535995888268,0.0002248960041547858
-0.00746137358135506,0.002746912892385671,0.00022627036637685427
-0.007891116156624911,0.0027430747699511756,0.00022764286329243847
-0.008320319929512855,0.002739021910929641,0.0002290133874626587
-0.008749039623784788,0.0027347545710413165,0.00023038183158315142
-0.0091773325103984,0.002730272978007771,0.00023174808847041368
-0.009605257994495365,0.0027255773303815475,0.00023311205104751103
-0.010032877192702952,0.0027206677965847478,0.0002344736123292526
-0.01046025250229056,0.0027155445141609992,0.00023583266540693905
-0.01088744716379197,0.002710207589244479,0.00023718910343279042
-0.011314524818742455,0.0027046570962488453,0.00023854281960416376
-0.011741549064181473,0.002698893077778114,0.0002398937071476705
-0.012168583005539704,0.0026929155447606838,0.0002412416593033052
-0.01259568880944318,0.0026867244768069383,0.00024258656930869712
-0.01302292725784116,0.0026803198227901173,0.00024392833038359638
-0.013450357304738461,0.0026737015016494725,0.00024526683571470627
-0.013878035636763505,0.002666869403414097,0.00024660197844097217
-0.014306016238739531,0.0026598233904452213,0.000247933651639437
-0.014734349965485434,0.002652563298894165,0.00024926174831177184
-0.015163084121044031,0.0026450889403725327,0.0002505861613715885
-0.015592262046529083,0.0026374001038306396,0.00025190678363263934
-0.01602192271777453,0.0026294965576395637,0.0002532235077980069
-0.01645210035396612,0.0026213780518716287,0.0002545362264503847
-0.016882824038285754,0.002613044320773566,0.00025584483204354596
-0.017314117351343656,0.0026044950854261584,0.0002571492168950959
-0.017745998017983693,0.0025957300565838267,0.0002584492731805984
-0.018178477567953072,0.0025867489376873425,0.00025974489292916617
-0.01861156101103766,0.002577551428042595,0.00026103596802059864
-0.01904524652739666,0.0025681372261579863,0.00026232239018414877
-0.019479525174091728,0.002558506033232614,0.00026360405099899644
-0.019914380609140785,0.002548657556786806,0.0002648808418965013
-0.020349788834657857,0.0025385915144258563,0.00026615265416430445
-0.02078571796075678,0.0025283076377270028,0.00026741937895234267
-0.021222127991741883,0.002517805676238878,0.00026868090728083416
-0.021658970635863202,0.0025070854015819765,0.00026993713005028937
-0.022096189139645707,0.0024961466116380994,0.0002711879380535944
-0.022533718147507122,0.0024849891348163113,0.000272433221990208
-0.022971483587056668,0.00247361283438267,0.0002736728724825077
-0.02340940258012094,0.0024620176128408756,0.0002749067800943136
-0.023847383379267312,0.0024502034163510285,0.00027613483535161154
-0.024285325329451615,0.0024381702391738486,0.00027735692876549277
-0.024723118854444052,0.0024259181281278746,0.0002785729508573182
-0.02516064546775417,0.002413447187047325,0.000279782792186112
-0.025597777807901855,0.002400757581228411,0.000280986343378181
-0.026034379698034307,0.002387849541851927,0.00028218349515895104
-0.026470306229912914,0.0023747233703699405,0.0002833741383870065
-0.026905403872295584,0.002361379442844388,0.0002845581640903101
-0.027339510603523107,0.0023478182142254336,0.00028573546350457756
-0.027772456067918797,0.002334040222557573,0.0002869059281137733
