frame_number,force
0,702.3892817793917
1,702.3668974688287
2,702.3445282369238
3,702.3221890782202
4,702.2998948197512
5,702.277660039034
6,702.2554989840991
7,702.2334254961578
8,702.2114529354764
9,702.1895941109841
10,702.1678612140977
11,702.146265757184
12,702.1248185170257
13,702.1035294835993
14,702.0824078144208
15,702.0614617946629
16,702.0406988032063
17,702.0201252847496
18,701.9997467280782
19,701.9795676505503
20,701.9595915888161
21,701.9398210957277
22,701.9202577433358
23,701.9009021318243
24,701.8817539041881
25,701.8628117664364
26,701.8440735130785
27,701.825536057637
28,701.8071954679187
29,701.7890470057615
30,701.7710851709604
31,701.7533037490606
32,701.7356958626852
33,701.7182540260542
34,701.700970202337
35,701.683835863481
36,701.6668420521524
37,701.6499794454352
38,701.6332384199454
39,701.6166091180326
40,701.6000815147396
41,701.5836454851922
42,701.567290872086
43,701.5510075529535
44,701.5347855069058
45,701.5186148805591
46,701.502486052858
47,701.486389698519
48,701.4703168498324
49,701.4542589565882
50,701.4382079439202
51,701.4221562678922
52,701.4060969686639
53,701.3900237210843
54,701.3739308825592
55,701.3578135380394
56,701.3416675419827
57,701.3254895571473
58,701.309277090079
59,701.2930285231557
60,701.2767431430536
61,701.2604211655048
62,701.2440637562222
63,701.2276730478796
64,701.211252153037
65,701.1948051729123
66,701.1783372019175
67,701.1618543278886
68,701.1453636279574
69,701.1288731600289
70,701.1123919498448
71,701.0959299736322
72,701.0794981363568
73,701.0631082456275
74,701.0467729813367
75,701.0305058611549
76,701.0143212020217
77,700.9982340777897
78,700.9822602731693
79,700.9664162341242
80,700.9507190148599
81,700.9351862215789
82,700.919835953193
83,700.9046867392249
84,700.889757475141
85,700.8750673553781
86,700.8606358043348
87,700.8464824056142
88,700.8326268298091
89,700.8190887611304
90,700.8058878231757
91,700.7930435041334
92,700.7805750817047
93,700.7685015480109
94,700.7568415347354
95,700.7456132387327
96,700.7348343483222
97,700.7245219704606
98,700.7146925589873
99,700.7053618441317
100,700.6965447634909
101,700.6882553946958
102,700.6805068899997
103,700.6733114130171
104,700.6666800778443
105,700.6606228907884
106,700.6551486949404
107,700.650265117827
108,700.6459785223859
109,700.6422939615071
110,700.6392151363773
111,700.6367443588657
112,700.6348825181748
113,700.6336290519554
114,700.6329819220439
115,700.6329375949347
116,700.633491027068
117,700.6346356549952
118,700.6363633904697
119,700.6386646204959
120,700.6415282123527
121,700.6449415235912
122,700.6488904169933
123,700.6533592804712
124,700.6583310518822
125,700.6637872487196
126,700.6697080026371
127,700.6760720987481
128,700.6828570196261
129,700.6900389939144
130,700.6975930494299
131,700.7054930706128
132,700.7137118601429
133,700.7222212045064
134,700.7309919432784
135,700.7399940418774
136,700.7491966675369
137,700.7585682682193
138,700.7680766541639
139,700.7776890817299
140,700.787372339168
141,700.7970928339497
142,700.8068166812823
143,700.8165097934357
144,700.8261379695069
145,700.8356669852482
146,700.8450626825903
147,700.8542910585026
148,700.8633183528399
149,700.8721111348448
150,700.8806363879844
151,700.8888615928155
152,700.896754807579
153,700.9042847462342
154,700.9114208536608
155,700.9181333777764
156,700.924393438338
157,700.9301730922142
158,700.9354453949262
159,700.9401844582777
160,700.94436550391
161,700.9479649126409
162,700.950960269469
163,700.9533304041544
164,700.9550554273226
165,700.9561167620639
166,700.956497171014
167,700.9561807789012
168,700.9551530905417
169,700.9534010042777
170,700.950912820866
171,700.9476782478463
172,700.9436883994317
173,700.9389357919846
174,700.9334143351596
175,700.9271193188364
176,700.9200473960001
177,700.9121965617629
178,700.9035661287485
179,700.8941566990729
180,700.883970133165
181,700.8730095156675
182,700.8612791186637
183,700.848784362471
184,700.8355317742431
185,700.8215289446204
186,700.8067844826636
187,700.7913079693075
188,700.7751099095636
189,700.7582016837039
190,700.740595497651
191,700.7223043328045
192,700.703341895523
193,700.6837225664787
194,700.6634613500858
195,700.6425738241876
196,700.6210760901644
197,700.5989847235994
198,700.5763167256202
199,700.553089475009
200,700.5293206811571
201,700.5050283379226
202,700.4802306784347
203,700.4549461308845
204,700.4291932753323
205,700.4029908015635
206,700.3763574680263
207,700.3493120618931
208,700.3218733603006
209,700.2940600928249
210,700.2658909052445
211,700.2373843246318
212,700.2085587257958
213,700.179432299084
214,700.1500230195277
215,700.1203486173002
216,700.0904265494463
217,700.0602739728319
218,700.0299077182691
219,699.9993442657757
220,699.9685997209414
221,699.93768979239
222,699.9066297703372
223,699.8754345062613
224,699.8441183937136
225,699.8126953503081
226,699.7811788009308
227,699.7495816622111
228,699.7179163282909
229,699.686194657925
230,699.654427962948
231,699.6226269981553
232,699.5908019526515
233,699.5589624427354
234,699.5271175063726
235,699.4952755992882
236,699.463444592668
237,699.4316317724312
238,699.3998438400204
239,699.3680869146502
240,699.3363665369537
241,699.3046876739659
242,699.273054725391
243,699.2414715311088
244,699.2099413798833
245,699.1784670192477
246,699.147050666538
247,699.1156940210494
248,699.0843982772864
249,699.0531641392718
250,699.0219918358865
251,698.9908811372209
252,698.959831371936
253,698.9288414456465
254,698.8979098603364
255,698.8670347348243
256,698.8362138262905
257,698.8054445528792
258,698.7747240173787
259,698.7440490319749
260,698.7134161440538
261,698.6828216630161
262,698.6522616880451
263,698.6217321367554
264,698.5912287746329
265,698.5607472451652
266,698.5302831005534
267,698.4998318328892
268,698.4693889056798
269,698.4389497856044
270,698.4085099743851
271,698.3780650406635
272,698.347610651784
273,698.3171426053901
274,698.2866568607487
275,698.2561495697164
276,698.2256171072626
277,698.1950561014629
278,698.1644634628784
279,698.1338364132357
280,698.1031725133246
281,698.0724696900392
282,698.0417262625076
283,698.0109409672685
284,697.9801129824591
285,697.949241950972
286,697.918328002529
287,697.8873717746003
288,697.8563744320741
289,697.8253376855664
290,697.7942638082505
291,697.7631556510976
292,697.7320166564375
293,697.7008508697686
294,697.6696629497641
295,697.6384581764482
296,697.6072424575387
297,697.5760223329713
298,697.5448049776336
299,697.5135982023327
300,697.4824104530164
301,697.4512508082593
302,697.4201289750125
303,697.3890552826177
304,697.3580406750809
305,697.3270967016216
306,697.2962355055242
307,697.2654698113342
308,697.2348129104513
309,697.2042786451772
310,697.1738813912679
311,697.1436360390327
312,697.1135579730186
313,697.0836630503209
314,697.0539675775701
315,697.0244882866498
316,696.995242309198
317,696.9662471499494
318,696.9375206589756
319,696.9090810028939
320,696.880946635112
321,696.8531362651803
322,696.82566882732
323,696.7985634481948
324,696.7718394139996
325,696.7455161369309
326,696.7196131211061
327,696.6941499280002
328,696.6691461414755
329,696.6446213324872
330,696.620595023547
331,696.5970866530265
332,696.5741155393804
333,696.5517008453679
334,696.5298615423484
335,696.5086163747274
336,696.4879838246325
337,696.467982076905
338,696.448628984498
339,696.429942034376
340,696.4119383140134
341,696.3946344785852
342,696.3780467189408
343,696.3621907304389
344,696.3470816827165
345,696.3327341904538
346,696.319162285199
347,696.3063793883242
348,696.294398285192
349,696.2832311006187
350,696.2728892757259
351,696.2633835462722
352,696.2547239225582
353,696.2469196709911
354,696.2399792973775
355,696.2339105320029
356,696.2287203165365
357,696.2244147927981
358,696.2209992934213
359,696.2184783344431
360,696.2168556098487
361,696.2161339880887
362,696.2163155105737
363,696.2174013921331
364,696.2193920234129
365,696.2222869751822
366,696.2260850045102
367,696.2307840627682
368,696.2363813053997
369,696.242873103389
370,696.2502550563519
371,696.2585220071672
372,696.2676680580558
373,696.2776865880023
374,696.2885702714061
375,696.3003110978481
376,696.3129003928548
377,696.3263288395445
378,696.340586501037
379,696.355662843519
380,696.371546759866
381,696.38822659372
382,696.4056901639138
383,696.423924789119
384,696.4429173125941
385,696.4626541269223
386,696.4831211986532
387,696.5043040927914
388,696.5261879970951
389,696.5487577461631
390,696.5719978452948
391,696.5958924941111
392,696.6204256099204
393,696.6455808508153
394,696.6713416384893
395,696.6976911807687
396,696.7246124938606
397,696.7520884243135
398,696.7801016706949
399,696.8086348049823
400,696.8376702936591
401,696.8671905185033
402,696.8971777970439
403,696.9276144026599
404,696.9584825842903
405,696.9897645857325
406,697.0214426645073
407,697.0534991102842
408,697.0859162628678
409,697.1186765297597
410,697.151762403309
411,697.1851564774682
412,697.2188414641582
413,697.2528002092382
414,697.2870157080686
415,697.3214711206504
416,697.3561497863308
417,697.3910352380644
418,697.4261112162246
419,697.4613616819607
420,697.4967708301016
421,697.5323231016076
422,697.5680031955721
423,697.6037960807607
424,697.6396870066609
425,697.6756615140025
426,697.7117054447081
427,697.747804951235
428,697.783946505282
429,697.8201169058381
430,697.8563032865699
431,697.89249312255
432,697.9286742363441
433,697.9648348034727
434,698.000963357262
435,698.0370487930887
436,698.0730803720239
437,698.1090477238763
438,698.1449408496374
439,698.1807501233262
440,698.216466293231
441,698.2520804825348
442,698.287584189303
443,698.3229692857925
444,698.3582280170463
445,698.3933529987396
446,698.4283372142626
447,698.4631740110281
448,698.497857096
449,698.5323805304317
450,698.5667387238007
451,698.6009264269225
452,698.6349387242362
453,698.6687710252571
454,698.7024190551991
455,698.7358788447791
456,698.7691467192263
457,698.8022192865467
458,698.8350934251158
459,698.8677662707044
460,698.900235203055
461,698.9324978321365
462,698.9645519841876
463,698.9963956876499
464,699.0280271590802
465,699.0594447891343
466,699.0906471287142
467,699.1216328753699
468,699.1524008600314
469,699.1829500341346
470,699.2132794571863
471,699.2433882848028
472,699.273275757242
473,699.3029411884547
474,699.3323839556895
475,699.3616034897076
476,699.3905992656804
477,699.4193707948529
478,699.4479176170701
479,699.4762392942687
480,699.5043354050345
481,699.5322055403149
482,699.5598493003505
483,699.5872662928659
484,699.6144561325323
485,699.6414184416915
486,699.6681528523101
487,699.6946590091059
488,699.7209365737806
489,699.7469852302816
490,699.7728046910147
491,699.7983947039263
492,699.8237550603699
493,699.8488856036673
494,699.8737862382699
495,699.898456939427
496,699.9228977632782
497,699.9471088572984
498,699.9710904710444
499,699.9948429671659
500,700.0183668326486
501,700.0416626902447
502,700.0647313100395
503,700.087573621083
504,700.1101907230174
505,700.1325838976273
506,700.1547546202507
507,700.1767045709895
508,700.19843564567
509,700.2199499665021
510,700.2412498923843
511,700.2623380287981
512,700.2832172372462
513,700.3038906442033
514,700.3243616495719
515,700.344633934644
516,700.3647114695789
517,700.3845985204019
518,700.4042996555419
519,700.4238197519302
520,700.4431640006895
521,700.4623379124203
522,700.4813473220676
523,700.5001983933206
524,700.5188976224766
525,700.5374518416868
526,700.5558682214917
527,700.5741542725434
528,700.5923178464174
529,700.6103671354338
530,700.628310671443
531,700.6461573235532
532,700.6639162947934
533,700.6815971177055
534,700.6992096488527
535,700.7167640622288
536,700.7342708415408
537,700.7517407713309
538,700.7691849268897
539,700.7866146629211
540,700.8040416009181
541,700.8214776152126
542,700.8389348176597
543,700.8564255409135
544,700.8739623202525
545,700.8915578739106
546,700.9092250818749
547,700.9269769631155
548,700.9448266512238
549,700.9627873684411
550,700.9808723980767
551,700.999095055322
552,701.0174686564802
553,701.0360064866418
554,701.0547217658477
555,701.073627613799
556,701.0927370131823
557,701.1120627716958
558,701.1316174828725
559,701.1514134858104
560,701.1714628239314
561,701.1917772028779
562,701.2123679476456
563,701.2332459590318
564,701.2544216694696
565,701.275904998316
566,701.2977053066758
567,701.3198313518612
568,701.3422912416161
569,701.3650923882459
570,701.3882414628144
571,701.4117443495664
572,701.4356061007537
573,701.4598308920549
574,701.4844219787981
575,701.5093816532092
576,701.5347112029195
577,701.5604108709662
578,701.5864798175238
579,701.6129160836185
580,701.6397165570917
581,701.6668769410933
582,701.6943917253847
583,701.7222541607077
584,701.750456236447
585,701.7789886617752
586,701.8078408504416
587,701.8370009093284
588,701.8664556308759
589,701.8961904894646
590,701.9261896418427
591,701.95643593169
592,701.9869108984018
593,702.0175947901633
594,702.0484665813718
595,702.0795039944501
596,702.1106835260708
597,702.1419804777834
598,702.173368991005
599,702.2048220863118
600,702.2363117069391
601,702.2678087663742
602,702.2992831999028
603,702.3307040199614
604,702.3620393751444
605,702.393256612717
606,702.4243223444769
607,702.4552025157867
608,702.4858624775827
609,702.516267061146
610,702.5463806554078
611,702.5761672865501
612,702.6055906996551
613,702.6346144421526
614,702.6632019488123
615,702.6913166280291
616,702.7189219491623
617,702.7459815307024
618,702.7724592290464
619,702.7983192276669
620,702.8235261264402
621,702.8480450308773
622,702.8718416409603
623,702.8948823392618
624,702.9171342780093
625,702.9385654647679
626,702.9591448464381
627,702.9788423912862
628,702.9976291687514
629,703.015477426794
630,703.0323606665692
631,703.0482537142193
632,703.063132789591
633,703.076975571696
634,703.0897612607451
635,703.1014706365912
636,703.1120861134167
637,703.1215917904983
638,703.1299734988871
639,703.1372188438509
640,703.1433172429363
641,703.1482599595093
642,703.1520401316282
643,703.1546527960961
644,703.156094907543
645,703.1563653523995
646,703.1554649576674
647,703.1533964944267
648,703.1501646760541
649,703.1457761511588
650,703.1402394912651
651,703.1335651733011
652,703.1257655569646
653,703.1168548570565
654,703.1068491108811
655,703.0957661408179
656,703.0836255121817
657,703.0704484864802
658,703.0562579701804
659,703.0410784590906
660,703.024935978471
661,703.0078580189852
662,702.9898734686128
663,702.971012540646
664,702.9513066979044
665,702.9307885733208
666,702.9094918870703
667,702.88745136044
668,702.8647026266635
669,702.8412821389732
670,702.8172270761443
671,702.7925752458284
672,702.7673649859701
673,702.7416350645941
674,702.7154245782378
675,702.6887728492992
676,702.6617193225842
677,702.6343034613567
678,702.6065646432104
679,702.5785420560852
680,702.550274594748
681,702.5218007580513
682,702.49315854728
683,702.4643853658865
684,702.4355179209066
685,702.4065921263297
686,702.3776430086847
687,702.3487046150893
688,702.319809923996
689,702.2909907588557
690,702.2622777049094
691,702.2337000293098
692,702.205285604776
693,702.1770608369629
694,702.1490505957164
695,702.1212781503594
696,702.0937651091526
697,702.0665313630745
698,702.039595034083
699,702.0129724280275
700,701.9866779923799
701,701.9607242789351
702,701.9351219116068
703,701.9098795594193
704,701.8850039147734
705,701.8604996770346
706,701.8363695414805
707,701.8126141936278
708,701.7892323089523
709,701.7662205579943
710,701.7435736168159
711,701.7212841827451
712,701.6993429953264
713,701.6777388623815
714,701.6564586910779
715,701.6354875239016
716,701.6148085794197
717,701.5944032977127
718,701.5742513903455
719,701.554330894741
720,701.5346182328201
721,701.5150882737701
722,701.4957144008055
723,701.4764685817794
724,701.4573214435019
725,701.4382423496153
726,701.4191994818651
727,701.4001599245826
728,701.3810897521726
729,701.3619541193879
730,701.3427173541683
731,701.3233430528317
732,701.3037941774131
733,701.2840331549543
734,701.2640219785501
735,701.24372230997
736,701.2230955836759
737,701.2021031120584
738,701.1807061917069
739,701.1588662105204
740,701.1365447554658
741,701.1137037207992
742,701.0903054165673
743,701.0663126772137
744,701.0416889701146
745,701.016398503868
746,700.990406336156
747,700.9636784809868
748,700.9361820151101
749,700.9078851833834
750,700.8787575028542
751,700.8487698653078
752,700.817894638018
753,700.7861057624295
754,700.7533788504857
755,700.7196912783007
756,700.6850222768713
757,700.6493530195136
758,700.6126667057232
759,700.574948641172
760,700.5361863135821
761,700.4963694642461
762,700.4554901549789
763,700.4135428302989
764,700.3705243746334
765,700.326434164346
766,700.28127411439
767,700.235048719416
768,700.1877650891872
769,700.1394329781937
770,700.0900648093796
771,700.0396756919176
772,699.9882834329726
773,699.9359085434063
774,699.8825742373948
775,699.8283064259539
776,699.7731337044014
777,699.7170873338126
778,699.6602012165428
779,699.6025118659064
780,699.544058370114
781,699.4848823505712
782,699.425027914646
783,699.3645416030058
784,699.3034723316221
785,699.24187132854
786,699.1797920655185
787,699.117290184647
788,699.054423420051
789,698.9912515148073
790,698.9278361332005
791,698.8642407684689
792,698.8005306462055
793,698.7367726235842
794,698.6730350845957
795,698.6093878314819
796,698.5459019725608
797,698.4826498066277
798,698.4197047041138
799,698.3571409851934
800,698.2950337950462
801,698.2334589764997
802,698.1724929402875
803,698.1122125331531
804,698.052694904039
805,697.9940173685953
806,697.9362572722476
807,697.8794918520603
808,697.8237980976373
809,697.7692526113165
810,697.7159314679268
811,697.6639100743985
812,697.6132630295252
813,697.5640639842002
814,697.5163855024682
815,697.4702989237545
816,697.425874226633
817,697.3831798944813
818,697.342282783346
819,697.3032479923195
820,697.2661387367066
821,697.23101622425
822,697.19793953466
823,697.1669655026744
824,697.1381486048473
825,697.1115408502435
826,697.0871916751952
827,697.0651478422642
828,697.0454533435451
829,697.0281493084302
830,697.0132739159399
831,697.0008623117039
832,696.9909465296723
833,696.9835554186365
834,696.9787145736526
835,696.9764462724703
836,696.9767694170904
837,696.9796994806103
838,696.9852484595477
839,696.9934248318563
840,697.0042335208436
841,697.017675865181
842,697.0337495951599
843,697.0524488153198
844,697.0737639935459
845,697.0976819567135
846,697.1241858929411
847,697.1532553604892
848,697.1848663033319
849,697.2189910734144
850,697.2555984595953
851,697.2946537232489
852,697.3361186404719
853,697.379951550813
854,697.4261074124286
855,697.4745378635685
856,697.5251912902942
857,697.5780129003392
858,697.6329448030198
859,697.6899260950986
860,697.7488929524932
861,697.8097787276937
862,697.8725140527284
863,697.937026947481
864,698.0032429331312
865,698.0710851504648
866,698.1404744827739
867,698.2113296830582
868,698.2835675052255
869,698.3571028389971
870,698.4318488482259
871,698.5077171123306
872,698.5846177705425
873,698.662459668653
874,698.7411505079536
875,698.8205969960662
876,698.9007049993689
877,698.9813796967362
878,699.0625257343247
879,699.1440473811472
880,699.225848685178
881,699.3078336297235
882,699.3899062897771
883,699.4719709880635
884,699.5539324504709
885,699.6356959605619
886,699.7171675128575
887,699.7982539645956
888,699.8788631856769
889,699.9589042065344
890,700.03828736368
891,700.1169244427011
892,700.1947288184869
893,700.2716155924645
894,700.3475017266278
895,700.4223061741336
896,700.495950006251
897,700.5683565354572
898,700.6394514344938
899,700.7091628512047
900,700.777421518985
901,700.8441608626699
902,700.9093170996894
903,700.972829336309
904,701.0346396587777
905,701.0946932191921
906,701.152938315886
907,701.2093264681494
908,701.263812485102
909,701.3163545285645
910,701.3669141697901
911,701.4154564399255
912,701.461949874081
913,701.5063665488977
914,701.5486821135141
915,701.5888758138484
916,701.6269305101259
917,701.6628326875916
918,701.6965724603557
