frame_number,force
0,710.333462590773
1,710.3647551110166
2,710.3925172510573
3,710.4167610233497
4,710.4375039312421
5,710.4547655374039
6,710.4685652445289
7,710.4789218852173
8,710.4858555633764
9,710.4893918420706
10,710.4895679190631
11,710.4864400561214
12,710.4800913878198
13,710.470639335314
14,710.4582420529257
15,710.4431034743616
16,710.425476532266
17,710.4056640773465
18,710.3840170740204
19,710.3609298901993
20,710.336832883215
21,710.3121828652866
22,710.2874522627136
23,710.263117790262
24,710.2396492702592
25,710.2174989430999
26,710.1970913811089
27,710.1788140251891
28,710.1630084310685
29,710.1499624844147
30,710.1399039970005
31,710.1329960999798
32,710.1293346974155
33,710.1289480570496
34,710.131798494411
35,710.1377860295372
36,710.1467538019853
37,710.1584949122745
38,710.1727602717569
39,710.1892670539964
40,710.2077074384081
41,710.227757427764
42,710.2490855442537
43,710.271361190637
44,710.2942624453458
45,710.3174830529686
46,710.3407383837721
47,710.3637701931112
48,710.3863501160579
49,710.4082819389137
50,710.4294027545347
51,710.4495831443083
52,710.4687265626878
53,710.4867681196434
54,710.5036729509386
55,710.519434364127
56,710.5340719704603
57,710.5476300206678
58,710.5601760957431
59,710.5718001665824
60,710.5826139104814
61,710.5927501242645
62,710.6023620662893
63,710.6116224950867
64,710.6207220385877
65,710.629866467253
66,710.6392726032738
67,710.649162918633
68,710.6597591464041
69,710.6712753370745
70,710.6839107902057
71,710.6978432494722
72,710.7132226565288
73,710.7301656164276
74,710.7487506066037
75,710.7690139258908
76,710.7909464019654
77,710.814490891341
78,710.8395406100648
79,710.8659383583035
80,710.893476744224
81,710.9218995444709
82,710.9509043536905
83,710.9801466584142
84,711.0092453743733
85,711.0377897043829
86,711.0653470034449
87,711.0914713138955
88,711.1157123861329
89,711.137625201692
90,711.1567800913995
91,711.172773422068
92,711.1852385722465
93,711.1938566418089
94,711.1983661383763
95,711.1985708281618
96,711.1943450516078
97,711.1856360472859
98,711.1724631676299
99,711.1549142860536
100,711.1331400833334
101,711.107347088969
102,711.0777902695081
103,711.0447657161142
104,711.0086037594511
105,710.9696626899415
106,710.928323136985
107,710.8849830248419
108,710.8400528952722
109,710.7939513148632
110,710.7471001118498
111,710.6999193044716
112,710.6528217154105
113,710.6062073510197
114,710.560457663541
115,710.5159298321869
116,710.4729511927895
117,710.431813915468
118,710.3927699911563
119,710.3560265491327
120,710.3217415072397
121,710.2900196039377
122,710.2609089888615
123,710.2343986703037
124,710.2104171251283
125,710.1888322562821
126,710.1694527399926
127,710.1520307700955
128,710.1362663103176
129,710.1218130988588
130,710.1082866778265
131,710.095274591867
132,710.0823486429537
133,710.069078775581
134,710.0550479171802
135,710.0398670100591
136,710.0231895262427
137,710.0047248532319
138,709.9842500112302
139,709.9616192253789
140,709.9367709514263
141,709.9097320077377
142,709.8806184757818
143,709.8496330597374
144,709.8170587429731
145,709.7832488692278
146,709.7486141568162
147,709.7136075369408
148,709.6787079566834
149,709.6444042757304
150,709.6111801333655
151,709.5795003342006
152,709.5497990456774
153,709.5224699612812
154,709.497858522806
155,709.4762562204392
156,709.457896829403
157,709.4429542534469
158,709.4315415752054
159,709.4237110258945
160,709.4194547938184
161,709.4187067499123
162,709.4213451992482
163,709.4271966898607
164,709.4360408078263
165,709.447615825969
166,709.4616250481265
167,709.4777436704117
168,709.4956259650457
169,709.5149125898414
170,709.5352378322203
171,709.5562366204116
172,709.5775511912558
173,709.5988373538638
174,709.6197702409344
175,709.6400492714439
176,709.6594018893061
177,709.6775856681164
178,709.694388617802
179,709.7096278745487
180,709.7231472575169
181,709.7348143376479
182,709.7445176235607
183,709.7521642482135
184,709.7576782863687
185,709.7609996994497
186,709.7620838939096
187,709.7609018958447
188,709.7574411300466
189,709.7517067495803
190,709.7437234240062
191,709.7335374893445
192,709.7212193735551
193,709.7068661921007
194,709.6906043670765
195,709.6725921126693
196,709.6530216428281
197,709.6321209282853
198,709.6101547472123
199,709.587424698324
200,709.5642678295189
201,709.5410536060622
202,709.5181791096139
203,709.4960625468691
204,709.475135224842
205,709.4558321357446
206,709.4385813696873
207,709.4237928049961
208,709.4118467366497
209,709.4030831356432
210,709.3977921769418
211,709.3962066942739
212,709.3984972674683
213,709.4047705118168
214,709.4150707243697
215,709.4293844697966
216,709.4476471596845
217,709.4697503597265
218,709.4955485564258
219,709.524864427962
220,709.5574921361798
221,709.5931985711484
222,709.6317227358231
223,709.6727736177751
224,709.7160270587582
225,709.7611223095208
226,709.8076590553072
227,709.8551956422787
228,709.9032490706671
229,709.9512971497481
230,709.9987830491976
231,710.0451222504199
232,710.0897115702704
233,710.1319396267447
234,710.1711980407645
235,710.2068928745975
236,710.2384561230934
237,710.2653572854817
238,710.2871150956581
239,710.3033094218546
240,710.3135931808549
241,710.3177038741763
242,710.3154741361144
243,710.306840571937
244,710.2918501709876
245,710.2706636823253
246,710.2435555291385
247,710.2109101046484
248,710.1732146101059
249,710.1310489046733
250,710.085073053813
251,710.0360133236362
252,709.9846472702385
253,709.9317883961212
254,709.8782707278715
255,709.8249336743957
256,709.7726075501662
257,709.7221000557388
258,709.6741838246407
259,709.6295850145932
260,709.5889728932765
261,709.5529503756069
262,709.5220454706895
263,709.4967036251879
264,709.4772810207767
265,709.4640389558269
266,709.4571394781733
267,709.4566424564536
268,709.4625043275005
269,709.47457882181
270,709.492619957754
271,709.5162874475889
272,709.5451544366395
273,709.5787173260186
274,709.6164073687077
275,709.6576037498336
276,709.7016479044144
277,709.7478588207259
278,709.795548953074
279,709.8440401098412
280,709.8926784025813
281,709.9408472358234
282,709.987977506215
283,710.0335545924426
284,710.0771221513369
285,710.1182830302006
286,710.1566977548589
287,710.1920811490139
288,710.224197729616
289,710.2528565653313
290,710.2779062268914
291,710.299230287029
292,710.3167435906357
293,710.3303893142638
294,710.3401367519738
295,710.345979773465
296,710.3479358913341
297,710.3460457964239
298,710.3403731288314
299,710.3310042244169
300,710.3180476399396
301,710.3016333740121
302,710.2819117714365
303,710.2590520622871
304,710.2332404015798
305,710.2046772478045
306,710.1735739651633
307,710.1401486074878
308,710.1046209556276
309,710.0672070760401
310,710.0281138916049
311,709.9875343860513
312,709.945644045341
313,709.902599015414
314,709.8585362929524
315,709.8135760876603
316,709.7678262917193
317,709.7213887686547
318,709.6743669469735
319,709.6268739986416
320,709.5790407554978
321,709.5310225272775
322,709.483004129843
323,709.4352026577051
324,709.3878677905152
325,709.3412796661437
326,709.2957445453115
327,709.2515886297691
328,709.209150498731
329,709.168772689895
330,709.1307929262696
331,709.0955353594022
332,709.0633020323634
333,709.0343646759527
334,709.0089569826035
335,708.9872675872332
336,708.9694340265547
337,708.9555379155447
338,708.9456015153721
339,708.939585823942
340,708.9373902866105
341,708.9388541419496
342,708.9437592802647
343,708.9518343897789
344,708.9627601921208
345,708.9761757209275
346,708.9916857703846
347,709.0088697219956
348,709.0272919170724
349,709.046513608067
350,709.0661062874159
351,709.0856658484335
352,709.1048267074493
353,709.1232749231334
354,709.1407595251704
355,709.1571015089213
356,709.1722000945498
357,709.1860359470842
358,709.1986712460831
359,709.2102467527526
360,709.2209761702949
361,709.231138044117
362,709.2410653497412
363,709.2511329786729
364,709.2617435681698
365,709.2733123454441
366,709.2862517214021
367,709.3009562957818
368,709.3177888300772
369,709.337067655119
370,709.3590558869962
371,709.3839527243445
372,709.4118870160733
373,709.4429132099436
374,709.4770096857186
375,709.5140793724721
376,709.5539525234091
377,709.5963915711346
378,709.641098013435
379,709.6877212135271
380,709.7358688648773
381,709.7851187251309
382,709.8350311052064
383,709.8851615524744
384,709.9350732056046
385,709.9843483546625
386,710.0325987441885
387,710.0794741418741
388,710.124668750446
389,710.1679252121017
390,710.2090362045468
391,710.2478438509493
392,710.2842372862366
393,710.3181487705959
394,710.3495487921174
395,710.3784406445428
396,710.4048549250714
397,710.4288442585598
398,710.4504784141236
399,710.4698399398046
400,710.4870204962657
401,710.5021181148562
402,710.5152355554707
403,710.5264798309879
404,710.5359628799488
405,710.5438033106185
406,710.5501290400496
407,710.5550804812049
408,710.5588137576282
409,710.5615033677117
410,710.563343830433
411,710.5645500338517
412,710.5653561392982
413,710.5660129293124
414,710.5667835042402
415,710.5679373297057
416,710.569742845946
417,710.5724591021807
418,710.5763270464538
419,710.581561086713
420,710.5883413539439
421,710.5968068615416
422,710.6070495954955
423,710.6191095179829
424,710.6329704629703
425,710.648556904921
426,710.6657316196474
427,710.6842943570072
428,710.7039817543342
429,710.724468752206
430,710.7453717393008
431,710.7662536438497
432,710.7866312284898
433,710.8059848318939
434,710.823770629555
435,710.839435159126
436,710.8524314861342
437,710.8622361396235
438,710.8683659363483
439,710.8703940041953
440,710.8679645605646
441,710.8608061511597
442,710.8487430552672
443,710.8317044746368
444,710.80973107046
445,710.782978486995
446,710.7517176772457
447,710.716332026695
448,710.6773113879394
449,710.635243197723
450,710.5908008834355
451,710.5447297985033
452,710.4978309600875
453,710.4509429105473
454,710.4049221060103
455,710.3606223422254
456,710.3188738088132
457,710.2804623716705
458,710.2461096242687
459,710.2164541705243
460,710.1920345545268
461,710.173274246289
462,710.160469094349
463,710.1537776255883
464,710.1532145096454
465,710.1586474531978
466,710.1697977712028
467,710.1862448383291
468,710.2074344732512
469,710.2326910668918
470,710.2612330275737
471,710.2921909385434
472,710.324627707572
473,710.3575599540773
474,710.3899799768325
475,710.4208778718079
476,710.4492636081941
477,710.4741889517944
478,710.4947689666444
479,710.5102025195127
480,710.5197909721508
481,710.5229542502664
482,710.5192437304936
483,710.50835173979
484,710.4901177494419
485,710.4645314578037
486,710.4317328580137
487,710.392009180503
488,710.3457885088148
489,710.2936300439974
490,710.2362113479502
491,710.1743131859995
492,710.108802659281
493,710.0406152054354
494,709.9707358733906
495,709.9001801303804
496,709.8299743762057
497,709.7611363328332
498,709.6946555293399
499,709.6314741875792
500,709.5724689087488
501,709.5184336197451
502,709.4700642291708
503,709.4279453958493
504,709.3925397476461
505,709.3641797579741
506,709.3430622870458
507,709.3292456442617
508,709.322649048489
509,709.323054523212
510,709.330111396045
511,709.3433435436731
512,709.3621593714518
513,709.3858643769411
514,709.4136760768852
515,709.4447410290695
516,709.4781536027518
517,709.5129760561322
518,709.5482594159598
519,709.5830646418086
520,709.6164835629701
521,709.6476590676382
522,709.6758040092091
523,709.7002182886364
524,709.7203035733594
525,709.7355751314378
526,709.7456703261298
527,709.7503534453385
528,709.7495167201064
529,709.7431776210404
530,709.7314728164847
531,709.7146494650908
532,709.6930546693864
533,709.6671238547841
534,709.6373685991258
535,709.6043641442891
536,709.5687366030776
537,709.5311498166243
538,709.492291933887
539,709.4528619994283
540,709.413557007122
541,709.3750598999433
542,709.3380288832207
543,709.3030882701839
544,709.2708209865494
545,709.2417628354834
546,709.2163985760816
547,709.1951597102426
548,709.1784236412362
549,709.1665136731409
550,709.1596992213247
551,709.1581956014528
552,709.1621628600991
553,709.1717033089484
554,709.1868577157661
555,709.2076004465532
556,709.233834159892
557,709.2653848381462
558,709.301997970467
559,709.3433366021931
560,709.3889817717156
561,709.4384356191381
562,709.4911272228037
563,709.5464210195937
564,709.6036275002723
565,709.6620157775243
566,709.7208276234276
567,709.7792926229286
568,709.8366441295818
569,709.8921357130358
570,709.9450577594179
571,709.9947538595608
572,710.0406366331224
573,710.0822026613682
574,710.1190461556998
575,710.150870848319
576,710.1774994361892
577,710.1988798434626
578,710.2150876331898
579,710.2263240877753
580,710.2329097743706
581,710.2352737839544
582,710.2339391987548
583,710.229505593187
584,710.2226294406664
585,710.2140032135884
586,710.2043338533273
587,710.194321263805
588,710.1846375324973
589,710.1759076161693
590,710.1686922016751
591,710.1634733725245
592,710.1606435656236
593,710.1604980648902
594,710.1632309949314
595,710.168934572693
596,710.1776013391751
597,710.1891291737365
598,710.2033289396793
599,710.2199345506604
600,710.2386151518147
601,710.2589890443621
602,710.2806389259918
603,710.303127962701
604,710.326016216975
605,710.3488770479795
606,710.3713131425598
607,710.3929716895522
608,710.4135579130034
609,710.432845944588
610,710.4506860432012
611,710.4670074916222
612,710.4818169648528
613,710.495192573496
614,710.5072740602262
615,710.5182498341676
616,710.5283417445675
617,710.5377887097256
618,710.5468304575556
619,710.5556926317859
620,710.5645743358328
621,710.573638842629
622,710.5830077733448
623,710.592758645913
624,710.6029254094512
625,710.6135014729008
626,710.6244447622094
627,710.6356843352745
628,710.6471279348403
629,710.658669677711
630,710.6701970828793
631,710.6815969046969
632,710.6927596365099
633,710.7035829106167
634,710.7139742322773
635,710.7238535132592
636,710.7331557210051
637,710.7418336791947
638,710.7498607581241
639,710.7572330280884
640,710.7639704941994
641,710.7701172528973
642,710.7757407029975
643,710.7809301741631
644,710.7857954153951
645,710.7904653326698
646,710.7950872540172
647,710.7998268852195
648,710.804869003177
649,710.8104187921775
650,710.8167035610716
651,710.823974433346
652,710.8325075172972
653,710.8426040279381
654,710.8545888193476
655,710.8688068082605
656,710.8856168640472
657,710.9053829209112
658,710.9284623090266
659,710.9551915524985
660,710.9858700986676
661,711.020742606475
662,711.0599805379003
663,711.1036638861967
664,711.1517639556082
665,711.2041281771186
666,711.2604679886072
667,711.3203508224577
668,711.3831972098064
669,711.4482838498524
670,711.5147531387423
671,711.5816291648629
672,711.6478397076007
673,711.7122434295613
674,711.7736612202006
675,711.8309104619283
676,711.882840807652
677,711.9283699150117
678,711.9665175365782
679,711.9964364353891
680,712.0174387703265
681,712.0290168693346
682,712.030857659103
683,712.0228504020565
684,712.005087767123
685,711.9778606185657
686,711.9416472477589
687,711.8970980608414
688,711.8450168824676
689,711.7863399873372
690,711.722113776722
691,711.6534717614026
692,711.5816112373841
693,711.5077697876045
694,711.433201580264
695,711.3591533943205
696,711.2868403609373
697,711.2174215439917
698,711.1519756758416
699,711.0914775596583
700,711.0367757750129
701,710.9885723730804
702,710.9474053014981
703,710.9136344155312
704,710.8874320360653
705,710.8687789658085
706,710.8574666355657
707,710.8531056894992
708,710.8551408741646
709,710.8628715829283
710,710.8754769180225
711,710.8920438324221
712,710.9115968843289
713,710.9331282946742
714,710.9556271969765
715,710.9781071380696
716,710.9996310416205
717,711.0193330177781
718,711.0364366218099
719,711.0502694421884
720,711.0602741746121
721,711.0660164939978
722,711.0671899866161
723,711.063618181408
724,711.0552534876841
725,711.042172800671
726,711.0245697212227
727,711.0027436068248
728,710.9770858661782
729,710.9480639964758
730,710.9162038977325
731,710.8820710162386
732,710.8462508526409
733,710.8093293203465
734,710.771873423503
735,710.7344128069007
736,710.6974228767166
737,710.6613102855816
738,710.6264015507976
739,710.5929354587923
740,710.5610597460238
741,710.5308323335198
742,710.5022271023565
743,710.4751438291614
744,710.449421507378
745,710.4248539534071
746,710.4012064014529
747,710.3782317464855
748,710.3556852316794
749,710.3333367039786
750,710.3109799659628
751,710.2884390716008
752,710.2655716166269
753,710.2422692583848
754,710.2184559273119
755,710.194084406377
756,710.1691320489155
757,710.1435963262255
758,710.1174906765376
759,710.0908408527952
760,710.0636817267047
761,710.0360543440312
762,710.0080029398263
763,709.9795716181699
764,709.9508005004296
765,709.9217213223003
766,709.8923526233068
767,709.8626947471507
768,709.8327248549417
769,709.8023921142141
770,709.7716132619416
771,709.7402688779113
772,709.7082008343159
773,709.6752113736638
774,709.6410641374874
775,709.6054873613913
776,709.5681793978085
777,709.5288166390233
778,709.4870637828155
779,709.4425862973862
780,709.3950648832366
781,709.3442115687808
782,709.2897867992054
783,709.2316166537169
784,709.1696092996658
785,709.1037699155648
786,709.0342134448887
787,708.9611746150281
788,708.8850147014239
789,708.8062245753464
790,708.7254236625357
791,708.6433545692737
792,708.5608733123328
793,708.4789353129204
794,708.3985775367767
795,708.3208973262142
796,708.247028571276
797,708.1781159505008
798,708.1152880408124
799,708.059630082493
800,708.0121570475923
801,707.9737874770792
802,707.945318465842
803,707.927402254529
804,707.9205250799948
805,707.9249891273586
806,707.9408985119387
807,707.9681501409522
808,708.0064300718889
809,708.0552156742831
810,708.1137836302895
811,708.1812236634037
812,708.2564578465077
813,708.3382652859885
814,708.4253117678523
815,708.5161835510315
816,708.6094240343274
817,708.7035717176745
818,708.7971978317624
819,708.8889421445148
820,708.977545633213
821,709.061878898084
822,709.1409654212372
823,709.2139990398441
824,709.2803552694505
825,709.3395963999045
826,709.3914706418747
827,709.4359060058495
828,709.4729999220416
829,709.5030057060754
830,709.526316802828
831,709.5434494488986
832,709.5550242114498
833,709.5617468797155
834,709.5643892749573
835,709.5637705097555
836,709.5607390333183
837,709.556155586634
838,709.550877082393
839,709.5457414021861
840,709.541553086025
841,709.5390698460932
842,709.5389898117553
843,709.5419394768859
844,709.5484624977986
845,709.5590097178483
846,709.5739309599228
847,709.5934691400583
848,709.6177570973133
849,709.6468172729584
850,709.6805641105244
851,709.7188088550448
852,709.7612663120264
853,709.807563077037
854,709.8572467870833
855,709.9097961051091
856,709.9646313878756
857,710.0211261608507
858,710.0786195045956
859,710.1364292798003
860,710.1938659277522
861,710.250246466429
862,710.3049082450059
863,710.3572219994533
864,710.4066037879535
865,710.452525486338
866,710.4945236451542
867,710.53220658402
868,710.5652596177879
869,710.5934483433095
870,710.6166200151766
871,710.6347031528041
872,710.6477055611059
873,710.6557108957189
874,710.658873831322
875,710.6574138796401
876,710.6516079694616
877,710.641782008524
878,710.6283017738538
879,710.6115636086198
880,710.5919854734487
881,710.5699988186288
882,710.5460414955251
883,710.5205516043444
884,710.4939619368023
885,710.4666946423292
886,710.4391559160265
887,710.4117307271177
888,710.3847777306601
889,710.3586245034061
890,710.3335631825605
891,710.30984654656
892,710.2876846049232
893,710.2672418405234
894,710.2486353166057
895,710.2319338864498
896,710.2171587168442
897,710.2042852522835
898,710.1932466100126
899,710.1839382305429
900,710.1762234453096
901,710.1699395074
902,710.1649036144094
903,710.1609185360838
904,710.1577775832421
905,710.1552687805057
906,710.1531782628648
907,710.1512931194974
908,710.1494040684986
909,710.1473083313513
910,710.1448128766305
911,710.1417379643623
912,710.1379207764412
913,710.133218866898
914,710.1275131663328
915,710.1207103132483
916,710.112744133304
917,710.1035761157476
