frame_number,force
0,593.591010000052
1,593.5520891164895
2,593.5166002252976
3,593.4878367207167
4,593.4688295763873
5,593.4622402617599
6,593.4702671837216
7,593.494572313174
8,593.5362420233984
9,593.59578779701
10,593.6731805934229
11,593.7679120286577
12,593.8790760460288
13,594.0054520955432
14,594.1455618648597
15,594.2976918899277
16,594.4599078696826
17,594.6300915070769
18,594.8059998550422
19,594.9853146974943
20,595.1656459577644
21,595.3444783267923
22,595.51908689315
23,595.6864809531842
24,595.8434518934612
25,595.986784177338
26,596.1136366579211
27,596.2220408139805
28,596.3114201166477
29,596.3830163770341
30,596.4401143849199
31,596.4879895268758
32,596.533558987877
33,596.5847772432853
34,596.6498611472732
35,596.7364465287468
36,596.8507685453765
37,596.9969389054603
38,597.1763818424957
39,597.3874911438076
40,597.6255723424549
41,597.8831197440221
42,598.1504332136445
43,598.416509773527
44,598.670079007186
45,598.9006228550903
46,599.0992417722044
47,599.2592833239863
48,599.376705515474
49,599.4501828774494
50,599.4809777558587
51,599.4726101478569
52,599.4303777672372
53,599.3607893851215
54,599.2709619374286
55,599.168007284882
56,599.0584266659137
57,598.9475515604272
58,598.8391029199661
59,598.734955749482
60,598.6351689895839
61,598.5382758039134
62,598.4417602910567
63,598.3426100123615
64,598.2378406117828
65,598.1249224992561
66,598.0020784722924
67,597.8684539723482
68,597.7241812441227
69,597.5703592019247
70,597.4089567487979
71,597.2426351735038
72,597.0744931584477
73,596.9077674559084
74,596.7455493967016
75,596.5905722034245
76,596.4450816455156
77,596.3107518874803
78,596.1885920097427
79,596.0788239861992
80,595.9807722085532
81,595.8928427401402
82,595.8126612910778
83,595.7373840132069
84,595.6641223995986
85,595.5903772565871
86,595.5143856834369
87,595.4353366409778
88,595.3534624898923
89,595.2700308591985
90,595.1872460153403
91,595.1080534941282
92,595.0358493766827
93,594.9741180765087
94,594.9260356060307
95,594.8940693388073
96,594.8795933684892
97,594.8825382997719
98,594.901113007553
99,594.9316669990059
100,594.9687829895246
101,595.0056719018351
102,595.0348771300326
103,595.0492027638933
104,595.0427001137232
105,595.0115126535679
106,594.954407276859
107,594.872898660231
108,594.7709683019065
109,594.6544537009518
110,594.5302232245956
111,594.4052674731237
112,594.2858395708995
113,594.1767687672742
114,594.081050887325
115,593.999776546872
116,593.9323921222286
117,593.8772205404114
118,593.8321279272155
119,593.7952119100946
120,593.7653887375393
121,593.7427646853125
122,593.7287154384359
123,593.7256765023375
124,593.736732878247
125,593.7651355864823
126,593.813855120778
127,593.8852387135403
128,593.9807952829117
129,594.1010916308848
130,594.245713004772
131,594.413240947225
132,594.6012327534212
133,594.8062224497435
134,595.0237806077228
135,595.2486683555696
136,595.4751038606948
137,595.6971321448647
138,595.9090626883103
139,596.1059234704073
140,596.283874291984
141,596.4405233824226
142,596.5751020422967
143,596.6884737469345
144,596.7829774844205
145,596.862120085915
146,596.930144472753
147,596.9915217457979
148,597.0504390690531
149,597.1103611630131
150,597.1737197849269
151,597.2417469861059
152,597.314441315119
153,597.3906527309829
154,597.4682769944318
155,597.544545721108
156,597.6163824193552
157,597.680777075004
158,597.7351248136837
159,597.7774861251659
160,597.8067476233285
161,597.822674784111
162,597.8258522563308
163,597.8175189429501
164,597.7993225343192
165,597.7730265178143
166,597.7402058197429
167,597.7019814307848
168,597.6588626093096
169,597.610757863726
170,597.5571686225667
171,597.4975154262956
172,597.4315054821035
173,597.3594514502714
174,597.2824804513438
175,597.2026045482911
176,597.1226458106478
177,597.046020382007
178,596.9763949339198
179,596.9172460234927
180,596.871378995501
181,596.8404840314643
182,596.8248063724343
183,596.8229845325386
184,596.8320802505042
185,596.8478010193413
186,596.8648975976633
187,596.8776958297726
188,596.8806964500975
189,596.8691597823113
190,596.8395920072965
191,596.7900662524818
192,596.7203425868272
193,596.6317903289349
194,596.5271517299824
195,596.4102040319967
196,596.2853716009599
197,596.157320249665
198,596.0305515571422
199,595.9090201795789
200,595.7958155140495
201,595.6929634648732
202,595.6014047211345
203,595.5211834339345
204,595.4518214994542
205,595.3927720261975
206,595.3437917402578
207,595.3050902857854
208,595.2771993749938
209,595.2606116127961
210,595.2553199932147
211,595.2604170922492
212,595.2738850764284
213,595.2926432213715
214,595.312850187226
215,595.3304065351603
216,595.3415681070098
217,595.3435532091071
218,595.3350127297521
219,595.3162513224729
220,595.2891451661949
221,595.2567790764499
222,595.2228929384775
223,595.1912643910289
224,595.1651592459945
225,595.1469575302087
226,595.1380129678838
227,595.1387349585005
228,595.148820299733
229,595.1675400270761
230,595.1940101007981
231,595.2274098922095
232,595.2671291057908
233,595.3128270360774
234,595.3643959086495
235,595.4218363257603
236,595.4850714598645
237,595.5537408298965
238,595.627020392285
239,595.7035142439827
240,595.7812544496808
241,595.8578265341077
242,595.9306130023926
243,595.9971265340492
244,596.0553893121956
245,596.1042934894383
246,596.1438510581311
247,596.1752402858677
248,596.2006080420427
249,596.2226709611082
250,596.2442174190611
251,596.2676174152592
252,596.2944151852745
253,596.3250380029252
254,596.3586225447242
255,596.3929502240605
256,596.4244986301461
257,596.4486418364953
258,596.4600365496423
259,596.4531910469298
260,596.4231458042442
261,596.3661468441018
262,596.2801943106318
263,596.1653854164589
264,596.0240156893699
265,595.8604414804282
266,595.6807356032795
267,595.4921868535796
268,595.3027050167784
269,595.1201956545764
270,594.9519638867655
271,594.8041961307404
272,594.6815544508561
273,594.5869031107247
274,594.5211772946573
275,594.4833955689194
276,594.4708003158358
277,594.4790942557861
278,594.5027467904371
279,594.535362104477
280,594.5701042693358
281,594.6001642464987
282,594.6192519478176
283,594.6221029584124
284,594.604982499529
285,594.566139261925
286,594.5061228269615
287,594.4278580886348
288,594.3363932740951
289,594.2383064063816
290,594.1408415436694
291,594.050916449625
292,593.9741775156858
293,593.9142713346922
294,593.8724570525332
295,593.8476087120456
296,593.8365760532123
297,593.834814106636
298,593.837166226684
299,593.838678902819
300,593.8353277284968
301,593.8245484503731
302,593.8055050817828
303,593.7790819454779
304,593.7476390499272
305,593.7146061198292
306,593.6840042190744
307,593.6599734193135
308,593.6463572629638
309,593.646368668403
310,593.6623529907458
311,593.6956663579773
312,593.7466778327805
313,593.8148691026333
314,593.8989663448098
315,593.9970355341289
316,594.1065172881098
317,594.224239685606
318,594.3464860048869
319,594.4691890597732
320,594.5882791986495
321,594.7001485268821
322,594.8021379662906
323,594.8929363211029
324,594.9728113993839
325,595.0436434721818
326,595.1087603982955
327,595.1725813811206
328,595.2400979038115
329,595.3162669433344
330,595.4054273438041
331,595.5108388122626
332,595.634393381974
333,595.7765033533373
334,595.9361539769708
335,596.1111110455884
336,596.2982663812254
337,596.4940803302295
338,596.6950540005089
339,596.8981528087407
340,597.1011152687678
341,597.3026121190179
342,597.5022574156973
343,597.700502591773
344,597.8984589626573
345,598.0976899773191
346,598.2999949493867
347,598.5071841613383
348,598.7208373918629
349,598.9420491646471
350,599.1711835775217
351,599.4076751686838
352,599.6499123493372
353,599.8952262871517
354,600.1399892058704
355,600.3798131054
356,600.6098346454537
357,600.8250697894674
358,601.0208196098711
359,601.1930995008577
360,601.3390441683987
361,601.4572251616637
362,601.5478239009168
363,601.6126250086315
364,601.6548159086581
365,601.6786011449195
366,601.6886762982937
367,601.6896492315905
368,601.6855162255265
369,601.6792789306294
370,601.6727386279771
371,601.6664573624228
372,601.6598522850488
373,601.6513910902153
374,601.638865358793
375,601.6197136891026
376,601.5913464992251
377,601.5514141049152
378,601.4979823276217
379,601.4296253348591
380,601.3454766836883
381,601.2452723814514
382,601.1293871431868
383,600.9988415461743
384,600.8552646942203
385,600.7008235784917
386,600.5381500496119
387,600.3702940274812
388,600.2007077596281
389,600.0332286495649
390,599.8719962505338
391,599.7212393996878
392,599.5849121656312
393,599.4662214874011
394,599.3671449166359
395,599.288065322929
396,599.2276382368374
397,599.1829484981971
398,599.149923203089
399,599.1238932844389
400,599.1001730848471
401,599.0745518998119
402,599.0436347080538
403,599.0050100773076
404,598.9572545267446
405,598.8998022940697
406,598.8327180916095
407,598.7564111518427
408,598.671328448419
409,598.5776748011341
410,598.4752276669361
411,598.3633183109469
412,598.2410098183078
413,598.1074252300264
414,597.9621119027034
415,597.8053134529727
416,597.6380675367981
417,597.462129144453
418,597.2797873643298
419,597.0936635177789
420,596.9065534284417
421,596.7213342503802
422,596.5409185527327
423,596.3682145105267
424,596.2060457830783
425,596.0569975753647
426,595.9231812280683
427,595.8059438754351
428,595.7055862979216
429,595.6211775346698
430,595.5505516025548
431,595.4905316712393
432,595.4373608360733
433,595.3872532690654
434,595.3369471667248
435,595.2841557571841
436,595.2278528926099
437,595.1683603855737
438,595.1072200105142
439,595.0468593694778
440,594.9901114382538
441,594.9396976764274
442,594.8977920797793
443,594.8657359051488
444,594.8439052324563
445,594.8316955109605
446,594.827594291728
447,594.8293384620586
448,594.8341607809419
449,594.839113687136
450,594.8414336690529
451,594.8388952685564
452,594.8301009183851
453,594.8146566123502
454,594.793200856021
455,594.7672882889859
456,594.7391583348473
457,594.7114207238359
458,594.6866744680494
459,594.6670773977496
460,594.6539136179216
461,594.6472444385433
462,594.645739258952
463,594.6467522051851
464,594.6466522328667
465,594.6413517392666
466,594.62692987055
467,594.6002258090945
468,594.5592886825917
469,594.5036039017771
470,594.4340567615113
471,594.3526415474068
472,594.2619821015094
473,594.1647813908479
474,594.0633316488482
475,593.9591869891094
476,593.8530527242792
477,593.7449010432215
478,593.6342834187548
479,593.5207743961316
480,593.4044495041386
481,593.2862782344007
482,593.1683225870851
483,593.0536892903235
484,592.9462657607083
485,592.8503254424261
486,592.7700945079748
487,592.7093499912176
488,592.671098698892
489,592.6573748345213
490,592.6691783583406
491,592.706539574701
492,592.7686459715331
493,592.8539399923565
494,592.960121786085
495,593.0840614675716
496,593.221696816777
497,593.3680166987962
498,593.5171929314131
499,593.662856846554
500,593.7984736803152
501,593.9177668744807
502,594.0151595304818
503,594.0862060767312
504,594.1279856819062
505,594.1394261220701
506,594.1215167312942
507,594.0773538801116
508,594.0119622963437
509,593.931867089826
510,593.8444479760872
511,593.7571618293194
512,593.6767447243219
513,593.6084963771996
514,593.5557321099475
515,593.5194825474678
516,593.4985210093462
517,593.4897719364557
518,593.4890824163958
519,593.4922386951167
520,593.4960200953703
521,593.4990457266229
522,593.5022103390547
523,593.5086170879628
524,593.5230512796517
525,593.5511436245423
526,593.598414751862
527,593.6693799867637
528,593.7668455668568
529,593.8914683208654
530,594.0415989609465
531,594.213389738796
532,594.4011186185485
533,594.5976696510978
534,594.7951176692028
535,594.9853797938032
536,595.1608931848208
537,595.3152598816231
538,595.4437910149481
539,595.5438972875686
540,595.6152985890809
541,595.6600444603005
542,595.6823407761796
543,595.6881767046891
544,595.6847608956157
545,595.6798141677921
546,595.6808083869612
547,595.6942593160816
548,595.7251627630199
549,595.7766205614923
550,595.8496590837414
551,595.9432151235529
552,596.0542582911855
553,596.1780300598257
554,596.3083895829418
555,596.4382518920168
556,596.5600943615249
557,596.6665073959435
558,596.7507656776028
559,596.8073775372795
560,596.8325424803863
561,596.824445453258
562,596.7833544838337
563,596.7115389544106
564,596.6130516117137
565,596.4934107327865
566,596.3592056304955
567,596.2176518437262
568,596.0761323970297
569,595.9417555656701
570,595.8209385770975
571,595.7190144072231
572,595.6398694481662
573,595.5856422909468
574,595.556525842193
575,595.5507046084493
576,595.5644365543958
577,595.5922770898479
578,595.6274488204195
579,595.6623632071925
580,595.6892738433961
581,595.7009936232344
582,595.6915766630989
583,595.6568701988408
584,595.5948641794944
585,595.5057884934688
586,595.3919399682558
587,595.2572758865665
588,595.1068681436478
589,594.9463360511728
590,594.7813532961156
591,594.6172757946304
592,594.4588917485002
593,594.3102706997544
594,594.1746861159584
595,594.0545953866045
596,593.9516671815271
597,593.8668414795234
598,593.8003993929576
599,593.7520218320211
600,593.7208316739449
601,593.7054324892945
602,593.7039643873553
603,593.7141892653216
604,593.7336006711308
605,593.7595432409584
606,593.789333463691
607,593.8203889482851
608,593.8503796637292
609,593.8774046569064
610,593.9001782690344
611,593.918189960589
612,593.9317885623035
613,593.9421458868078
614,593.9510851079497
615,593.9608062653068
616,593.9735787761049
617,593.9914792320008
618,594.0162305039929
619,594.0491599599261
620,594.0912598542791
621,594.1433083417705
622,594.2059912065189
623,594.279958245916
624,594.3657666975859
625,594.4637036814257
626,594.5735242964464
627,594.6941819299419
628,594.8236535223413
629,594.958953391695
630,595.0963690194595
631,595.2318652973736
632,595.3615483852177
633,595.4820917751922
634,595.5910789319682
635,595.6872559231851
636,595.7706927023756
637,595.8428392679831
638,595.9064533177975
639,595.9653804849257
640,596.0241910401388
641,596.0877076915948
642,596.1604772998618
643,596.2462407850802
644,596.3474548404041
645,596.4649222323684
646,596.5975848000223
647,596.7425177365121
648,596.8951391242897
649,597.0496217627211
650,597.1994665805495
651,597.3381671373394
652,597.4598696159833
653,597.5599268956956
654,597.635266570547
655,597.6845349388324
656,597.7080287283559
657,597.7074682930181
658,597.6856844454752
659,597.6462799659926
660,597.5933011085139
661,597.5309382595382
662,597.4632730857477
663,597.394084139324
664,597.3267030235855
665,597.2638931911689
666,597.2077259942213
667,597.1594565802816
668,597.1194316169467
669,597.0870646623074
670,597.0608928154281
671,597.038703168985
672,597.0177042258072
673,596.9947119659425
674,596.9663252479719
675,596.929092530495
676,596.8797077063688
677,596.8152759631704
678,596.7336457786511
679,596.6337490909622
680,596.5158761831269
681,596.3818377995522
682,596.2349998866796
683,596.0801911306688
684,595.9234850064264
685,595.7718599480299
686,595.6327457473175
687,595.5134710566144
688,595.4206434935261
689,595.3595211452708
690,595.3334557412213
691,595.3434881092282
692,595.3881571538966
693,595.4635527743787
694,595.5636062544395
695,595.6805755042074
696,595.8056571137017
697,595.9296489309776
698,596.0435948241529
699,596.1393630364855
700,596.210136729629
701,596.2508192594331
702,596.2583581260208
703,596.2319637094441
704,596.1731666343424
705,596.0856564350962
706,595.9748833131206
707,595.8474606252305
708,595.7104488633099
709,595.5706209695991
710,595.4338075573321
711,595.3044051138814
712,595.1851073549365
713,595.0768936505613
714,594.9792743118123
715,594.8907477299401
716,594.8093813386367
717,594.7334063044796
718,594.6617226525384
719,594.5942382231613
720,594.5319955349818
721,594.4770712306939
722,594.4322740948502
723,594.4007180423281
724,594.3853764126947
725,594.3887083621881
726,594.4124005048901
727,594.4572211801251
728,594.5229592480565
729,594.608415117692
730,594.7114267863645
731,594.828937667064
732,594.9571245774001
733,595.0915965779393
734,595.2276665627057
735,595.3606973295653
736,595.4865145933505
737,595.6018496642553
738,595.7047433907825
739,595.7948332303756
740,595.8734586550277
741,595.9435494754836
742,596.0093030482049
743,596.0757000619633
744,596.1479381983314
745,596.2308689674611
746,596.3285094847716
747,596.4436782983207
748,596.5777809049376
749,596.7307492006883
750,596.9011186163207
751,597.0862058427806
752,597.2823309931966
753,597.4850191373091
754,597.6891318919501
755,597.8889265407541
756,598.0780971238136
757,598.2498811107805
758,598.3972981556399
759,598.5135408453459
760,598.5924905535123
761,598.6292991447071
762,598.6209595100324
763,598.5667858256497
764,598.4687410307196
765,598.331575066163
766,598.1627509226427
767,597.9721279489011
768,597.771367474464
769,597.5730578712004
770,597.389624789402
771,597.232160980937
772,597.1093420869213
773,597.0265792332546
774,596.985508308485
775,596.9838534300773
776,597.0156537217287
777,597.071818033552
778,597.140960009676
779,597.2104499539356
780,597.2675966411736
781,597.3008491247302
782,597.3008947406967
783,597.2615287195649
784,597.1801840734603
785,597.0580413626018
786,596.8996908831023
787,596.7123934925764
788,596.505066232519
789,596.2871759793071
790,596.0677329391143
791,595.8545340386809
792,595.6537329063598
793,595.469734033754
794,595.3053481606596
795,595.162115821273
796,595.040699037476
797,594.9412438827808
798,594.8636292270123
799,594.8075509236801
800,594.7724450797092
801,594.7573039850221
802,594.7604567069095
803,594.7793732809724
804,594.8105321590147
805,594.8493864921086
806,594.8904731402915
807,594.9277085632647
808,594.9548904686984
809,594.9663728950443
810,594.9578212871992
811,594.9269072942311
812,594.8737927919941
813,594.8012857425153
814,594.7146122053077
815,594.6208177077075
816,594.5278767198198
817,594.4436472855188
818,594.374847961608
819,594.3262390912519
820,594.3001506208437
821,594.2964231524899
822,594.3127421988454
823,594.3452719058902
824,594.3894489422994
825,594.4407888627824
826,594.4955845232838
827,594.5514190039186
828,594.6074475574886
829,594.6644180463222
830,594.7244180010665
831,594.790377855575
832,594.8654125548433
833,594.9521211993676
834,595.0519758615078
835,595.16491632786
836,595.2892256283988
837,595.4217001272044
838,595.5580691232739
839,595.6935780995332
840,595.8236307454142
841,595.94438707448
842,596.0532333909007
843,596.1490653164041
844,596.232351326725
845,596.3049722098722
846,596.3698661539636
847,596.4305471214625
848,596.4905899958576
849,596.5531752419748
850,596.6207616088702
851,596.6949213938643
852,596.7763377744565
853,596.8649307981217
854,596.9600532667124
855,597.0606887195189
856,597.1655950997545
857,597.2733654512326
858,597.382412483492
859,597.4909137379493
860,597.5967650763018
861,597.6975823283874
862,597.7907753222661
863,597.8737003004632
864,597.9438732623927
865,597.999201787581
866,598.0381810261578
867,598.0600126902843
868,598.0646381888254
869,598.0527089353506
870,598.0255326230748
871,597.9850293624174
872,597.9337076997597
873,597.8746368237778
874,597.8113666162064
875,597.7477460385752
876,597.6876114058141
877,597.6343527082535
878,597.5904106624033
879,597.5567941443226
880,597.5327233635704
881,597.5154971606004
882,597.5006529343676
883,597.4824313710524
884,597.4544854588008
885,597.4107134514472
886,597.3460747533013
887,597.2572672805067
888,597.1431835436038
889,597.0050990195778
890,596.8465761574694
891,596.6730990412722
892,596.4914893908478
893,596.3091825958822
894,596.1334510472869
895,595.9706551762539
896,595.8255960019433
897,595.7010423691838
898,595.5975003698031
899,595.5132716522135
900,595.4448117918937
901,595.3873517474394
902,595.3356901895197
903,595.2850201762421
904,595.2316419985078
905,595.1734429796666
906,595.1100829849895
907,595.0428874472848
908,594.9744978177491
909,594.9083585976089
910,594.8481357219922
911,594.7971639282638
912,594.7580075813738
913,594.7321907741325
914,594.7201154513184
915,594.7211515380891
916,594.733859785078
