frame_number,force
0,582.5252100000288
1,582.418254933312
2,582.3149833098663
3,582.2187959831409
4,582.1326050488386
5,582.0587565100394
6,581.9990868528835
7,581.9550650130946
8,581.9279386736226
9,581.9188048037954
10,581.9285481244053
11,581.9576230934127
12,582.0056957171688
13,582.0712153090228
14,582.1510358244163
15,582.2402201519438
16,582.3321263276921
17,582.4188070910309
18,582.4916783812699
19,582.5423535565196
20,582.5635187758116
21,582.5497408511072
22,582.4981266673431
23,582.4087677775578
24,582.2849062729049
25,582.1327703158775
26,581.9610653083054
27,581.7801648182806
28,581.6011042272152
29,581.4345173760231
30,581.2896618558368
31,581.1736555422256
32,581.0910026879478
33,581.04343188204
34,581.0300164284367
35,581.0475128338483
36,581.0908374202974
37,581.1536050743504
38,581.2286762689507
39,581.3086851644572
40,581.3865336105221
41,581.4558272434505
42,581.5112139493244
43,581.5485809771841
44,581.5650843501805
45,581.559022656474
46,581.5296198762952
47,581.4768237425507
48,581.4012190316794
49,581.3040890512999
50,581.1875739746262
51,581.0548244189616
52,580.9100505415086
53,580.758403959137
54,580.6056803383043
55,580.457882354778
56,580.3207250776076
57,580.1991841236659
58,580.0971704229092
59,580.0173675737146
60,579.9612102571554
61,579.9289457063426
62,579.9197229839376
63,579.9316865538674
64,579.9620792628052
65,580.0073588931806
66,580.0633093183573
67,580.1251199925309
68,580.1874411305478
69,580.2444756131639
70,580.2901959377025
71,580.3187450097362
72,580.3250007160432
73,580.305200219661
74,580.2574831819011
75,580.1822391177906
76,580.0821996019322
77,579.9622615650419
78,579.8290591000659
79,579.6903349256511
80,579.5541995205612
81,579.4283891856053
82,579.3196327822282
83,579.2332093044985
84,579.1727287872897
85,579.1401133156616
86,579.1357176036046
87,579.1585224110178
88,579.2063526556522
89,579.2761013706969
90,579.3639638593413
91,579.4656870754739
92,579.5768176197358
93,579.6929111018038
94,579.8096687178645
95,579.9229922563504
96,580.028977699948
97,580.1238856146261
98,580.2041313164444
99,580.266332078814
100,580.3074338292113
101,580.3249178167754
102,580.3170614701675
103,580.2832011933976
104,580.2239298068419
105,580.141172750534
106,580.038122530207
107,579.9190459500885
108,579.7889942023087
109,579.6534463450893
110,579.5179158886782
111,579.3875528802105
112,579.2667781864809
113,579.1589903081431
114,579.0663838034694
115,578.9899099666246
116,578.9293973537381
117,578.8838295194602
118,578.8517418450909
119,578.8316555351647
120,578.8224417661436
121,578.823521948196
122,578.8348525264685
123,578.8566936572627
124,578.8892085366691
125,578.9319793110095
126,578.9835498025933
127,579.0411106048382
128,579.1004285867772
129,579.1560861324101
130,579.2020289754391
131,579.2323359908801
132,579.2420561905105
133,579.2279441481086
134,579.1889656818996
135,579.1265073342875
136,579.0442777701427
137,578.9479327529007
138,578.8444901143417
139,578.7416224125262
140,578.6469206536517
141,578.5672182419027
142,578.508053089777
143,578.4733221783864
144,578.4651443552976
145,578.4839047836823
146,578.5284273799083
147,578.5962218112224
148,578.6837705173133
149,578.7868347644454
150,578.9007569050626
151,579.0207367617492
152,579.1420793686378
153,579.2604353679201
154,579.3720578580046
155,579.47407279814
156,579.5647225796598
157,579.6435226904961
158,579.711282841059
159,579.7699750752308
160,579.8224652729754
161,579.8721522591104
162,579.9225723968215
163,579.9770219813277
164,580.0382325133019
165,580.1081166579224
166,580.1875918976385
167,580.2764881787135
168,580.3735513461683
169,580.4765531214991
170,580.5825053492993
171,580.6879603164874
172,580.7893685031682
173,580.8834583660151
174,580.9675981839416
175,581.0401024047223
176,581.1004528140186
177,581.1494063277468
178,581.1889570394255
179,581.2221332391939
180,581.2526504192217
181,581.284481285469
182,581.321412514876
183,581.3666395955523
184,581.4224317507939
185,581.4898916997024
186,581.5688299236538
187,581.6577565287572
188,581.7539702117984
189,581.8537133147174
190,581.9523762006351
191,582.0447618036482
192,582.1254375719502
193,582.1891890398683
194,582.2315478811554
195,582.2493199994182
196,582.2410178994782
197,582.207120502466
198,582.1501251460417
199,582.0743917873601
200,581.9857966872538
201,581.8912203149083
202,581.7979041909557
203,581.7127309993305
204,581.6415113483239
205,581.5883860300519
206,581.555450962822
207,581.5426712354858
208,581.5480885179174
209,581.5682731001205
210,581.5989379659014
211,581.6356067061469
212,581.6742096013755
213,581.7114929022093
214,581.745178467858
215,581.7738894640986
216,581.7969269611114
217,581.8140105041668
218,581.8250778570349
219,581.830193105442
220,581.8295584518377
221,581.8235792064148
222,581.8129101916057
223,581.7984264016359
224,581.7811041558566
225,581.7618436171043
226,581.7412829686125
227,581.719648060936
228,581.6966665920629
229,581.6715639201898
230,581.6431498215109
231,581.6100030120457
232,581.5707590059965
233,581.5244916560139
234,581.4711387693588
235,581.4118726353759
236,581.3492928324339
237,581.28734829191
238,581.2309724128964
239,581.185499273331
240,581.1559741028215
241,581.1464646810153
242,581.1594542344332
243,581.1953874856474
244,581.2524491312288
245,581.3266453664111
246,581.412208738232
247,581.5022673276783
248,581.5896545203977
249,581.6677192250252
250,581.7310231306828
251,581.7758512218926
252,581.8004931219451
253,581.8052786433591
254,581.7923825745518
255,581.765448660247
256,581.7291064081035
257,581.6884595983499
258,581.6486139194441
259,581.6142835914584
260,581.5894804667023
261,581.5772659759148
262,581.5795516521297
263,581.5969550240677
264,581.6287322302122
265,581.6728122778505
266,581.7259552315801
267,581.7840435242757
268,581.8424891210988
269,581.8967119940747
270,581.9426296746797
271,581.97708882027
272,581.9981620754984
273,582.0052399431831
274,581.9988858241171
275,581.980489093477
276,581.951815785706
277,581.9145838183894
278,581.8701672200738
279,581.8194800426454
280,581.7630359864899
281,581.7011428345818
282,581.6341723547736
283,581.5628390654085
284,581.4884204542601
285,581.412858813358
286,581.33870650612
287,581.2689137594837
288,581.2065009700498
289,581.154187806251
290,581.1140580935369
291,581.0873261829651
292,581.0742428131784
293,581.0741390997597
294,581.0855707842787
295,581.1065143076669
296,581.1345852250452
297,581.1672738346618
298,581.2021945688865
299,581.2373195337798
300,581.2711385074193
301,581.3026936468074
302,581.3314839386983
303,581.3572875390075
304,581.3799703682049
305,581.3993317574814
306,581.4150056399787
307,581.4264100344091
308,581.4327271144087
309,581.4329038039962
310,581.425686781548
311,581.409732552082
312,581.3838369845996
313,581.347289742968
314,581.3002907528573
315,581.2443121496033
316,581.1822837698135
317,581.1185188777368
318,581.0583557024436
319,581.0075535397265
320,580.9715408851795
321,580.9546555246159
322,580.9595294562157
323,580.98674471357
324,581.0348154581166
325,581.1004533041906
326,581.1789947726893
327,581.2648614515848
328,581.3519820996045
329,581.4341751612599
330,581.505517845876
331,581.5607099429296
332,581.5954101531195
333,581.6065110140402
334,581.5923276004808
335,581.5526868518101
336,581.4889102301813
337,581.4036947673709
338,581.3009234545978
339,581.1854544103206
340,581.0629232223157
341,580.93954974849
342,580.8219033557432
343,580.7165796190521
344,580.6297810153201
345,580.5668470914579
346,580.531806185584
347,580.5270053638839
348,580.5528415595801
349,580.6075981481599
350,580.6873945976237
351,580.7862679039064
352,580.896413335836
353,581.0086162915525
354,581.1128969742302
355,581.1993545791158
356,581.2591454218011
357,581.2854781781095
358,581.2744724295635
359,581.2257185965764
360,581.1424145211639
361,581.0310337253035
362,580.9005745632714
363,580.7615162877994
364,580.6246503332641
365,580.4999581463076
366,580.3956721080259
367,580.3175970843839
368,580.2687159420958
369,580.2490751988471
370,580.2559400103684
371,580.2842013453671
372,580.3270042276674
373,580.3765431745289
374,580.4249427253067
375,580.4651213282355
376,580.4915357456043
377,580.5007147182769
378,580.4915128584574
379,580.4650583043117
380,580.4244267721108
381,580.3741231019994
382,580.3194656585168
383,580.2659522395464
384,580.21866208305
385,580.1817392805702
386,580.1580083255304
387,580.1487700984959
388,580.1537995288467
389,580.1715238788195
390,580.199325744423
391,580.2339045129878
392,580.2716475512493
393,580.3089924505175
394,580.3427781157429
395,580.3705706210392
396,580.390919275429
397,580.4034784962496
398,580.4089497087873
399,580.4088525586957
400,580.4051918420643
401,580.4001133091749
402,580.3956319389896
403,580.3934789618031
404,580.3950600115609
405,580.4014696775114
406,580.4135000816007
407,580.4316215573067
408,580.4559658132001
409,580.4863574231173
410,580.5224087262703
411,580.5636503627852
412,580.6096485584509
413,580.6600674383097
414,580.7146612331899
415,580.7732137273125
416,580.8354619139036
417,580.9010365166672
418,580.9694331091514
419,581.0400100513674
420,581.1119993033989
421,581.1845142199768
422,581.2565453084866
423,581.3269441168061
424,581.3943984805392
425,581.45740211452
426,581.5142257226972
427,581.5629056423095
428,581.6012745802761
429,581.6270594982803
430,581.638055880207
431,581.6323605753215
432,581.6086248513762
433,581.5662840682476
434,581.505727661986
435,581.4283901899627
436,581.3367645660767
437,581.2343493916422
438,581.1255374664286
439,581.0154391139771
440,580.9096225392802
441,580.8137518463863
442,580.7331173180207
443,580.6720845464952
444,580.6335338871424
445,580.6184036724329
446,580.6254643966982
447,580.6514150368862
448,580.6913111314847
449,580.7392444335775
450,580.7891397530526
451,580.8355299678237
452,580.8741971908619
453,580.9026073743137
454,580.9201093529288
455,580.9279077327784
456,580.9288400914243
457,580.9269932651424
458,580.927193084074
459,580.9344060216104
460,580.953103201503
461,580.9866572476556
462,581.03686158889
463,581.1036608525252
464,581.1851476401945
465,581.2778257381224
466,581.3770878655969
467,581.4778224431928
468,581.5750416178129
469,581.6644044926812
470,581.742513267082
471,581.806913511423
472,581.8558294742558
473,581.8877682466783
474,581.9011834432905
475,581.894375608199
476,581.8657288870423
477,581.8142659617691
478,581.740379279033
479,581.6465087394125
480,581.537527518096
481,581.4206817105112
482,581.3050647310963
483,581.200725756854
484,581.1175771096526
485,581.0642871190315
486,581.0473350473346
487,581.0703615384339
488,581.1338791096156
489,581.2353341089125
490,581.3694540346213
491,581.5287878985399
492,581.7043609910858
493,581.8863991705075
494,582.0650891717582
495,582.2313141527527
496,582.3772709427573
497,582.4968804182898
498,582.5859524001844
499,582.6421316023466
500,582.6646956057789
501,582.654285599267
502,582.6126362082936
503,582.5423489810042
504,582.4467328568592
505,582.3297113688683
506,582.1957656345087
507,582.0498530645795
508,581.8972382934899
509,581.7432089014432
510,581.5927070534175
511,581.4499555585853
512,581.3181695059675
513,581.1994210254941
514,581.0946790335262
515,581.0039946967624
516,580.9267627459113
517,580.8619765628501
518,580.8084188635751
519,580.7647727890823
520,580.7296715008383
521,580.7017144566291
522,580.6794725824694
523,580.6614948771013
524,580.6463210039777
525,580.632498143293
526,580.6185972711127
527,580.603226815461
528,580.5850481178416
529,580.5627997140589
530,580.5353305881035
531,580.5016310415825
532,580.4608473538073
533,580.4122807920986
534,580.3553941302946
535,580.2898615519077
536,580.2156862947959
537,580.1333749003605
538,580.0441180089956
539,579.9499139825033
540,579.8535932355873
541,579.758737517082
542,579.6695083385546
543,579.5903918802982
544,579.5258549872698
545,579.4799170733327
546,579.4556781351232
547,579.4548788089845
548,579.4775821153007
549,579.5220508872102
550,579.5848540337475
551,579.661186794175
552,579.745355292608
553,579.831356142085
554,579.9134696688412
555,579.9867829931031
556,580.0475763418203
557,580.0935429261202
558,580.123853792371
559,580.139102382384
560,580.1411613223764
561,580.132969573475
562,580.1182589520914
563,580.1012289528286
564,580.0861828539695
565,580.0771483603554
566,580.0775257158591
567,580.0898189704361
568,580.1154892045835
569,580.1549300012271
570,580.2075383071331
571,580.2718523209176
572,580.3457368774476
573,580.4265997110875
574,580.5116168031262
575,580.5979365203739
576,580.6828285959419
577,580.7637547161268
578,580.8383650781902
579,580.9044603242455
580,580.9599823731812
581,581.0030923161065
582,581.032354462217
583,581.0469920631263
584,581.0471405010449
585,581.0340115079614
586,581.0098974163525
587,580.9779865503956
588,580.9420184770407
589,580.9058515727264
590,580.8730240528515
591,580.8463761908521
592,580.8277903876188
593,580.8180946304009
594,580.8171433108129
595,580.8240385583617
596,580.8374149420658
597,580.8557079825104
598,580.8773604048768
599,580.9009600058996
600,580.9253209349592
601,580.9495148908176
602,580.9728507109088
603,580.9948066737139
604,581.0149379539116
605,581.0327975289465
606,581.0479078436924
607,581.0597987612605
608,581.0680968982924
609,581.0726315337195
610,581.0735190081609
611,581.0711916606872
612,581.0663441320986
613,581.0597884122745
614,581.0522442883645
615,581.0441251999208
616,581.0353847066185
617,581.0254658179043
618,581.013366289656
619,580.9978077187425
620,580.9774696788897
621,580.9512294941862
622,580.9183548503523
623,580.8786324757616
624,580.8324526266039
625,580.7808763573104
626,580.7256863572385
627,580.6693793665662
628,580.6150266556233
629,580.565940017466
630,580.525145728418
631,580.4947583138352
632,580.4754079432126
633,580.4658786657121
634,580.4630634962156
635,580.4622630257578
636,580.4577816925095
637,580.4437327123409
638,580.4149427556423
639,580.367833928422
640,580.3011552182688
641,580.2164541197918
642,580.1182216897231
643,580.0136843457608
644,579.9122323912077
645,579.8244903775224
646,579.7610889151122
647,579.7312870843504
648,579.7416641379525
649,579.7951052803437
650,579.8902531587395
651,580.0215120016411
652,580.1795963075788
653,580.3525269897186
654,580.5269174567126
655,580.689374042743
656,580.8278443250729
657,580.93276122388
658,580.9978547195029
659,581.0205497682016
660,581.0019295103508
661,580.9462988919244
662,580.8604298731672
663,580.75260529049
664,580.6316004994848
665,580.5057464159354
666,580.3821994454485
667,580.2664993959216
668,580.162434623552
669,580.0721740003781
670,579.9965846003649
671,579.9356393605549
672,579.8888294733358
673,579.8555243985802
674,579.835252218785
675,579.8278868074495
676,579.8337256288577
677,579.8534437413892
678,579.8879296495603
679,579.9380334971863
680,580.0042672558208
681,580.0864927204938
682,580.1836358120175
683,580.2934804207074
684,580.4126037484775
685,580.5364974494048
686,580.6598737798761
687,580.7771031110769
688,580.8826942091057
689,580.9717256981259
690,581.040162851831
691,581.0850360999923
692,581.1045017779401
693,581.0978343855448
694,581.0653997273996
695,581.0086332806246
696,580.9300152201414
697,580.8330088358916
698,580.7219250525941
699,580.6017002333246
700,580.4776162034574
701,580.3550204519917
702,580.239098092546
703,580.1347094120858
704,580.046263633402
705,579.9775793997791
706,579.9316963038629
707,579.9106374998104
708,579.9151598270377
709,579.9445508904798
710,579.9965373421355
711,580.0673502490938
712,580.1519508619596
713,580.2443746283426
714,580.3381374385856
715,580.426671700476
716,580.5037864408092
717,580.564141471097
718,580.6036936406173
719,580.6200442216226
720,580.6126178338963
721,580.5826370336772
722,580.5329027598603
723,580.4674277825691
724,580.390986670773
725,580.3086374771005
726,580.2252459628086
727,580.1450298936572
728,580.0711615644855
729,580.0055077110973
730,579.9486030461957
731,579.8999138356471
732,579.8583610779369
733,579.8229816862694
734,579.7935517231455
735,579.7709960424767
736,579.7574617152901
737,579.7560266995441
738,579.7701252890289
739,579.802853067609
740,579.8563243813575
741,579.9311961013999
742,580.0263907864936
743,580.1390000698007
744,580.2643397540485
745,580.3961494894259
746,580.5269619512595
747,580.6486784786752
748,580.7533493985968
749,580.8340763804366
750,580.8858858399999
751,580.906411155936
752,580.8962577029391
753,580.8589760874804
754,580.8006279361955
755,580.7290005740387
756,580.652596939027
757,580.5795688546875
758,580.5167665261281
759,580.4690530335272
760,580.4389851501271
761,580.4268905883796
762,580.4312844703378
763,580.4494895494445
764,580.4782895615338
765,580.5144693049898
766,580.5551576283697
767,580.5979524373632
768,580.6408544782964
769,580.6820791287164
770,580.7198528289779
771,580.7523064602317
772,580.7775325077243
773,580.7938006391892
774,580.7998742028956
775,580.7953524776187
776,580.78095641593
777,580.7586687968625
778,580.7316570204214
779,580.7039626659273
780,580.6800114472404
781,580.6640427778481
782,580.6595629396319
783,580.6688965946767
784,580.6928696586156
785,580.7306308830298
786,580.7796247826279
787,580.8357451488775
788,580.8936903460518
789,580.9474991921977
790,580.9911939268545
791,581.019424794923
792,581.0280135521019
793,581.014324092144
794,580.9774267801848
795,580.9180553514342
796,580.8383833348289
797,580.7416704914908
798,580.6318410221393
799,580.5130562979073
800,580.3893431435393
801,580.26432828105
802,580.1411009878133
803,580.0221897076971
804,579.909617738303
805,579.8050072494846
806,579.7097156603093
807,579.6249949404921
808,579.5521554850161
809,579.4926948501638
810,579.4483298661254
811,579.4208714268111
812,579.4119232566467
813,579.4224591837021
814,579.4523981465233
815,579.5003124441749
816,579.5633641970882
817,579.637491779409
818,579.7177954129062
819,579.7990249765693
820,579.8760668233402
821,579.9443550954566
822,580.0001741427996
823,580.0408489771162
824,580.0648334840033
825,580.0717095025433
826,580.0621129280534
827,580.0376079186359
828,580.0005338301547
829,579.9538465423852
830,579.9009656168056
831,579.8456275300005
832,579.7917397370549
833,579.7432322165196
834,579.703908192179
835,579.6772960068378
836,579.6664985497697
837,579.6740343679411
838,579.7016702839511
839,579.7502537361377
840,579.8195630594936
841,579.9082086335467
842,580.013625936862
843,580.1321836551879
844,580.2593922610369
845,580.3901734762965
846,580.5191530633542
847,580.6409484676553
848,580.7504268980748
849,580.8429267010051
850,580.9144717037736
851,580.9620295007431
852,580.9838354508078
853,580.9797381154208
854,580.9514681377059
855,580.9027278200667
856,580.8390414003194
857,580.7673685842045
858,580.6955388211915
859,580.631595349343
860,580.5831397985825
861,580.5567455479954
862,580.5574777416833
863,580.588533875859
864,580.6510057911157
865,580.743763368239
866,580.8634686158739
867,581.0047331620917
868,581.1604234183945
869,581.3221015963281
870,581.4805761404259
871,581.6265228923457
872,581.7511291052622
873,581.8467125195159
874,581.9072795666137
875,581.9290029319671
876,581.9106062451992
877,581.8536310430318
878,581.7625304969276
879,581.6445111524114
880,581.50905978908
881,581.3671525392733
882,581.2302207397046
883,581.10901144054
884,581.0125127686094
885,580.9471071979702
886,580.9160702114065
887,580.9194636464664
888,580.9544031060088
889,581.0156227100888
890,581.096230620773
891,581.1885502523553
892,581.2849630020696
893,581.3786880954788
894,581.464443671085
895,581.5389352524184
896,581.6011200565338
897,581.6522011840945
898,581.6953229304153
899,581.7349807170069
900,581.7762253330508
901,581.8238026085716
902,581.8813881392306
903,581.9510392631781
904,582.0329179590815
905,582.1252783546405
906,582.2246838796896
907,582.3264160332892
908,582.4250379025191
909,582.5150650724127
910,582.5916744928371
911,582.6513599684562
912,582.6924337549183
913,582.7152848443618
914,582.7223396543187
915,582.7177268022767
916,582.7067077585609
917,582.6949751367438
