frame_number,force
0,651.7634546313571
1,651.7885099931934
2,651.8137841354066
3,651.8391561580515
4,651.8645038364162
5,651.889704201559
6,651.9146341143756
7,651.9391708286915
8,651.9631925389057
9,651.9865789082569
10,652.0092115749627
11,652.030974635024
12,652.0517551017682
13,652.0714433426643
14,652.0899334936283
15,652.107123850523
16,652.1229172373738
17,652.1372213510243
18,652.1499490822974
19,652.1610188141208
20,652.1703546974859
21,652.177886906297
22,652.1835518718838
23,652.1872924973784
24,652.1890583517418
25,652.1888058432467
26,652.1864983725425
27,652.1821064656136
28,652.1756078866028
29,652.1669877295764
30,652.1562384873026
31,652.1433600946715
32,652.1283599448079
33,652.1112528768373
34,652.0920611348965
35,652.0708142979908
36,652.0475491797584
37,652.0223096963441
38,651.9951466996097
39,651.9661177722453
40,651.9352869812468
41,651.9027245866224
42,651.8685067027399
43,651.8327149102254
44,651.795435816981
45,651.7567605681446
46,651.7167843066744
47,651.6756055879358
48,651.6333257524406
49,651.5900482609728
50,651.5458779968689
51,651.5009205421776
52,651.455281437645
53,651.4090654395704
54,651.3623757881381
55,651.3153135014729
56,651.2679767080322
57,651.220460027666
58,651.1728540090891
59,651.1252446290877
60,651.0777128572896
61,651.0303342901557
62,650.9831788585223
63,650.9363106133737
64,650.8897875935398
65,650.843661776478
66,650.797979110117
67,650.7527796213127
68,650.7080975954459
69,650.66396182159
70,650.6203958978264
71,650.5774185914693
72,650.5350442489467
73,650.4932832494359
74,650.4521424949387
75,650.4116259279261
76,650.3717350667922
77,650.3324695495455
78,650.2938276772733
79,650.2558069503573
80,650.2184045912406
81,650.1816180469278
82,650.1454454624796
83,650.1098861147221
84,650.0749407945068
85,650.0406121265755
86,650.0069048180653
87,649.9738258293519
88,649.9413844635909
89,649.9095923734405
90,649.878463485227
91,649.8480138429466
92,649.8182613771315
93,649.7892256063137
94,649.76092728119
95,649.7333879833503
96,649.7066296911989
97,649.6806743253953
98,649.6555432851492
99,649.6312569855538
100,649.6078344051451
101,649.5852926520889
102,649.5636465568429
103,649.5429082990585
104,649.5230870770346
105,649.5041888287334
106,649.4862160133439
107,649.4691674611195
108,649.4530382968962
109,649.4378199397856
110,649.4235001783309
111,649.4100633171948
112,649.3974903887337
113,649.385759420945
114,649.3748457519655
115,649.3647223801948
116,649.3553603385928
117,649.3467290823403
118,649.338796880938
119,649.3315312081653
120,649.3248991250713
121,649.3188676518637
122,649.3134041244318
123,649.3084765308465
124,649.3040538231147
125,649.3001062001365
126,649.2966053590816
127,649.2935247137077
128,649.2908395791229
129,649.2885273231639
130,649.2865674849946
131,649.2849418618048
132,649.2836345649032
133,649.2826320473472
134,649.2819231063221
135,649.2814988642671
136,649.2813527328449
137,649.2814803631925
138,649.2818795846315
139,649.2825503324887
140,649.283494564301
141,649.2847161627687
142,649.2862208235867
143,649.2880159268035
144,649.290110391448
145,649.2925145145389
146,649.2952397969898
147,649.2982987601224
148,649.3017047571756
149,649.3054717844022
150,649.3096142966397
151,649.3141470330385
152,649.3190848595223
153,649.324442634673
154,649.3302351047568
155,649.3364768320247
156,649.3431821590191
157,649.3503652106256
158,649.3580399346065
159,649.3662201799738
160,649.3749198110933
161,649.3841528542278
162,649.3939336721319
163,649.4042771609934
164,649.4151989625991
165,649.4267156834076
166,649.4388451114158
167,649.4516064216826
168,649.4650203624806
169,649.4791094158901
170,649.4938979281902
171,649.5094122062781
172,649.5256805772151
173,649.5427334093164
174,649.560603094569
175,649.5793239930344
176,649.5989323402807
177,649.6194661190244
178,649.6409648959003
179,649.6634696233754
180,649.6870224055997
181,649.7116662261802
182,649.7374446357808
183,649.7644013979773
184,649.792580092943
185,649.8220236804603
186,649.8527740261679
187,649.8848713971986
188,649.9183539349475
189,649.9532571134098
190,649.9896131912982
191,650.0274506651554
192,650.0667937292445
193,650.1076617465636
194,650.1500687342399
195,650.19402286595
196,650.2395259937261
197,650.2865731915522
198,650.3351523236893
199,650.3852436416742
200,650.4368194151883
201,650.4898436033747
202,650.5442715747172
203,650.6000498852773
204,650.6571161264566
205,650.7153988537355
206,650.7748176065071
207,650.8352830266537
208,650.8966970808626
209,650.9589533893507
210,651.0219376612664
211,651.0855282340437
212,651.1495967105103
213,651.2140086843109
214,651.2786245416528
215,651.3433003254088
216,651.4078886460344
217,651.4722396227625
218,651.536201838457
219,651.5996232923135
220,651.6623523359344
221,651.7242385798356
222,651.785133758913
223,651.8448925468484
224,651.9033733111609
225,651.9604388028672
226,652.0159567773095
227,652.0698005451801
228,652.1218494549124
229,652.1719893095338
230,652.2201127227249
231,652.2661194197983
232,652.3099164894743
233,652.3514185921516
234,652.3905481302965
235,652.4272353863868
236,652.4614186328447
237,652.4930442162779
238,652.5220666157913
239,652.5484484731611
240,652.5721605918258
241,652.5931819017746
242,652.6114993879672
243,652.6271079805633
244,652.6400104060599
245,652.6502169997559
246,652.6577454819515
247,652.6626207025757
248,652.664874360652
249,652.6645447056086
250,652.6616762275002
251,652.6563193436689
252,652.6485300900903
253,652.6383698255007
254,652.6259049548219
255,652.6112066757983
256,652.5943507497174
257,652.5754172940763
258,652.554490592933
259,652.5316589202374
260,652.5070143724444
261,652.4806527077029
262,652.4526731885693
263,652.4231784238493
264,652.392274204348
265,652.36006932781
266,652.326675409513
267,652.2922066757429
268,652.2567797373017
269,652.2205133395381
270,652.1835280848571
271,652.1459461239688
272,652.1078908135567
273,652.069486340042
274,652.030857310718
275,651.9921283142045
276,651.9534234521876
277,651.9148658442407
278,651.8765771073392
279,651.8386768115251
280,651.801281913451
281,651.7645061708603
282,651.7284595434327
283,651.6932475879274
284,651.6589708571478
285,651.6257243126882
286,651.593596761192
287,651.5626703234908
288,651.5330199457838
289,651.5047129620536
290,651.4778087173061
291,651.4523582616338
292,651.4284041247057
293,651.4059801784334
294,651.3851115924847
295,651.3658148840744
296,651.3480980611262
297,651.3319608567393
298,651.3173950522668
299,651.3043848855167
300,651.2929075395024
301,651.2829337056401
302,651.2744282129476
303,651.2673507118335
304,651.2616563985682
305,651.2572967654322
306,651.254220361761
307,651.2523735520066
308,651.2517012579502
309,651.2521476730524
310,651.2536569376558
311,651.256173764655
312,651.2596440066403
313,651.2640151574591
314,651.269236783224
315,651.2752608795807
316,651.2820421535438
317,651.2895382298744
318,651.297709783989
319,651.3065206052966
320,651.3159375963496
321,651.3259307143679
322,651.336472862608
323,651.3475397393955
324,651.3591096523099
325,651.3711633045717
326,651.3836835608062
327,651.3966552000888
328,651.4100646648286
329,651.423899813812
330,651.4381496863688
331,651.4528042825895
332,651.4678543625446
333,651.483291265964
334,651.4991067528977
335,651.5152928653724
336,651.5318418097017
337,651.5487458585612
338,651.5659972711286
339,651.5835882288691
340,651.6015107843575
341,651.6197568208903
342,651.6383180212987
343,651.6571858451902
344,651.6763515147985
345,651.6958060106889
346,651.7155400796504
347,651.7355442581057
348,651.7558089149298
349,651.7763243171732
350,651.7970807209404
351,651.8180684884246
352,651.8392782313379
353,651.8607009801156
354,651.8823283767013
355,651.9041528865787
356,651.9261680235912
357,651.9483685791619
358,651.9707508458072
359,651.9933128236722
360,652.0160543988964
361,652.0389774841548
362,652.062086114067
363,652.0853864903543
364,652.1088869732555
365,652.1325980172234
366,652.1565320509509
367,652.1807033041451
368,652.2051275851488
369,652.2298220138741
370,652.2548047140745
371,652.2800944688241
372,652.3057103437887
373,652.3316712841743
374,652.3579956924154
375,652.3847009941865
376,652.411803200226
377,652.4393164711751
378,652.467252692522
379,652.4956210668138
380,652.5244277301811
381,652.5536753998631
382,652.5833630589832
383,652.6134856842667
384,652.6440340212416
385,652.6749944095804
386,652.7063486594197
387,652.7380739787097
388,652.7701429520174
389,652.8025235718959
390,652.8351793240508
391,652.8680693267737
392,652.9011485237385
393,652.9343679276184
394,652.9676749102027
395,653.0010135328998
396,653.0343249099342
397,653.0675475955375
398,653.1006179864678
399,653.1334707324304
400,653.1660391489708
401,653.1982556296066
402,653.2300520560237
403,653.2613602065868
404,653.2921121635056
405,653.322240717721
406,653.3516797689516
407,653.3803647175683
408,653.4082328452306
409,653.4352236819161
410,653.4612793575402
411,653.486344936632
412,653.5103687345415
413,653.5333026135179
414,653.5551022568466
415,653.5757274190948
416,653.5951421503969
417,653.6133149926726
418,653.630219145752
419,653.6458326015778
420,653.6601382448305
421,653.6731239181778
422,653.6847824498674
423,653.6951116411159
424,653.7041142115146
425,653.7117977027194
426,653.7181743433705
427,653.7232608805108
428,653.7270783842331
429,653.7296520330007
430,653.7310108872109
431,653.7311876578293
432,653.7302184749772
433,653.7281426586757
434,653.7250024916175
435,653.7208429923669
436,653.7157116865334
437,653.7096583731936
438,653.7027348846198
439,653.6949948391409
440,653.6864933886524
441,653.677286962859
442,653.6674330118793
443,653.656989748075
444,653.6460158874138
445,653.6345703906225
446,653.6227122049418
447,653.6105000079954
448,653.597991955561
449,653.5852454351411
450,653.5723168278752
451,653.5592612825141
452,653.5461325060592
453,653.5329825757005
454,653.519861776048
455,653.5068184645843
456,653.4938989668653
457,653.4811475013622
458,653.4686061321912
459,653.4563147464501
460,653.4443110517008
461,653.4326305884503
462,653.4213067520801
463,653.4103708184076
464,653.3998519671642
465,653.3897772984684
466,653.3801718386832
467,653.3710585333545
468,653.3624582257693
469,653.3543896200035
470,653.3468692274679
471,653.3399112962567
472,653.3335277231723
473,653.3277279490692
474,653.3225188391585
475,653.3179045510402
476,653.3138863941213
477,653.3104626846992
478,653.3076286016966
479,653.3053760488699
480,653.3036935296265
481,653.3025660399276
482,653.3019749835242
483,653.3018981124819
484,653.3023094947373
485,653.3031795092122
486,653.3044748680443
487,653.3061586651337
488,653.3081904503131
489,653.3105263284956
490,653.313119082959
491,653.3159183217404
492,653.3188706461501
493,653.3219198406058
494,653.3250070831581
495,653.3280711762038
496,653.3310487971646
497,653.3338747695133
498,653.336482355036
499,653.3388035680078
500,653.3407695110476
501,653.3423107313475
502,653.3433575950687
503,653.3438406770107
504,653.3436911622318
505,653.3428412559313
506,653.3412245971691
507,653.3387766707232
508,653.3354352100648
509,653.3311405840032
510,653.3258361603149
511,653.3194686409316
512,653.3119883641032
513,653.3033495694276
514,653.2935106225872
515,653.282434198906
516,653.2700874283445
517,653.2564420078389
518,653.2414742882086
519,653.2251653417757
520,653.2075010145375
521,653.1884719645803
522,653.1680736870343
523,653.1463065251048
524,653.123175666276
525,653.0986911225399
526,653.072867693587
527,653.0457249125357
528,653.017286975145
529,652.9875826553614
530,652.9566452118568
531,652.9245122912988
532,652.8912258342414
533,652.8568319885782
534,652.8213810332303
535,652.7849273113592
536,652.7475291687966
537,652.7092488904384
538,652.6701526256186
539,652.6303102931798
540,652.5897954578677
541,652.5486851713067
542,652.5070597727608
543,652.4650026469493
544,652.422599938181
545,652.3799402217095
546,652.3371141344994
547,652.2942139690691
548,652.2513332364279
549,652.2085662069456
550,652.1660074397627
551,652.1237513110442
552,652.0818915496857
553,652.0405207872774
554,651.9997301275951
555,651.9596087390619
556,651.9202434713217
557,651.8817184947027
558,651.8441149591467
559,651.8075106669704
560,651.7719797519771
561,651.7375923571378
562,651.7044143052817
563,651.6725067616686
564,651.6419258924407
565,651.6127225270354
566,651.5849418343947
567,651.5586230220073
568,651.5337990644349
569,651.5104964653611
570,651.4887350552265
571,651.4685278254924
572,651.4498808004464
573,651.4327929478226
574,651.4172561299641
575,651.4032550977913
576,651.3907675307687
577,651.3797641274449
578,651.3702087521993
579,651.3620586435652
580,651.3552646878283
581,651.3497717595612
582,651.3455191291016
583,651.3424409354341
584,651.3404667211082
585,651.3395220240241
586,651.3395290194786
587,651.3404072046002
588,651.342074115965
589,651.3444460699693
590,651.347438914756
591,651.3509687824786
592,651.3549528314818
593,651.3593099691715
594,651.3639615473378
595,651.3688320223082
596,651.3738495729485
597,651.3789466705712
598,651.3840605959655
599,651.3891338995189
600,651.3941148008084
601,651.3989575247764
602,651.40362257296
603,651.408076929764
604,651.412294204825
605,651.4162547130808
606,651.419945494713
607,651.4233602778597
608,651.4264993874217
609,651.4293696029166
610,651.4319839676566
611,651.4343615516244
612,651.4365271713572
613,651.4385110707725
614,651.440348566386
615,651.4420796593114
616,651.44374861578
617,651.4454035179691
618,651.44709578743
619,651.4488796841135
620,651.4508117848884
621,651.4529504464952
622,651.4553552590215
623,651.4580864970171
624,651.4612045757018
625,651.4647695189581
626,651.4688404444803
627,651.4734750705048
628,651.4787292479788
629,651.4846565211526
630,651.4913077182349
631,651.4987305724455
632,651.5069693728313
633,651.5160646433962
634,651.5260528482917
635,651.536966120118
636,651.5488320079509
637,651.5616732417816
638,651.5755075108196
639,651.5903472545439
640,651.6061994673923
641,651.6230655202917
642,651.6409410042382
643,651.6598156021728
644,651.6796729951872
645,651.700490808086
646,651.7222405982355
647,651.7448878908301
648,651.7683922627843
649,651.7927074760347
650,651.8177816596589
651,651.8435575397499
652,651.8699727161177
653,651.8969599843545
654,651.9244476998657
655,651.9523601777137
656,651.9806181197441
657,652.0091390592764
658,652.0378378136323
659,652.0666269354717
660,652.0954171549205
661,652.124117805787
662,652.1526372309116
663,652.1808831640699
664,652.2087630889148
665,652.2361845786921
666,652.2630556227873
667,652.289284946557
668,652.314782329274
669,652.3394589221222
670,652.3632275650814
671,652.3860030992512
672,652.4077026703613
673,652.428246019956
674,652.4475557623568
675,652.4655576469895
676,652.4821808063358
677,652.497357989822
678,652.5110257838276
679,652.523124817879
680,652.5335999570756
681,652.542400481216
682,652.5494802520412
683,652.5547978710505
684,652.5583168310147
685,652.5600056645106
686,652.5598380922837
687,652.557793172627
688,652.5538554502707
689,652.5480151001577
690,652.5402680586565
691,652.5306161327065
692,652.5190670764192
693,652.5056346246754
694,652.4903384736294
695,652.4732041982148
696,652.4542630972329
697,652.433551958466
698,652.4111127399625
699,652.386992168572
700,652.3612412617508
701,652.3339147827286
702,652.3050706420689
703,652.2747692605795
704,652.2430729094285
705,652.2100450432723
706,652.1757496416113
707,652.1402505731205
708,652.1036109976219
709,652.0658928201198
710,652.027156210089
711,651.9874591967543
712,651.9468573478954
713,651.9054035362412
714,651.8631477940236
715,651.8201372529475
716,651.7764161639448
717,651.7320259888031
718,651.6870055544223
719,651.6413912602947
720,651.5952173306164
721,651.5485161036294
722,651.5013183518654
723,651.4536536276034
724,651.4055506278135
725,651.3570375722032
726,651.3081425871876
727,651.2588940880622
728,651.2093211513558
729,651.159453869247
730,651.1093236786193
731,651.05896365931
732,651.0084087992291
733,650.9576962273438
734,650.9068654178001
735,650.8559583685064
736,650.8050197552691
737,650.7540970592653
738,650.7032406628722
739,650.6525039073471
740,650.6019431054303
741,650.5516175026434
742,650.5015891831414
743,650.4519229191989
744,650.4026859666516
745,650.3539478110343
746,650.3057798706515
747,650.2582551637314
748,650.2114479472673
749,650.1654333352055
750,650.1202869033365
751,650.0760842874499
752,650.0329007801671
753,649.9908109309521
754,649.949888153352
755,649.9102043429475
756,649.8718295084338
757,649.8348314173455
758,649.7992752578444
759,649.7652233185056
760,649.7327346886633
761,649.701864982687
762,649.6726660924752
763,649.645185972861
764,649.619468464065
765,649.5955531543462
766,649.5734752853142
767,649.5532657019692
768,649.5349508490636
769,649.5185528148713
770,649.5040894231062
771,649.4915743732191
772,649.4810174279869
773,649.4724246450513
774,649.465798646484
775,649.4611389186252
776,649.458442134344
777,649.4577024915073
778,649.4589120634764
779,649.4620611579379
780,649.4671386786879
781,649.4741324822872
782,649.4830297195099
783,649.4938171510056
784,649.5064814275997
785,649.5210093278105
786,649.5373879477561
787,649.5556048407266
788,649.5756481049283
789,649.5975064185496
790,649.621169021774
791,649.6466256459756
792,649.6738663911998
793,649.7028815541152
794,649.7336614098648
795,649.7661959525649
796,649.8004746004456
797,649.8364858723895
798,649.8742170424696
799,649.9136537780452
800,649.9547797657905
801,649.9975763297889
802,650.0420220470075
803,650.0880923671633
804,650.1357592446273
805,650.184990788979
806,650.2357509390179
807,650.2879991636847
808,650.341690192899
809,650.3967737814705
810,650.4531945094458
811,650.5108916222086
812,650.5697989136859
813,650.6298446565437
814,650.6909515840799
815,650.7530369288978
816,650.8160125228783
817,650.8797849615737
818,650.944255834499
819,651.009322021577
820,651.0748760554286
821,651.1408065487713
822,651.2069986849173
823,651.2733347668584
824,651.339694817376
825,651.4059572202945
826,651.4719993920171
827,651.5376984727201
828,651.6029320277262
829,651.6675787512715
830,651.731519166421
831,651.7946363154986
832,651.8568164348394
833,651.9179496067286
834,651.9779303815671
835,652.0366583654937
836,652.0940387720977
837,652.1499829396984
838,652.204408816917
839,652.2572414193114
840,652.3084132591891
841,652.3578647491453
842,652.4055445772558
843,652.4514100489884
844,652.4954273888785
845,652.5375719942741
846,652.5778286336492
847,652.6161915826801
848,652.6526646922814
849,652.6872613842996
850,652.7200045728574
851,652.7509265123373
852,652.7800685758285
853,652.8074809691714
854,652.8332223846686
855,652.8573595957993
856,652.8799669917034
857,652.9011260493737
858,652.9209247427851
859,652.939456891133
860,652.9568214520325
861,652.9731217689545
862,652.9884647846277
863,653.0029602333105
864,653.0167198246278
865,653.0298564303489
866,653.0424832836397
867,653.0547131984837
868,653.0666578152915
869,653.0784268774053
870,653.0901275426896
871,653.101863734825
872,653.1137355396371
873,653.1258386519366
874,653.138263877602
875,653.1510966942126
876,653.1644168715844
877,653.1782981514552
878,653.1928079841496
879,653.2080073199365
880,653.2239504535277
881,653.2406849206047
882,653.2582514446977
883,653.2766839313372
884,653.2960095046808
885,653.3162485799944
886,653.3374149637715
887,653.3595159727287
888,653.3825525640787
889,653.4065194719528
890,653.4314053474274
891,653.4571929015797
892,653.4838590527132
893,653.5113750808134
894,653.5397067940701
895,653.5688147130925
896,653.5986542779068
897,653.6291760812695
898,653.6603261298502
899,653.6920461328925
900,653.7242738160575
901,653.7569432559179
902,653.7899852280203
903,653.82332755931
904,653.8568954748122
905,653.8906119288791
906,653.9243979127849
907,653.9581727329038
908,653.9918542570689
909,654.0253591305255
910,654.0586029666097
911,654.0915005205767
912,654.1239658574518
913,654.1559125256879
914,654.187253747427
915,654.2179026337619
916,654.24777243058
917,654.2767767981265
