frame_number,force
0,651.7634546285984
1,651.7885099903715
2,651.8137841325214
3,651.839156155103
4,651.8645038334043
5,651.8897041984839
6,651.9146341112377
7,651.9391708254917
8,651.9631925356452
9,651.9865789049377
10,652.0092115715872
11,652.0309746315954
12,652.0517550982901
13,652.0714433391404
14,652.0899334900627
15,652.1071238469199
16,652.1229172337374
17,652.1372213473585
18,652.1499490786063
19,652.1610188104086
20,652.1703546937568
21,652.177886902555
22,652.1835518681326
23,652.1872924936218
24,652.1890583479844
25,652.1888058394936
26,652.1864983687992
27,652.1821064618858
28,652.1756078828964
29,652.1669877258973
30,652.1562384836569
31,652.1433600910653
32,652.1283599412478
33,652.1112528733297
34,652.0920611314481
35,652.0708142946077
36,652.0475491764462
37,652.0223096931072
38,651.9951466964517
39,651.9661177691686
40,651.9352869782524
41,651.9027245837101
42,651.8685066999082
43,651.8327149074714
44,651.7954358143012
45,651.7567605655346
46,651.7167843041295
47,651.6756055854509
48,651.6333257500099
49,651.5900482585907
50,651.5458779945296
51,651.5009205398757
52,651.455281435375
53,651.4090654373275
54,651.3623757859175
55,651.31531349927
56,651.2679767058428
57,651.2204600254861
58,651.1728540069148
59,651.1252446269151
60,651.0777128551144
61,651.0303342879733
62,650.9831788563285
63,650.9363106111648
64,650.8897875913123
65,650.8436617742288
66,650.797979107844
67,650.752779619014
68,650.7080975931206
69,650.6639618192378
70,650.6203958954476
71,650.5774185890642
72,650.5350442465156
73,650.4932832469788
74,650.4521424924557
75,650.4116259254167
76,650.3717350642553
77,650.3324695469797
78,650.2938276746777
79,650.2558069477312
80,650.2184045885838
81,650.18161804424
82,650.145445459761
83,650.1098861119729
84,650.0749407917266
85,650.0406121237636
86,650.0069048152201
87,649.9738258264709
88,649.9413844606717
89,649.9095923704799
90,649.8784634822215
91,649.8480138398921
92,649.818261374024
93,649.7892256031489
94,649.760927277964
95,649.73338798006
96,649.7066296878412
97,649.6806743219672
98,649.6555432816479
99,649.6312569819761
100,649.6078344014879
101,649.5852926483494
102,649.5636465530182
103,649.5429082951462
104,649.5230870730325
105,649.5041888246396
106,649.486216009157
107,649.4691674568384
108,649.4530382925201
109,649.4378199353143
110,649.4235001737654
111,649.410063312537
112,649.3974903839855
113,649.3857594161093
114,649.3748457470451
115,649.364722375193
116,649.355360333513
117,649.3467290771856
118,649.3387968757116
119,649.3315312028703
120,649.3248991197106
121,649.3188676464401
122,649.3134041189485
123,649.308476525307
124,649.3040538175235
125,649.3001061944989
126,649.2966053534034
127,649.2935247079951
128,649.2908395733823
129,649.2885273174019
130,649.286567479218
131,649.2849418560207
132,649.2836345591197
133,649.2826320415732
134,649.2819231005668
135,649.2814988585401
136,649.2813527271558
137,649.281480357551
138,649.2818795790467
139,649.2825503269696
140,649.2834945588564
141,649.284716157407
142,649.2862208183165
143,649.288015921633
144,649.2901103863857
145,649.2925145095929
146,649.2952397921678
147,649.2982987554304
148,649.301704752618
149,649.3054717799818
150,649.3096142923578
151,649.3141470288954
152,649.3190848555167
153,649.3244426308024
154,649.3302351010171
155,649.3364768284105
156,649.3431821555233
157,649.3503652072399
158,649.3580399313208
159,649.3662201767764
160,649.3749198079715
161,649.384152851168
162,649.3939336691195
163,649.4042771580132
164,649.4151989596364
165,649.4267156804484
166,649.4388451084463
167,649.4516064186895
168,649.4650203594518
169,649.4791094128152
170,649.4938979250596
171,649.5094122030838
172,649.525680573951
173,649.5427334059782
174,649.5606030911539
175,649.5793239895414
176,649.5989323367107
177,649.61946611538
178,649.6409648921853
179,649.6634696195943
180,649.6870224017576
181,649.7116662222827
182,649.737444631834
183,649.7644013939881
184,649.7925800889188
185,649.8220236764091
186,649.8527740220978
187,649.8848713931178
188,649.9183539308642
189,649.9532571093321
190,649.9896131872337
191,650.0274506611106
192,650.0667937252255
193,650.1076617425754
194,650.1500687302871
195,650.1940228620371
196,650.2395259898568
197,650.2865731877299
198,650.3351523199173
199,650.3852436379547
200,650.4368194115228
201,650.4898435997642
202,650.5442715711623
203,650.6000498817779
204,650.6571161230122
205,650.7153988503452
206,650.7748176031695
207,650.8352830233663
208,650.8966970776221
209,650.9589533861531
210,651.0219376581073
211,651.0855282309179
212,651.1495967074126
213,651.2140086812361
214,651.2786245385959
215,651.3433003223649
216,651.4078886429993
217,651.4722396197319
218,651.5362018354266
219,651.5996232892783
220,651.6623523328893
221,651.7242385767756
222,651.785133755833
223,651.8448925437433
224,651.9033733080263
225,651.9604387996991
226,652.015956774104
227,652.0698005419335
228,652.1218494516218
229,652.1719893061965
230,652.220112719339
231,652.2661194163622
232,652.3099164859866
233,652.3514185886114
234,652.3905481267033
235,652.4272353827406
236,652.461418629146
237,652.4930442125274
238,652.5220666119902
239,652.5484484693112
240,652.5721605879298
241,652.5931818978364
242,652.6114993839911
243,652.6271079765544
244,652.6400104020241
245,652.6502169957002
246,652.6577454778836
247,652.6626206985046
248,652.6648743565873
249,652.6645447015607
250,652.6616762234795
251,652.656319339686
252,652.6485300861555
253,652.6383698216239
254,652.6259049510126
255,652.6112066720659
256,652.5943507460713
257,652.5754172905262
258,652.5544905894885
259,652.5316589169076
260,652.5070143692377
261,652.4806527046268
262,652.4526731856303
263,652.4231784210531
264,652.3922742016993
265,652.3600693253121
266,652.3266754071676
267,652.2922066735506
268,652.2567797352616
269,652.2205133376483
270,652.1835280831143
271,652.1459461223681
272,652.1078908120916
273,652.0694863387049
274,652.0308573095003
275,651.992128313097
276,651.9534234511807
277,651.9148658433236
278,651.8765771065008
279,651.8386768107541
280,651.8012819127358
281,651.7645061701884
282,651.7284595427908
283,651.6932475873019
284,651.6589708565248
285,651.6257243120541
286,651.5935967605334
287,651.562670322795
288,651.5330199450387
289,651.5047129612475
290,651.4778087164278
291,651.4523582606729
292,651.4284041236523
293,651.4059801772783
294,651.3851115912196
295,651.365814882692
296,651.3480980596197
297,651.3319608551033
298,651.3173950504973
299,651.3043848836121
300,651.2929075374626
301,651.2829337034665
302,651.2744282106429
303,651.2673507094014
304,651.2616563960131
305,651.2572967627594
306,651.2542203589766
307,651.2523735491171
308,651.251701254963
309,651.2521476699753
310,651.2536569344975
311,651.2561737614243
312,651.2596440033466
313,651.2640151541125
314,651.2692367798347
315,651.2752608761588
316,651.2820421500986
317,651.2895382264159
318,651.2977097805267
319,651.3065206018397
320,651.3159375929071
321,651.3259307109482
322,651.336472859219
323,651.3475397360444
324,651.3591096490031
325,651.3711633013153
326,651.3836835576054
327,651.3966551969487
328,651.4100646617538
329,651.423899810807
330,651.4381496834374
331,651.4528042797351
332,651.4678543597705
333,651.4832912632729
334,651.4991067502918
335,651.5152928628535
336,651.5318418072701
337,651.5487458562166
338,651.5659972688699
339,651.5835882266947
340,651.6015107822658
341,651.6197568188795
342,651.6383180193674
343,651.6571858433365
344,651.6763515130203
345,651.695806008984
346,651.7155400780164
347,651.7355442565399
348,651.7558089134294
349,651.7763243157349
350,651.7970807195602
351,651.8180684870987
352,651.839278230062
353,651.8607009788856
354,651.8823283755133
355,651.9041528854295
356,651.9261680224777
357,651.9483685780807
358,651.970750844755
359,651.9933128226457
360,652.0160543978925
361,652.0389774831706
362,652.0620861130998
363,652.0853864894016
364,652.1088869723148
365,652.1325980162923
366,652.156532050027
367,652.1807033032259
368,652.2051275842313
369,652.2298220129546
370,652.254804713149
371,652.2800944678883
372,652.3057103428373
373,652.3316712832019
374,652.3579956914162
375,652.3847009931538
376,652.4118031991532
377,652.439316470055
378,652.4672526913478
379,652.4956210655783
380,652.5244277288782
381,652.553675398487
382,652.5833630575286
383,652.613485682729
384,652.6440340196168
385,652.6749944078653
386,652.7063486576113
387,652.7380739768054
388,652.7701429500144
389,652.8025235697913
390,652.8351793218419
391,652.8680693244575
392,652.901148521312
393,652.9343679250794
394,652.9676749075493
395,653.0010135301306
396,653.0343249070488
397,653.0675475925362
398,653.1006179833524
399,653.133470729204
400,653.1660391456375
401,653.1982556261715
402,653.2300520524929
403,653.2613602029664
404,653.2921121598026
405,653.3222407139423
406,653.3516797651039
407,653.3803647136579
408,653.4082328412634
409,653.4352236778983
410,653.4612793534782
411,653.4863449325322
412,653.5103687304103
413,653.5333026093614
414,653.555102252671
415,653.5757274149059
416,653.5951421462005
417,653.6133149884747
418,653.6302191415593
419,653.6458325973977
420,653.6601382406702
421,653.6731239140444
422,653.6847824457668
423,653.6951116370533
424,653.7041142074942
425,653.7117976987446
426,653.7181743394437
427,653.7232608766338
428,653.7270783804072
429,653.7296520292263
430,653.7310108834873
431,653.7311876541552
432,653.7302184713506
433,653.7281426550941
434,653.7250024880781
435,653.7208429888665
436,653.7157116830684
437,653.709658369761
438,653.7027348812171
439,653.6949948357666
440,653.6864933853055
441,653.6772869595401
442,653.6674330085901
443,653.6569897448181
444,653.6460158841927
445,653.6345703874415
446,653.6227122018057
447,653.610500004909
448,653.5979919525296
449,653.5852454321698
450,653.5723168249687
451,653.5592612796769
452,653.546132503295
453,653.5329825730117
454,653.5198617734354
455,653.5068184620474
456,653.4938989644023
457,653.4811474989708
458,653.4686061298687
459,653.4563147441932
460,653.4443110495056
461,653.4326305863124
462,653.4213067499945
463,653.4103708163686
464,653.3998519651659
465,653.3897772965047
466,653.3801718367478
467,653.3710585314407
468,653.36245822387
469,653.354389618112
470,653.3468692255774
471,653.339911294361
472,653.3335277212657
473,653.3277279471463
474,653.322518837215
475,653.3179045490723
476,653.3138863921265
477,653.310462682676
478,653.3076285996436
479,653.3053760467866
480,653.303693527512
481,653.3025660377818
482,653.301974981348
483,653.301898110277
484,653.3023094925059
485,653.3031795069571
486,653.3044748657687
487,653.3061586628411
488,653.3081904480072
489,653.3105263261808
490,653.3131190806407
491,653.3159183194244
492,653.3188706438428
493,653.3219198383135
494,653.3250070808871
495,653.3280711739598
496,653.3310487949524
497,653.3338747673371
498,653.3364823528991
499,653.3388035659125
500,653.3407695089953
501,653.3423107293397
502,653.3433575931066
503,653.3438406750954
504,653.343691160365
505,653.3428412541147
506,653.3412245954046
507,653.3387766690129
508,653.3354352084108
509,653.3311405824066
510,653.3258361587764
511,653.3194686394502
512,653.3119883626763
513,653.3033495680513
514,653.2935106212564
515,653.2824341976149
516,653.2700874270872
517,653.2564420066096
518,653.2414742870012
519,653.2251653405843
520,653.2075010133559
521,653.1884719634018
522,653.1680736858518
523,653.1463065239113
524,653.123175665064
525,653.0986911213018
526,653.0728676923158
527,653.0457249112246
528,653.0172869737881
529,652.9875826539533
530,652.9566452103924
531,652.9245122897742
532,652.8912258326535
533,652.8568319869252
534,652.8213810315109
535,652.7849273095729
536,652.747529166944
537,652.7092488885203
538,652.6701526236359
539,652.6303102911335
540,652.5897954557586
541,652.5486851691356
542,652.5070597705284
543,652.465002644656
544,652.4225999358271
545,652.379940219295
546,652.3371141320238
547,652.2942139665312
548,652.251333233826
549,652.2085662042779
550,652.1660074370265
551,652.1237513082364
552,652.0818915468026
553,652.0405207843152
554,651.9997301245503
555,651.9596087359316
556,651.9202434681034
557,651.8817184913945
558,651.8441149557477
559,651.8075106634807
560,651.771979748398
561,651.7375923534719
562,651.7044143015321
563,651.6725067578385
564,651.6419258885331
565,651.6127225230534
566,651.5849418303418
567,651.5586230178878
568,651.5337990602542
569,651.5104964611248
570,651.4887350509401
571,651.4685278211617
572,651.4498807960773
573,651.4327929434207
574,651.4172561255351
575,651.4032550933407
576,651.3907675263019
577,651.3797641229669
578,651.3702087477143
579,651.3620586390764
580,651.3552646833382
581,651.3497717550721
582,651.3455191246153
583,651.342440930952
584,651.3404667166315
585,651.3395220195538
586,651.3395290150165
587,651.3404072001487
588,651.3420741115268
589,651.3444460655477
590,651.3474389103545
591,651.3509687781008
592,651.3549528271307
593,651.3593099648497
594,651.3639615430474
595,651.3688320180504
596,651.3738495687243
597,651.3789466663806
598,651.3840605918082
599,651.3891338953941
600,651.3941147967151
601,651.398957520713
602,651.4036225689243
603,651.4080769257534
604,651.4122942008362
605,651.4162547091099
606,651.419945490756
607,651.4233602739122
608,651.4264993834793
609,651.4293695989749
610,651.4319839637109
611,651.4343615476697
612,651.4365271673885
613,651.4385110667847
614,651.4403485623739
615,651.44207965527
616,651.4437486117046
617,651.4454035138551
618,651.4470957832732
619,651.4488796799099
620,651.4508117806342
621,651.4529504421872
622,651.4553552546572
623,651.4580864925945
624,651.4612045712196
625,651.4647695144157
626,651.4688404398786
627,651.4734750658458
628,651.4787292432658
629,651.4846565163899
630,651.4913077134277
631,651.4987305675993
632,651.5069693679524
633,651.5160646384915
634,651.5260528433691
635,651.5369661151867
636,651.5488320030204
637,651.5616732368619
638,651.575507505921
639,651.5903472496766
640,651.6061994625674
641,651.6230655155202
642,651.6409409995312
643,651.6598155975402
644,651.6796729906386
645,651.7004908036299
646,651.7222405938793
647,651.7448878865796
648,651.768392258644
649,651.7927074720076
650,651.817781655747
651,651.8435575359542
652,651.869972712438
653,651.8969599807893
654,651.9244476964128
655,651.9523601743699
656,651.9806181165055
657,652.0091390561381
658,652.037837810589
659,652.0666269325181
660,652.0954171520511
661,652.124117802996
662,652.1526372281922
663,652.1808831614146
664,652.2087630863151
665,652.2361845761385
666,652.2630556202693
667,652.2892849440634
668,652.3147823267935
669,652.339458919644
670,652.3632275625954
671,652.386003096748
672,652.407702667833
673,652.4282460173953
674,652.4475557597574
675,652.465557644346
676,652.4821808036445
677,652.4973579870805
678,652.511025781034
679,652.5231248150325
680,652.5335999541757
681,652.5424004782628
682,652.5494802490362
683,652.5547978679956
684,652.5583168279127
685,652.560005661365
686,652.5598380890987
687,652.5577931694069
688,652.55385544702
689,652.5480150968816
690,652.5402680553601
691,652.530616129395
692,652.5190670730968
693,652.5056346213458
694,652.4903384702957
695,652.4732041948791
696,652.4542630938973
697,652.4335519551319
698,652.4111127366305
699,652.3869921652418
700,652.3612412584222
701,652.3339147794004
702,652.3050706387396
703,652.2747692572467
704,652.2430729060895
705,652.2100450399244
706,652.1757496382511
707,652.1402505697447
708,652.1036109942271
709,652.0658928167028
710,652.0271562066473
711,651.9874591932859
712,651.9468573443986
713,651.9054035327146
714,651.8631477904648
715,651.820137249354
716,651.7764161603143
717,651.7320259851334
718,651.6870055507117
719,651.6413912565416
720,651.5952173268198
721,651.5485160997883
722,651.5013183479786
723,651.4536536236689
724,651.4055506238287
725,651.3570375681655
726,651.3081425830934
727,651.2588940839076
728,651.2093211471364
729,651.159453864958
730,651.1093236742552
731,651.0589636548655
732,651.0084087946982
733,650.9576962227208
734,650.9068654130792
735,650.8559583636828
736,650.8050197503385
737,650.754097054224
738,650.7032406577175
739,650.6525039020775
740,650.6019431000454
741,650.5516174971436
742,650.5015891775286
743,650.4519229134754
744,650.4026859608214
745,650.3539478051025
746,650.3057798646244
747,650.2582551576165
748,650.2114479410734
749,650.1654333289422
750,650.1202868970139
751,650.0760842810789
752,650.0329007737591
753,649.9908109245188
754,649.9498881469054
755,649.9102043364998
756,649.871829501997
757,649.8348314109313
758,649.799275251465
759,649.765223312173
760,649.7327346823892
761,649.7018649764825
762,649.6726660863516
763,649.6451859668288
764,649.6194684581342
765,649.5955531485264
766,649.5734752796141
767,649.5532656963969
768,649.5349508436269
769,649.5185528095772
770,649.5040894179613
771,649.49157436823
772,649.4810174231594
773,649.4724246403912
774,649.4657986419963
775,649.4611389143146
776,649.4584421302138
777,649.4577024875607
778,649.4589120597155
779,649.4620611543638
780,649.4671386753002
781,649.4741324790843
782,649.4830297164887
783,649.4938171481614
784,649.506481424926
785,649.5210093252995
786,649.5373879453988
787,649.5556048385129
788,649.5756481028476
789,649.5975064165913
790,649.6211690199275
791,649.6466256442309
792,649.6738663895467
793,649.7028815525433
794,649.7336614083638
795,649.766195951124
796,649.8004745990543
797,649.8364858710369
798,649.874217041144
799,649.9136537767345
800,649.954779764482
801,649.9975763284704
802,650.0420220456668
803,650.088092365789
804,650.1357592432086
805,650.1849907875061
806,650.2357509374816
807,650.2879991620771
808,650.3416901912129
809,650.3967737796997
810,650.4531945075845
811,650.5108916202515
812,650.5697989116281
813,650.6298446543811
814,650.6909515818091
815,650.7530369265156
816,650.8160125203818
817,650.87978495896
818,650.9442558317653
819,651.0093220187205
820,651.0748760524475
821,651.1408065456642
822,651.2069986816834
823,651.2733347634972
824,651.339694813887
825,651.4059572166778
826,651.4719993882735
827,651.5376984688502
828,651.6029320237308
829,651.667578747152
830,651.7315191621794
831,651.7946363111379
832,651.856816430363
833,651.9179496021404
834,651.977930376872
835,652.0366583606968
836,652.0940387672047
837,652.1499829347154
838,652.2044088118508
839,652.2572414141692
840,652.308413253978
841,652.3578647438721
842,652.405544571928
843,652.451410043613
844,652.4954273834629
845,652.5375719888259
846,652.5778286281765
847,652.6161915771917
848,652.6526646867865
849,652.6872613788079
850,652.7200045673791
851,652.7509265068825
852,652.7800685704074
853,652.8074809637932
854,652.833222379342
855,652.8573595905325
856,652.8799669865042
857,652.9011260442495
858,652.9209247377428
859,652.939456886179
860,652.9568214471731
861,652.9731217641953
862,652.9884647799738
863,653.0029602287659
864,653.0167198201958
865,653.0298564260323
866,653.0424832794406
867,653.0547131944035
868,653.0666578113313
869,653.078426873566
870,653.0901275389716
871,653.1018637312278
872,653.1137355361594
873,653.1258386485758
874,653.1382638743547
875,653.1510966910747
876,653.1644168685509
877,653.1782981485197
878,653.1928079813042
879,653.208007317172
880,653.2239504508334
881,653.2406849179694
882,653.2582514421093
883,653.2766839287837
884,653.2960095021501
885,653.3162485774749
886,653.337414961252
887,653.3595159701987
888,653.3825525615279
889,653.406519469371
890,653.4314053448045
891,653.4571928989062
892,653.4838590499803
893,653.511375078013
894,653.5397067911946
895,653.5688147101349
896,653.59865427486
897,653.6291760781261
898,653.6603261266027
899,653.6920461295337
900,653.7242738125798
901,653.7569432523143
902,653.7899852242842
903,653.8233275554358
904,653.8568954707948
905,653.8906119247148
906,653.9243979084712
907,653.9581727284394
908,653.991854252454
909,654.0253591257617
910,654.0586029617001
911,654.091500515526
912,654.123965852266
913,654.1559125203737
914,654.1872537419922
915,654.2179026282146
916,654.2477724249279
917,654.2767767923775
