acceleration,velocity,displacement
0.003263668126766879,0.0,0.0
0.0037875317548319606,1.7627999703997102e-06,4.4069999259992756e-10
0.004282012993849915,3.780186157570179e-06,1.8264465245924e-09
0.004743882050467585,6.036659918649554e-06,4.280658043647333e-09
0.005170626985222955,8.515287177572188e-06,7.918644817702769e-09
0.005560492531789457,1.119806705682529e-05,1.284698337630214e-08
0.005912510070004409,1.4066317707273757e-05,1.91630795673269e-08
0.006226514233934304,1.7101073783258435e-05,2.695492743995995e-08
0.006503141234821317,2.028348765044734e-05,3.6301067798386396e-08
0.006743804754182075,2.359522414769819e-05,4.727074574792278e-08
0.006950647532061741,2.701883721925914e-05,5.992426108966211e-08
0.007126469926934035,3.0538116584008084e-05,7.431349954047892e-08
0.0072746392836970375,3.4138393886665855e-05,9.04826271581474e-08
0.007398984628537728,3.780679986472455e-05,1.0846892559599501e-07
0.00750368012622017,4.153246605341402e-05,1.2830374207552966e-07
0.007593119242972539,4.53066658957122e-05,1.5001352506281123e-07
0.00767178090145909,4.912289093182011e-05,1.736209142696943e-07
0.007744089220175274,5.29768584622287e-05,1.991458516182065e-07
0.007814269129284188,5.686644804959357e-05,2.2660667824616208e-07
0.007886201022354357,6.0791565587503204e-05,2.5602118165543625e-07
0.007963278589855712,6.475393549055572e-05,2.8740755692495096e-07
0.008048274482772204,6.87568237587127e-05,3.207852467372681e-07
0.008143217902920703,7.280469685513592e-05,3.5617562689073023e-07
0.008249287019448737,7.690282308572828e-05,3.9360250687594627e-07
0.008366718308661467,8.105682441775583e-05,4.330924187518173e-07
0.008494735140248904,8.527218777998342e-05,4.746746718012521e-07
0.008631498854925599,8.955374627877704e-05,5.183811553159423e-07
0.008774086165369687,9.390514253385087e-05,5.642458775190992e-07
0.008918496034837934,9.832828808390277e-05,6.123042351735376e-07
0.009059687165733205,0.00010282283388404555,6.625920156655248e-07
0.009191644887388389,0.00010738566689732595,7.151441408608676e-07
0.009307475116066046,0.00011201044689818956,7.699931693097465e-07
0.009399523902867465,0.00011668719665292294,8.271675801975247e-07
0.009459522937565261,0.00012140195836303112,8.866898689515132e-07
0.009478762500889956,0.00012613652972264493,9.485744909729322e-07
0.009448292882620852,0.00013086829356852262,1.012825696795724e-06
0.009359153439948656,0.000135570155149165,1.079435308975146e-06
0.009202625722793265,0.0001402105999398505,1.1483804977473998e-06
0.008970504005878784,0.0001447538823720185,1.219621618325367e-06
0.00865537406314207,0.00014916035188927373,1.29310017689069e-06
0.00825088977675104,0.000153386917849247,1.3687369943253202e-06
0.00775203698637378,0.0001573876495400282,1.446430636172639e-06
0.0071553740979476135,0.00016111450231110855,1.5260561741354233e-06
0.006459238926102866,0.00016451815556712117,1.6074643386049809e-06
0.0056639115407352844,0.0001675489431838307,1.6904811132927189e-06
0.004771724601292634,0.00017015785221933768,1.774907812143511e-06
0.003787115812707466,0.0001722975623228377,1.8605216657790549e-06
0.0027166199616128857,0.00017392349626641778,1.9470769304263688e-06
0.0015687987536454446,0.00017499485094523237,2.034306517229281e-06
0.00035410593204617896,0.00017547557711665527,2.121924124244753e-06
-0.0009153143943913337,0.00017533527500106897,2.209626837274184e-06
-0.0022258943191423427,0.00017454997282268555,2.2970981492301227e-06
-0.00356296461971564,0.00017310275808797104,2.384011331957787e-06
-0.004911117133815723,0.00017098423764958822,2.4700330808921766e-06
-0.006254587377092603,0.00016819281152186114,2.554827343185039e-06
-0.0075776383486807035,0.0001647347550904178,2.6380592348381085e-06
-0.008864929835167977,0.00016062411304445563,2.7193989518718267e-06
-0.01010186214927559,0.00015588241504834474,2.798525583895027e-06
-0.011274888353004702,0.00015053822742277468,2.875130744512807e-06
-0.012371793505720556,0.00014462655695809335,2.9489219406080238e-06
-0.013381941597977485,0.00013818812318216884,3.0196256106430892e-06
-0.014296489646656502,0.00013126851537101033,3.086989770281384e-06
-0.015108565124149794,0.00012391725167830875,3.150786212043714e-06
-0.01581340018617711,0.00011618676035072703,3.210812215050973e-06
-0.016408416478050393,0.00010813130618467015,3.266891731684822e-06
-0.016893258166875157,9.980588752343876e-05,3.318876030111849e-06
-0.01726977619716501,9.126512893242871e-05,3.366643784225816e-06
-0.017541970340831704,8.256219229792953e-05,3.4101006145334055e-06
-0.017715895942018993,7.374772572721686e-05,3.4491780940396923e-06
-0.017799540517509118,6.486886661233483e-05,3.48383224212458e-06
-0.017802673148793368,5.5968313195759214e-05,3.514041537076604e-06
-0.017736667461169565,4.708347804326848e-05,3.539804484886361e-06
-0.01761429748173492,3.824573680754236e-05,3.5611367885990633e-06
-0.017449505880899465,2.947978596688376e-05,3.57806816929267e-06
-0.01725714632328906,2.0803122915836628e-05,3.59063889651335e-06
-0.01705270449503223,1.2225660211256307e-05,3.598896092295123e-06
-0.01685200391495292,3.7494831087600185e-06,3.602889878125127e-06
-0.016670901969488162,-4.6312433623502525e-06,3.6026694380617294e-06
-0.016524979083282224,-1.2930213625542848e-05,3.598279073814756e-06
-0.01642922092304268,-2.1168763627124073e-05,3.5897543295015894e-06
-0.01639769227152701,-2.9375491925766495e-05,3.5771182656133667e-06
-0.01644320360015579,-3.75857158936872e-05,3.5603779636585034e-06
-0.016576977079192295,-4.584076106352422e-05,3.5395213444192005e-06
-0.01680832500555135,-5.418708658471013e-05,3.5145143825071418e-06
-0.01714435737277249,-6.267525717929109e-05,3.4852987965661413e-06
-0.017589735496544235,-7.135878039662028e-05,3.4517902871721634e-06
-0.018146485994752125,-8.029283576944437e-05,3.413877383130647e-06
-0.018813885318208465,-8.953292859768451e-05,3.371420942038865e-06
-0.019588421001083874,-9.91335051775076e-05,3.324254333595067e-06
-0.020463833063636205,-0.00010914656869368762,3.272184315127268e-06
-0.021431237034857227,-0.00011962033621831097,3.2149925888992686e-06
-0.02247932723074181,-0.00013059797728471074,3.152438010523513e-06
-0.023594654795113922,-0.00014211647279117467,3.0842593980045415e-06
-0.024761970576793316,-0.00015420562913415146,3.01017887252321e-06
-0.02596461907297455,-0.00016688727654659344,2.929905646103024e-06
-0.02718496706006243,-0.0001801746730798527,2.8431401586964124e-06
-0.028404849972174625,-0.00019407212733791196,2.7495784585919713e-06
-0.02960602077818428,-0.0002085748450255017,2.6489167155011177e-06
-0.030770589126233275,-0.00022366899750160608,2.5408557548693407e-06
-0.03188144161158296,-0.00023933200518606014,2.4251055041974243e-06
-0.03292263644516166,-0.0002555330247002463,2.301389246725848e-06
-0.03387976743981392,-0.0002722336256714902,2.1694475841329136e-06
-0.03474029303278778,-0.0002893886407896406,2.029042017517631e-06
-0.03549382548341661,-0.0003069471704186917,1.879958064715548e-06
-0.03613237308696554,-0.00032485372006128724,1.7220078420955532e-06
-0.036650525354105484,-0.000343049444671555,1.5550320509123427e-06
-0.037045569716118595,-0.00036147346843911103,1.3789013226346763e-06
-0.03731752965115824,-0.00038006424328093023,1.193516894704666e-06
-0.03746911781285951,-0.0003987609051469347,9.988106075976996e-07
-0.037505602736544325,-0.00041750458528428563,7.947442349898945e-07
-0.037434593324989544,-0.0004362396342996691,5.813081800939059e-07
-0.0372657509733897,-0.00045491472037426393,3.5851959142542257e-07
-0.0370104436942278,-0.00047348376904116833,1.2641996907156453e-07
-0.036681359191722676,-0.0004919067197626559,-1.1492765312939153e-07
-0.03629209524292571,-0.000510150083371318,-3.65441853912885e-07
-0.035856746764926936,-0.0005281872938732811,-6.250261982240348e-07
-0.03538950882429259,-0.000545998857770586,-8.935727361350016e-07
-0.034904312144509515,-0.0005635723130127865,-1.1709655288308447e-06
-0.03441450226907264,-0.0005809020166161821,-1.4570841112380868e-06
-0.033932567287440506,-0.0005979887840053104,-1.7518068113934599e-06
-0.03346991437873031,-0.000614839404421853,-2.0550138585002508e-06
-0.03303669349370631,-0.0006314660563899622,-2.3665902237032044e-06
-0.03264166670468555,-0.0006478856464395601,-2.686428149410585e-06
-0.032292122799313774,-0.0006641190938155599,-3.014429334474365e-06
-0.031993837181208844,-0.0006801905838106906,-3.3505067538809276e-06
-0.03175107610225643,-0.0006961268121315569,-3.6945861028664892e-06
-0.03156664198605055,-0.0007119562416536337,-4.046606866312787e-06
-0.031441954408672576,-0.0007277083907523145,-4.406523024414274e-06
-0.031377160014748245,-0.0007434131693581697,-4.7743034144418955e-06
-0.03137126418803301,-0.0007591002754088651,-5.1499317756336545e-06
-0.03142227748656353,-0.0007747986608275142,-5.533406509692749e-06
-0.03152737047988423,-0.0007905360728191262,-5.924740193104409e-06
-0.03168303094977859,-0.0008063386731765418,-6.323958879603327e-06
-0.0318852167674925,-0.0008222307351058596,-6.731101231673927e-06
-0.032129496561043074,-0.0008382344134379935,-7.14621751880989e-06
-0.03241116974117452,-0.0008543695800135478,-7.569368517172775e-06
-0.03272535845695339,-0.0008706537120630798,-8.000624340191932e-06
-0.03306706676482915,-0.0008871018183685255,-8.440063222799833e-06
-0.03343120632414933,-0.0009037263866407701,-8.887770274052156e-06
-0.03381259248111527,-0.0009205373363420863,-9.343836204797871e-06
-0.03420591869901189,-0.0009375419641371181,-9.808356029917672e-06
-0.034605720152420034,-0.0009547448738499761,-1.0281427739414445e-05
-0.0350063384474187,-0.0009721478884999358,-1.0763150930001924e-05
-0.03540189868138649,-0.0009897499477821371,-1.1253625389072441e-05
-0.03578630778685312,-0.001007546999399197,-1.1752949625867776e-05
-0.03615328005032344,-0.0010255318963584912,-1.2261219349807198e-05
-0.03649639240423529,-0.0010436943144721308,-1.2778525902514854e-05
-0.03680916912197451,-0.0010620207048536833,-1.3304954657346307e-05
-0.03708519363709606,-0.001080494295543451,-1.384058340744559e-05
-0.03731824426538916,-0.0010990951550190723,-1.4385480770086221e-05
-0.03750244930442411,-0.0011178003284115256,-1.4939704640943871e-05
-0.03763245436795606,-0.0011365840543296206,-1.5503300736629156e-05
-0.03770359186750469,-0.0011554180658884857,-1.607630126668368e-05
-0.03771204129280919,-0.0011742719741785642,-1.6658723776700444e-05
-0.037654970170470016,-0.0011931137270443839,-1.7250570202006182e-05
-0.03753064813696221,-0.001211910131621242,-1.785182616667259e-05
-0.03733852865990482,-0.0012306274258204587,-1.8462460556033015e-05
-0.0370792940306212,-0.0012492318814930903,-1.9082425382861403e-05
-0.0367548603667319,-0.0012676904200924286,-1.9711655958257782e-05
-0.03636834136250569,-0.0012859712205247381,-2.0350071368412075e-05
-0.03592397176638578,-0.001304044298806961,-2.0997575248245e-05
-0.035426993205616826,-0.0013218820400499617,-2.165405683295923e-05
-0.034883506475710105,-0.0013394596649702935,-2.2319392259214294e-05
-0.03430029654313042,-0.0013567556157250036,-2.2993446079388117e-05
-0.03368463898097214,-0.0013737518496060293,-2.3676072945720876e-05
-0.033044098649705686,-0.0013904340340136988,-2.4367119416625808e-05
-0.03238633272093186,-0.0014067916418563581,-2.5066425835593323e-05
-0.03171890980148478,-0.0014228179524869622,-2.5773828234179152e-05
-0.031049154082124032,-0.0014385099684578644,-2.648916021441536e-05
-0.030384019059608126,-0.0014538682617432975,-2.721225477196565e-05
-0.02972999188018602,-0.001468896764478246,-2.7942946028521035e-05
-0.029093027587389502,-0.00148360251934514,-2.868107084947688e-05
-0.028478510999459958,-0.0014979954039918524,-2.9426470330311128e-05
-0.02789124147580831,-0.0015120878421106695,-3.0178991141836757e-05
-0.027335433416841477,-0.001525894510833832,-3.093848673007288e-05
-0.026814724249158182,-0.0015394320502503318,-3.1704818370343924e-05
-0.026332181811519587,-0.0015527187767655011,-3.247785607709788e-05
-0.025890303936919237,-0.0015657743982026109,-3.325747937083991e-05
-0.025491004944196424,-0.0015786197254228898,-3.4043577901746286e-05
-0.02513558726188503,-0.0015912763734744102,-3.4836051926470614e-05
-0.024824700726020353,-0.0016037664454713865,-3.563481263120706e-05
-0.024558295502505146,-0.001616112194528518,-3.6439782291207034e-05
-0.024335576309892117,-0.0016283356624816172,-3.725089425545957e-05
-0.02415496594235612,-0.0016404582980446792,-3.8068092745591144e-05
-0.024014084933089336,-0.0016525005607635405,-3.88913324602932e-05
-0.023909751193977126,-0.001664481519795307,-3.972057798043291e-05
-0.023837999253662975,-0.001676418457407217,-4.055580297473354e-05
-0.023794114795524283,-0.0016883264859195138,-4.139698921056522e-05
-0.02377267773150542,-0.0017002181840512713,-4.2244125378057916e-05
-0.023767606524087707,-0.0017121032551151696,-4.3097205737849525e-05
-0.02377219796495813,-0.001723988206237431,-4.3956228603187674e-05
-0.02377915975371103,-0.0017358760456670983,-4.482119466616381e-05
-0.023780637186975966,-0.00174776599490227,-4.569210517630615e-05
-0.02376823907253646,-0.0017596532139671482,-4.6568959978523505e-05
-0.023733070740314905,-0.001771528541420361,-4.7451755417370384e-05
-0.023665783472518038,-0.0017833782549735693,-4.8340482116468866e-05
-0.023556650123723967,-0.0017951838633726298,-4.923512264605542e-05
-0.02339567616179768,-0.0018069219449440102,-5.0135649098134576e-05
-0.023172753454396924,-0.0018185640523480588,-5.1042020597457595e-05
-0.022877860891556343,-0.001830076705934547,-5.195418078702825e-05
-0.022501311902448813,-0.0018414214991330485,-5.287205533829515e-05
-0.022034044410158056,-0.0018525553382112002,-5.379554954763121e-05
-0.02146794367695099,-0.0018634308352329775,-5.472454609099226e-05
-0.020796182914716254,-0.0018739968668808943,-5.5658903016520725e-05
-0.02001356151165352,-0.0018841993029874867,-5.659845205898782e-05
-0.019116818160685868,-0.0018939818979055716,-5.754299735921109e-05
-0.018104897257799162,-0.001903287326760193,-5.849231466537753e-05
-0.016979150661849057,-0.001912058338740105,-5.9446151081752604e-05
-0.015743460997718423,-0.001920238991654997,-6.040422541435138e-05
-0.014404276047170985,-0.0019277759259162192,-6.136622914374419e-05
-0.012970547330421108,-0.0019346196317606172,-6.23318280331634e-05
-0.011453571025284513,-0.0019407256613495436,-6.330066435644093e-05
-0.009866735635214065,-0.0019460557380146682,-6.427235970628198e-05
-0.00822518670404014,-0.0019505787185994817,-6.524651832043551e-05
-0.0065454233217990005,-0.0019542713711059416,-6.622273084286187e-05
-0.004844844459783245,-0.001957118938051337,-6.720057842015119e-05
-0.003141265780329783,-0.0019591154656113654,-6.817963702106686e-05
-0.001452429046629779,-0.001960263889318105,-6.915948185979923e-05
0.00020447413300476,-0.0019605758780465114,-7.013969180164039e-05
0.0018132446878065774,-0.0019600714483413084,-7.111985363323735e-05
0.0033590682445737573,-0.001958778370108213,-7.209956608784972e-05
0.004828844057984469,-0.0019567313920325737,-7.307844352838491e-05
0.006211440680348454,-0.0019539713208479906,-7.405611920660505e-05
0.007497871012907876,-0.0019505439929246766,-7.503224803504821e-05
0.008681382478700534,-0.0019464991795517745,-7.600650882816732e-05
0.00975746219439849,-0.0019418894683834998,-7.697860599015115e-05
0.010723761782435786,-0.0019367691623892911,-7.794827064784434e-05
0.011579950786444719,-0.001931193234247071,-7.891526124700343e-05
0.012327511082552112,-0.0019252163687798218,-7.987936364776015e-05
0.012969487541175726,-0.0019188921191238897,-8.084039076973607e-05
0.013510212344967215,-0.001912272194152354,-8.179818184805513e-05
0.013955020911733418,-0.0019054058858381788,-8.275260136805276e-05
0.014309976052343468,-0.0018983396365971597,-8.37035377486616e-05
0.01458161489779325,-0.0018911167388596256,-8.465090184252579e-05
0.014776731351354518,-0.0018837771522973387,-8.559462531531503e-05
0.014902204877905244,-0.0018763574182400237,-8.653465895794936e-05
0.014964882688663778,-0.0018688906463483815,-8.747097097409646e-05
0.014971516168243635,-0.0018614065466341547,-8.840354527234209e-05
0.01492874527491696,-0.0018539314812733645,-8.933237977931897e-05
0.01484311906792461,-0.0018464885151876541,-9.025748477843423e-05
0.014721137762868573,-0.001839097450979956,-9.117888126997613e-05
0.014569301373898677,-0.001831774841195764,-9.209659934302006e-05
0.014394150857631646,-0.0018245339781378816,-9.301067654785347e-05
0.014202288915135497,-0.0018173848681946898,-9.392115625943661e-05
0.01400036942972052,-0.0018103342036084758,-9.48280860273874e-05
0.013795047696303176,-0.00180338534932697,-9.573151591562125e-05
0.013592888504043717,-0.0017965383652768833,-9.663149684427222e-05
0.013400234891199504,-0.0017897900844280725,-9.752807895669846e-05
0.013223044960540309,-0.0017831342644651375,-9.842131004392175e-05
0.01306670623781166,-0.0017765618266655495,-9.931123406670443e-05
0.012935837993751899,-0.0017700611906076586,-0.00010019788982102272
0.012834093938034311,-0.001763618707624712,-0.00010108130979558082
0.012763980352389652,-0.0017572191890521062,-0.00010196151926975002
0.012726705421093087,-0.0017508465176087355,-0.00010283853569641524
0.01272207288465516,-0.0017444843230322985,-0.0001037123684065755
0.012748428136100505,-0.0017381166977771096,-0.00010458301866177785
0.012802658807185188,-0.0017317289260412882,-0.00010545048006773245
0.012880245879429592,-0.0017253081998696346,-0.00010631473934921018
0.012975357319580891,-0.001718844299069882,-0.00010717577747394505
0.013080976064059327,-0.0017123302157239719,-0.00010803357110264352
0.013189057278748608,-0.00170576270738827,-0.00010888809433342157
0.013290712740003957,-0.0016991427648835819,-0.00010973932070148954
0.013376419836925797,-0.0016924759817393495,-0.00011058722538814527
0.013436249841647228,-0.0016857728143197062,-0.00011143178758716004
0.01346010827242086,-0.0016790487247911891,-0.00011227299297193776
0.013437981287649078,-0.0016723242024011716,-0.00011311083620373585
0.013360184552299953,-0.0016656246609411843,-0.00011394532341957143
0.013217612371884265,-0.0016589802117101381,-0.00011477647463773427
0.013001984074932737,-0.0016524253125984338,-0.00011560432601881141
0.012706082303638816,-0.001645998296003791,-0.00011642893192096197
0.012323975659504454,-0.0016397407815130051,-0.00011725036669034117
0.011851217785829673,-0.0016336969831516716,-0.00011806872613150733
0.011285017089091832,-0.0016279129244329412,-0.00011888412860840349
0.010624374672091081,-0.0016224355764926455,-0.00011969671573363489
0.00987019044031771,-0.0016173119352145434,-0.00012050665261156169
0.009025337534277474,-0.0016125880532208946,-0.00012131412760867055
0.008094703876376539,-0.001608308042868231,-0.00012211935163269284
0.00708519787452593,-0.0016045130674305053,-0.00012292255691026752
0.006005713596146386,-0.0016012403395628371,-0.00012372399526201585
0.004867049155153319,-0.0015985221488750122,-0.00012452393588412532
0.0036817716347179023,-0.0015963849436775443,-0.00012532266265726346
0.0024640240593644044,-0.0015948484947540236,-0.00012612047101687136
0.0012292747615378398,-0.0015939251700487981,-0.00012691766443307206
-5.985174090359078e-06,-0.0015936193476519362,-0.00012771455056249725
-0.0012245872610869488,-0.0015939269907607305,-0.0001285114371471004
-0.0024090636436352956,-0.001594835403486911,-0.00012930862774566233
-0.003542048032259053,-0.0015963231814058844,-0.00013010641739188552
-0.0046066901161813285,-0.0015983603659429945,-0.00013090508827872275
-0.005587073798312873,-0.0016009088069216181,-0.0001317049055719389
-0.006468628511913639,-0.0016039227324991748,-0.0001325061134567941
-0.0072385207459366675,-0.0016073495198136373,-0.0001333089315198723
-0.007886010495081478,-0.0016111306526238919,-0.0001341135515629817
-0.008402756632489499,-0.0016152028444057847,-0.0001349201349372391
-0.008783057737255455,-0.0016194992979982209,-0.0001357288104728401
-0.009024020163770977,-0.0016239510674734775,-0.00013653967306420802
-0.00912565069488941,-0.0016284884851881427,-0.00013735278295237344
-0.009090874484079109,-0.0016330426164828848,-0.0001381681657277912
