frame_number,force
0,651.8263337593119
1,651.8611303488408
2,651.8939752721758
3,651.924653996779
4,651.9529996721158
5,651.9788957081449
6,652.0022777662177
7,652.0231348622342
8,652.0415092552488
9,652.057494846218
10,652.071233962347
11,652.0829126118251
12,652.0927544637759
13,652.1010138535763
14,652.10796804174
15,652.1139088554397
16,652.1191337981201
17,652.1239367329682
18,652.1285982924865
19,652.1333762240256
20,652.1384959466602
21,652.1441416281643
22,652.1504480541934
23,652.1574934822662
24,652.1652936198461
25,652.1737968808243
26,652.1828811359493
27,652.1923522117304
28,652.2019443473358
29,652.2113226846955
30,652.2200877113877
31,652.2277815017436
32,652.2338956575765
33,652.2378809729823
34,652.2391589223482
35,652.2371350391443
36,652.2312141306659
37,652.2208170913735
38,652.2053988724438
39,652.1844669987979
40,652.157599942302
41,652.1244646474244
42,652.0848325131898
43,652.0385931322727
44,651.9857651077537
45,651.9265033818526
46,651.8611027202089
47,651.7899971829024
48,651.7137554640377
49,651.6330719325182
50,651.5487532363844
51,651.4617005965821
52,651.3728883867585
53,651.2833400631539
54,651.194102749986
55,651.1062217459373
56,651.0207159938805
57,650.9385552487265
58,650.8606393386298
59,650.7877796164944
60,650.7206825578901
61,650.6599355402133
62,650.6059950573098
63,650.5591778036614
64,650.5196550413007
65,650.4874504057128
66,650.4624409516247
67,650.4443610022176
68,650.4328083434157
69,650.4272524204555
70,650.4270443417158
71,650.4314286369752
72,650.4395568171345
73,650.4505027683091
74,650.4632798656531
75,650.4768595035615
76,650.4901906365704
77,650.5022199696281
78,650.5119126043138
79,650.5182731478088
80,650.5203673751618
81,650.5173443765328
82,650.5084587417975
83,650.4930919203334
84,650.4707716450976
85,650.4411882975559
86,650.4042072636851
87,650.3598766037873
88,650.3084296263521
89,650.2502821379637
90,650.1860242717686
91,650.1164069851244
92,650.0423235912963
93,649.9647869845301
94,649.8849034731537
95,649.8038443086353
96,649.7228160357878
97,649.6430306770123
98,649.5656765630064
99,649.491890417315
100,649.4227311412652
101,649.3591556369104
102,649.301996952372
103,649.2519450724644
104,649.209530830127
105,649.1751136062494
106,649.1488735777617
107,649.1308091851749
108,649.1207402459188
109,649.1183168081146
110,649.1230334656746
111,649.1342484798237
112,649.1512067531604
113,649.1730655304096
114,649.1989216065359
115,649.2278387549753
116,649.2588740969359
117,649.2911023120836
118,649.3236369494902
119,649.3556485128897
120,649.3863793033153
121,649.4151551306688
122,649.4413939918915
123,649.4646117438999
124,649.4844247671061
125,649.5005496842956
126,649.5128003501089
127,649.5210824720558
128,649.5253863095612
129,649.525777928012
130,649.5223894720958
131,649.5154088810496
132,649.5050694469156
133,649.4916396599796
134,649.4754138652265
135,649.4567042898585
136,649.4358349353287
137,649.413137647155
138,649.3889504081476
139,649.3636175985237
140,649.3374916943283
141,649.3109356856158
142,649.28432541984
143,649.25805112561
144,649.2325175226968
145,649.208142126997
146,649.1853515778757
147,649.1645760124695
148,649.1462416383195
149,649.1307617183052
150,649.1185262684696
151,649.1098909431673
152,649.105165777591
153,649.1046045414636
154,649.1083953761437
155,649.1166532175548
156,649.1294143680138
157,649.1466335076906
158,649.1681833623206
159,649.1938571110153
160,649.2233734691133
161,649.2563842720509
162,649.2924842867372
163,649.3312228353991
164,649.3721166527025
165,649.4146632579806
166,649.4583540389851
167,649.5026862662043
168,649.5471734449729
169,649.5913537032312
170,649.6347961453157
171,649.6771052194173
172,649.717923249797
173,649.7569314486433
174,649.7938498828723
175,649.8284369437271
176,649.8604888561788
177,649.8898397066871
178,649.9163623404673
179,649.9399702463195
180,649.9606202601898
181,649.978315692208
182,649.9931093673471
183,650.0051060483368
184,650.0144637864813
185,650.021393945594
186,650.0261599241475
187,650.0290748611567
188,650.0304987750868
189,650.0308356198551
190,650.0305306426134
191,650.0300682197728
192,650.0299700842329
193,650.0307936040873
194,650.0331295899351
195,650.0375990115826
196,650.0448479751319
197,650.0555403473111
198,650.0703475405139
199,650.0899351868476
200,650.1149466973287
201,650.1459840022193
202,650.1835861066781
203,650.2282064663968
204,650.280190521571
205,650.3397548979741
206,650.4069697119832
207,650.4817451690882
208,650.5638233737282
209,650.652776044947
210,650.7480085959894
211,650.8487707009274
212,650.9541730553036
213,651.0632096467818
214,651.1747845564374
215,651.2877420925403
216,651.4008988854947
217,651.5130764743072
218,651.6231329409168
219,651.7299922945759
220,651.8326705202924
221,651.9302974273647
222,652.0221336317323
223,652.1075821834065
224,652.186194556022
225,652.257670990365
226,652.3218555001706
227,652.3787261355372
228,652.4283813271102
229,652.4710233242923
230,652.5069398836168
231,652.5364853994976
232,652.560062581972
233,652.5781056468397
234,652.5910658654827
235,652.5994001925409
236,652.6035634402693
237,652.6040040558339
238,652.6011630851298
239,652.5954755362659
240,652.5873731730105
241,652.5772877457515
242,652.5656537243974
243,652.5529096801079
244,652.5394975837206
245,652.5258594998367
246,652.5124314813942
247,652.4996348519733
248,652.487865366587
249,652.4774808808153
250,652.4687882204423
251,652.4620300757972
252,652.4573729216117
253,652.4548970091007
254,652.454589302122
255,652.45633989673
256,652.4599420601141
257,652.4650956255465
258,652.4714132119293
259,652.4784287249047
260,652.4856078025209
261,652.4923600623705
262,652.4980529841463
263,652.5020270720373
264,652.503611820364
265,652.5021420798072
266,652.4969745878593
267,652.4875045170488
268,652.4731818404017
269,652.4535271594189
270,652.4281464928657
271,652.3967445004266
272,652.3591357561069
273,652.3152539101651
274,652.2651587370159
275,652.2090410792473
276,652.1472256072888
277,652.0801711982621
278,652.0084686227347
279,651.9328351237394
280,651.8541054445398
281,651.7732190071391
282,651.6912032644586
283,651.6091536036827
284,651.5282104070478
285,651.4495339418011
286,651.3742777288495
287,651.3035610162509
288,651.238440998795
289,651.1798854971198
290,651.1287469514274
291,651.0857387450046
292,651.0514149204544
293,651.0261541832122
294,651.0101487378777
295,651.0033981339141
296,651.0057080738761
297,651.0166940974173
298,651.0357900943899
299,651.062261611506
300,651.0952238739965
301,651.1336643230178
302,651.1764692088708
303,651.2224534083786
304,651.270392320207
305,651.3190545760556
306,651.3672343769258
307,651.4137824205222
308,651.4576345401857
309,651.4978372858578
310,651.5335697492451
311,651.5641610154637
312,651.5891027647504
313,651.6080567575686
314,651.6208571578617
315,651.6275078130568
316,651.6281747199604
317,651.6231740379028
318,651.612956192947
319,651.5980867848756
320,651.5792251108534
321,651.5571011786604
322,651.5324921081218
323,651.5061987643229
324,651.4790233177575
325,651.4517482720041
326,651.4251174459763
327,651.3998194522053
328,651.37647426866
329,651.3556234350922
330,651.3377241772727
331,651.3231474449678
332,651.312179553524
333,651.3050269119688
334,651.3018232117486
335,651.3026384187116
336,651.3074889132279
337,651.3163481043962
338,651.3291567904599
339,651.3458325050448
340,651.3662771424607
341,651.3903822976205
342,651.4180319466725
343,651.4491023089408
344,651.4834589671293
345,651.5209515731369
346,651.5614067173735
347,651.6046197723047
348,651.6503466792924
349,651.6982966516986
350,651.7481266303984
351,651.7994381825058
352,651.85177745392
353,651.9046386826371
354,651.9574715518542
355,652.0096923371528
356,652.0606984660685
357,652.1098857928557
358,652.1566675953441
359,652.2004940807924
360,652.2408711499805
361,652.2773773481076
362,652.3096782266264
363,652.3375376037662
364,652.3608253816762
365,652.3795217247805
366,652.3937176277814
367,652.4036121761596
368,652.4095069709136
369,652.4117981543892
370,652.4109663182318
371,652.4075644677725
372,652.4022042525866
373,652.3955408085114
374,652.3882566805797
375,652.3810453309642
376,652.3745946857318
377,652.3695711047208
378,652.3666041319684
379,652.3662723947812
380,652.3690910164056
381,652.3755008761308
382,652.3858600207926
383,652.4004374920487
384,652.4194097119358
385,652.4428593433527
386,652.4707763309325
387,652.503060785358
388,652.5395275147606
389,652.579912199924
390,652.6238793155275
391,652.6710318686808
392,652.7209228981237
393,652.7730685048872
394,652.8269619877799
395,652.8820884515776
396,652.9379390774035
397,652.9940241484728
398,653.0498839821336
399,653.1050971560987
400,653.1592857637817
401,653.2121178025284
402,653.2633071378465
403,653.3126117191106
404,653.3598307395057
405,653.4048012292259
406,653.4473943073264
407,653.4875111779361
408,653.5250789735028
409,653.5600466254763
410,653.5923809953312
411,653.6220635011523
412,653.649087432877
413,653.6734560818903
414,653.695181738139
415,653.7142855359376
416,653.7307980599663
417,653.7447605643403
418,653.7562266178898
419,653.7652639681066
420,653.7719563923663
421,653.7764052339924
422,653.7787301982261
423,653.7790688975797
424,653.7775747132883
425,653.774412819233
426,653.7697545959977
427,653.7637709922118
428,653.7566255899635
429,653.7484682186378
430,653.7394299616718
431,653.7296202698707
432,653.7191265814043
433,653.7080164250877
434,653.6963416175086
435,653.6841439365321
436,653.6714615246705
437,653.6583352413643
438,653.6448143150867
439,653.6309609352888
440,653.6168537029417
441,653.6025899663304
442,653.5882870188135
443,653.5740820410555
444,653.5601306097923
445,653.5466036147548
446,653.5336825413904
447,653.5215532169541
448,653.5103981924765
449,653.5003879822902
450,653.4916715170611
451,653.484366381953
452,653.4785495808387
453,653.4742496047107
454,653.4714405117804
455,653.4700385895853
456,653.4699019755416
457,653.4708333809969
458,653.4725858248546
459,653.4748710591691
460,653.4773701947997
461,653.4797459312773
462,653.4816557316209
463,653.4827652340464
464,653.482761196411
465,653.481363374248
466,653.4783349157321
467,653.4734910329321
468,653.4667058090546
469,653.4579170193522
470,653.4471288283556
471,653.4344122350287
472,653.4199031869089
473,653.4037983663492
474,653.38634877032
475,653.3678513447326
476,653.3486390422828
477,653.3290697402006
478,653.3095145414845
479,653.2903460948276
480,653.2719276035119
481,653.2546030858664
482,653.2386892564787
483,653.2244692034606
484,653.212187859797
485,653.2020490954113
486,653.1942141296568
487,653.1888009368297
488,653.1858843672719
489,653.1854967514905
490,653.18762876474
491,653.1922303445617
492,653.1992115045892
493,653.2084429634987
494,653.21975658155
495,653.2329456616537
496,653.2477652605722
497,653.2639327914783
498,653.2811293167322
499,653.2990019322424
500,653.3171675339752
501,653.335218116477
502,653.3527276332554
503,653.3692603576814
504,653.384380624523
505,653.3976637780105
506,653.4087080352521
507,653.4171467653097
508,653.4226604650363
509,653.4249876253272
510,653.4239337763013
511,653.4193781655575
512,653.4112776237937
513,653.3996672106853
514,653.3846573454648
515,653.3664274436326
516,653.3452165888333
517,653.3213122450093
518,653.2950381850118
519,653.2667426132979
520,653.2367870737704
521,653.2055363762947
522,653.1733495386792
523,653.1405716069016
524,653.1075261371227
525,653.0745080785955
526,653.0417768069858
527,653.0095491594014
528,652.9779925401352
529,652.9472184708741
530,652.9172772511487
531,652.8881545761252
532,652.859770995432
533,652.8319849647952
534,652.8045999026579
535,652.7773751521296
536,652.7500401996085
537,652.7223110530877
538,652.6939074201085
539,652.6645692806255
540,652.6340715910243
541,652.6022361037886
542,652.5689395808527
543,652.534117987508
544,652.497766546545
545,652.4599357680524
546,652.4207237466928
547,652.3802652228377
548,652.3387182410437
549,652.2962496485047
550,652.2530209196497
551,652.2091757145488
552,652.1648302817779
553,652.120067504357
554,652.07493511548
555,652.0294482954738
556,651.9835964724728
557,651.9373537527632
558,651.8906920357724
559,651.843595499848
560,651.796074834398
561,651.7481795262764
562,651.7000068374673
563,651.651706786382
564,651.6034832336462
565,651.5555918041711
566,651.5083356525236
567,651.46205996254
568,651.417145716225
569,651.3740028827135
570,651.3330629001917
571,651.2947702014243
572,651.259572556837
573,651.2279101168124
574,651.2002031636043
575,651.1768387309402
576,651.1581564656947
577,651.1444343962492
578,651.1358755182576
579,651.1325961511003
580,651.1346168453172
581,651.1418563912624
582,651.1541293095272
583,651.1711470482478
584,651.1925229096545
585,651.217780525157
586,651.2463655459867
587,651.2776600822128
588,651.3109992711578
589,651.3456892110513
590,651.3810254097795
591,651.4163109194454
592,651.4508734626718
593,651.4840810415229
594,651.5153556615409
595,651.5441848746026
596,651.5701309085204
597,651.592837266535
598,651.6120328042184
599,651.6275333427272
600,651.6392408690439
601,651.6471404084142
602,651.6512947806182
603,651.6518375992799
604,651.6489649470561
605,651.6429261556345
606,651.6340141128563
607,651.6225555426071
608,651.6089016812034
609,651.5934196315301
610,651.5764844919172
611,651.5584722971178
612,651.5397538861183
613,651.5206898471705
614,651.5016265611158
615,651.4828931528581
616,651.4647990200574
617,651.4476315860559
618,651.4316539777878
619,651.4171024243577
620,651.4041833028936
621,651.3930699198078
622,651.3838992988702
623,651.3767694190096
624,651.3717374141867
625,651.3688191509798
626,651.3679904208186
627,651.3691898662514
628,651.3723237060799
629,651.3772722237084
630,651.383897811417
631,651.3920541995273
632,651.4015963881521
633,651.4123907126177
634,651.4243243893625
635,651.4373138200667
636,651.4513109042873
637,651.4663066610119
638,651.482331615934
639,651.4994526724252
640,651.5177665323037
641,651.5373901273185
642,651.5584488706482
643,651.5810637314677
644,651.6053381371961
645,651.6313455823056
646,651.6591186843808
647,651.6886403323066
648,651.719837456124
649,651.7525777523788
650,651.7866695085085
651,651.8218646172047
652,651.8578649111477
653,651.8943318799229
654,651.9308995416834
655,651.9671898221421
656,652.0028294286416
657,652.0374670231971
658,652.0707894954817
659,652.1025362390749
660,652.1325104846765
661,652.1605869376122
662,652.1867152268043
663,652.2109190291237
664,652.233291195719
665,652.2539856990853
666,652.2732075685943
667,652.2912020329661
668,652.3082438266675
669,652.3246271613411
670,652.3406563784258
671,652.3566369424569
672,652.3728663123245
673,652.3896243479602
674,652.4071631699977
675,652.4256966299786
676,652.4453896668005
677,652.4663478460328
678,652.4886073741941
679,652.5121258749462
680,652.536774224426
681,652.56232981911
682,652.588471804499
683,652.6147789569576
684,652.6407310140387
685,652.6657142700902
686,652.6890321587301
687,652.7099212689207
688,652.7275727913163
689,652.7411588668014
690,652.7498628215642
691,652.7529118969594
692,652.7496108662181
693,652.7393748618557
694,652.7217597166006
695,652.6964880678379
696,652.6634694661604
697,652.6228129314189
698,652.5748308912641
699,652.5200341210267
700,652.4591179959007
701,652.3929409293266
702,652.3224962697257
703,652.2488791774251
704,652.1732501087574
705,652.0967965046611
706,652.0206941837685
707,651.9460698774004
708,651.8739663568058
709,651.8053116075671
710,651.7408933716531
711,651.6813400684574
712,651.6271086931615
713,651.5784798474134
714,651.5355596195869
715,651.498287630739
716,651.4664502303092
717,651.4396975931184
718,651.417563382214
719,651.3994857366368
720,651.384828583941
721,651.3729025706641
722,651.3629851705946
723,651.354339719718
724,651.3462331987271
725,651.3379525471928
726,651.3288192210995
727,651.3182016591821
728,651.3055252972398
729,651.2902797642107
730,651.2720229923083
731,651.2503822609059
732,651.2250526422533
733,651.195793786495
734,651.1624262753584
735,651.1248287127786
736,651.0829362920311
737,651.0367409777933
738,650.9862929166396
739,650.9317023522564
740,650.8731411538132
741,650.8108430689525
742,650.745102033268
743,650.6762682635659
744,650.6047422673604
745,650.5309671788932
746,650.4554199754859
747,650.3786021860891
748,650.3010306990337
749,650.2232292195386
750,650.1457208241244
751,650.0690218908125
752,649.9936374723231
753,649.9200580161151
754,649.8487572556093
755,649.7801910105982
756,649.7147964850393
757,649.6529915350837
758,649.5951734039128
759,649.5417165472107
760,649.4929693303864
761,649.4492495705817
762,649.4108391156849
763,649.3779777982146
764,649.3508571049731
765,649.3296138433611
766,649.3143240758959
767,649.3049976322322
768,649.3015735335698
769,649.3039166846627
770,649.3118162312519
771,649.3249859924061
772,649.3430672600203
773,649.3656339864729
774,649.3922000508312
775,649.4222280721725
776,649.4551392734743
777,649.4903241944937
778,649.5271543939533
779,649.5649953729754
780,649.6032206891709
781,649.6412267996145
782,649.6784478347384
783,649.7143693895766
784,649.7485405236702
785,649.7805834347672
786,649.8102006013643
787,649.8371794345842
788,649.8613945819262
789,649.8828080284115
790,649.9014671140333
791,649.9175005767734
792,649.9311127588463
793,649.9425761774569
794,649.9522227493
795,649.9604340634401
796,649.9676311953459
797,649.9742645839852
798,649.9808043890533
799,649.987731511274
800,649.9955292118677
801,650.0046751791448
802,650.0156340338234
803,650.0288505010361
804,650.0447435604532
805,650.0637017222803
806,650.0860793060336
807,650.1121934107003
808,650.1423212286584
809,650.1766974249307
810,650.2155113900103
811,650.2589042334328
812,650.3069654643903
813,650.359729470299
814,650.4171721201368
815,650.479207971976
816,650.5456885738828
817,650.6164022304303
818,650.6910754534719
819,650.7693762276891
820,650.8509192344936
821,650.9352732086693
822,651.0219704999589
823,651.1105186103506
824,651.200413088855
825,651.2911508806707
826,651.3822431446197
827,651.4732266505606
828,651.5636730989748
829,651.6531960103285
830,651.7414551055464
831,651.8281582184176
832,651.9130607083362
833,651.9959622012044
834,652.0767005102254
835,652.1551429156177
836,652.2311754917329
837,652.3046915819797
838,652.3755806797137
839,652.4437189356698
840,652.5089623598636
841,652.5711434840173
842,652.6300717795418
843,652.6855376106814
844,652.7373191144942
845,652.7851912032676
846,652.8289358321756
847,652.868352694822
848,652.9032695751044
849,652.9335517247156
850,652.9591098984451
851,652.9799070511996
852,652.9959640481627
853,653.0073648508402
854,653.0142613881396
855,653.0168778106457
856,653.0155133474203
857,653.0105427809564
858,653.0024136898833
859,652.9916400068993
860,652.978791961376
861,652.9644829674598
862,652.9493543701849
863,652.9340591246417
864,652.919245443585
865,652.9055412460643
866,652.8935399682725
867,652.883788037428
868,652.876774085181
869,652.8729198188346
870,652.8725724440176
871,652.8759986613591
872,652.8833804419115
873,652.8948128836732
874,652.910304417373
875,652.9297794911371
876,652.9530836455151
877,652.979990648857
878,653.0102112273063
879,653.0434029872812
880,653.0791813212545
881,653.1171312301715
882,653.1568199750104
883,653.1978103145027
884,653.2396738720493
885,653.2820039380504
886,653.3244268041625
887,653.3666106703272
888,653.4082713678861
889,653.4491745396908
890,653.4891343242937
891,653.5280088960225
892,653.5656934696779
893,653.6021116623843
894,653.6372063597278
895,653.6709313303209
896,653.7032447192058
897,653.7341052758226
898,653.7634718280289
899,653.7913061737785
900,653.8175792275936
901,653.8422798727432
902,653.865425534988
903,653.8870731277267
904,653.9073288435131
905,653.9263553003565
906,653.9443747521665
907,653.961667430772
908,653.9785645911874
909,653.9954364115799
910,654.0126754701319
911,654.0306770319044
912,654.0498177638989
913,654.07043464963
914,654.0928057380374
915,654.1171340099601
916,654.143535236162
917,654.1720303516634
