frame_number,force
0,651.7486854159993
1,651.7780242110416
2,651.8076057690956
3,651.8372828940574
4,651.8669078745804
5,651.8963332115071
6,651.9254123185414
7,651.9540001883287
8,651.981954016198
9,652.0091337753322
10,652.035402740443
11,652.0606279613603
12,652.084680691495
13,652.1074367772982
14,652.1287770137521
15,652.1485874692477
16,652.1667597824505
17,652.1831914340908
18,652.1977859973275
19,652.2104533711695
20,652.2211100023221
21,652.2296791010465
22,652.2360908554708
23,652.2402826468054
24,652.2421992663698
25,652.2417931350413
26,652.2390245262918
27,652.2338617941413
28,652.226281606014
29,652.2162691775451
30,652.2038185031375
31,652.1889325744302
32,652.1716235797139
33,652.1519130795887
34,652.129832155653
35,652.1054215287163
36,652.078731641191
37,652.04982269555
38,652.0187646376963
39,651.9856370719272
40,651.9505290936916
41,651.9135390272846
42,651.8747740570357
43,651.8343497418491
44,651.792389404734
45,651.7490233924955
46,651.7043882060573
47,651.6586255067405
48,651.6118810060703
49,651.5643032469764
50,651.5160422858598
51,651.4672482907607
52,651.4180700802361
53,651.3686536366641
54,651.3191406323571
55,651.2696670060858
56,651.2203616231675
57,651.1713450460012
58,651.1227284347974
59,651.0746125916099
60,651.0270871568093
61,650.9802299669961
62,650.9341065856124
63,650.8887700188747
64,650.8442606271681
65,650.8006062351066
66,650.7578224346544
67,650.7159130690691
68,650.6748708828038
69,650.6346783225073
70,650.5953084749742
71,650.5567261286756
72,650.5188889456927
73,650.4817487292066
74,650.4452527678209
75,650.4093452336552
76,650.3739686087225
77,650.3390651147073
78,650.304578124497
79,650.2704535379808
80,650.2366411069758
81,650.2030956923219
82,650.169778430595
83,650.1366577819201
84,650.1037104277094
85,650.0709219890634
86,650.0382875420961
87,650.0058119139119
88,649.9735097504138
89,649.9414053530041
90,649.9095322861506
91,649.8779327636797
92,649.846656829013
93,649.8157613521109
94,649.7853088724949
95,649.7553663225449
96,649.7260036672996
97,649.6972924959229
98,649.6693045969843
99,649.6421105462402
100,649.6157783326152
101,649.5903720457013
102,649.565950646411
103,649.5425668421045
104,649.5202660890277
105,649.4990857468682
106,649.479054410151
107,649.4601914375728
108,649.4425066937378
109,649.4260005094156
110,649.4106638572883
111,649.3964787309577
112,649.3834187072669
113,649.3714496667077
114,649.360530642993
115,649.3506147698247
116,649.3416502914472
117,649.3335816055312
118,649.3263503124477
119,649.3198962518185
120,649.3141585123636
121,649.3090764031468
122,649.3045903740284
123,649.3006428720919
124,649.2971791206946
125,649.2941478097852
126,649.2915016898387
127,649.2891980655702
128,649.2871991884397
129,649.2854725489374
130,649.2839910709117
131,649.2827332110182
132,649.2816829676001
133,649.280829805753
134,649.2801685084313
135,649.2796989657177
136,649.2794259146816
137,649.279358640368
138,649.2795106448522
139,649.2798992869315
140,649.2805453910677
141,649.2814728216063
142,649.2827080176456
143,649.2842794854234
144,649.2862172482638
145,649.2885522580813
146,649.29131577649
147,649.294538737031
148,649.2982511020027
149,649.3024812279889
150,649.3072552550469
151,649.3125965368458
152,649.3185251316116
153,649.3250573741115
154,649.3322055461056
155,649.3399776581705
156,649.3483773517594
157,649.3574039275212
158,649.3670525029958
159,649.3773142988227
160,649.3881770483508
161,649.399625522078
162,649.411642155154
163,649.4242077623063
164,649.4373023203898
165,649.450905795211
166,649.4649989868848
167,649.4795643677622
168,649.4945868900031
169,649.5100547449847
170,649.5259600609961
171,649.5422995279883
172,649.5590749404282
173,649.5762936528844
174,649.5939689466886
175,649.6121203082813
176,649.6307736207384
177,649.6499612701393
178,649.6697221674516
179,649.6901016837863
180,649.7111514931538
181,649.7329293143106
182,649.7554985428652
183,649.7789277661259
184,649.8032901563097
185,649.8286627431031
186,649.8551255733657
187,649.8827607721322
188,649.9116515235403
189,649.9418809922752
190,649.9735312054552
191,650.0066819120333
192,650.0414094327314
193,650.0777855094594
194,650.1158761601737
195,650.1557405434987
196,650.1974298368067
197,650.2409861317792
198,650.2864413532444
199,650.3338162102358
200,650.3831191921171
201,650.4343456268845
202,650.4874768235206
203,650.5424793254501
204,650.5993043064709
205,650.6578871417125
206,650.7181471827602
207,650.7799877593642
208,650.843296422952
209,650.9079454408561
210,650.9737925436797
211,651.0406819199911
212,651.1084454429432
213,651.1769041044425
214,651.2458696254978
215,651.3151462060198
216,651.3845323730922
217,651.453822884137
218,651.5228106413932
219,651.5912885766289
220,651.6590514690332
221,651.7258976637349
222,651.7916306627297
223,651.8560605642201
224,651.9190053313572
225,651.9802918778408
226,652.0397569652548
227,652.0972479140321
228,652.1526231359788
229,652.2057525016918
230,652.2565175607731
231,652.3048116353368
232,652.3505398075702
233,652.393618821357
234,652.4339769175051
235,652.4715536213217
236,652.5062994981135
237,652.5381758858294
238,652.5671546064126
239,652.5932176514609
240,652.6163568350886
241,652.6365734069157
242,652.653877619402
243,652.6682882452855
244,652.6798320429219
245,652.688543170826
246,652.6944625581302
247,652.6976372439577
248,652.6981197033576
249,652.6959671789067
250,652.6912410369905
251,652.684006168864
252,652.674330458419
253,652.6622843379424
254,652.6479404483988
255,652.6313734131118
256,652.6126597247857
257,652.591877737014
258,652.5691077451518
259,652.5444321400229
260,652.5179356207026
261,652.4897054553376
262,652.4598317778788
263,652.4284079046554
264,652.3955306522636
265,652.3613006396346
266,652.325822560483
267,652.2892054145052
268,652.251562685439
269,652.2130124522087
270,652.1736774178356
271,652.1336848416989
272,652.0931663648458
273,652.052257723832
274,652.0110983532362
275,651.9698308790241
276,651.9286005050702
277,651.887554294795
278,651.8468403494803
279,651.8066068845228
280,651.7670012058575
281,651.7281685927762
282,651.690251100395
283,651.6533863024275
284,651.6177059997387
285,651.5833349216609
286,651.5503894466422
287,651.5189763680588
288,651.4891917306845
289,651.4611197637261
290,651.4348319377463
291,651.4103861742825
292,651.3878262361374
293,651.3671813212883
294,651.3484658748245
295,651.3316796242851
296,651.3168078373546
297,651.3038217978052
298,651.2926794940137
299,651.2833265123496
300,651.2756971248158
301,651.2697155561356
302,651.2652974089156
303,651.262351217134
304,651.2607800911609
305,651.2604834144504
306,651.2613585527519
307,651.2633025393152
308,651.2662137024786
309,651.2699932044588
310,651.2745464622088
311,651.2797844237072
312,651.285624676961
313,651.2919923744288
314,651.2988209614243
315,651.3060527020299
316,651.3136390001573
317,651.3215405179942
318,651.3297270996412
319,651.3381775130443
320,651.3468790273647
321,651.3558268460791
322,651.3650234185194
323,651.3744776533217
324,651.384204056108
325,651.394221812247
326,651.4045538357052
327,651.4152258069158
328,651.4262652242819
329,651.4377004931077
330,651.449560071694
331,651.4618716883674
332,651.4746616374146
333,651.4879541575102
334,651.5017708934604
335,651.5161304405548
336,651.5310479697553
337,651.5465349303487
338,651.562598824328
339,651.579243044703
340,651.5964667694001
341,651.6142649034596
342,651.632628064161
343,651.6515426060639
344,651.6709906857404
345,651.6909503690657
346,651.7113957870858
347,651.7322973493976
348,651.753622025611
349,651.7753337043722
350,651.7973936358677
351,651.8197609601679
352,651.8423933215824
353,651.8652475667566
354,651.8882805196891
355,651.911449820719
356,651.9347148103805
357,651.9580374334744
358,651.9813831337062
359,652.0047217058542
360,652.0280280725971
361,652.0512829574877
362,652.0744734322193
363,652.0975933225423
364,652.120643461793
365,652.1436317852488
366,652.1665732642708
367,652.1894896859061
368,652.212409288382
369,652.235366263895
370,652.2584001387664
371,652.281555040531
372,652.3048788635234
373,652.3284223482436
374,652.352238093115
375,652.3763795187572
376,652.4008998046302
377,652.4258508170842
378,652.4512820476018
379,652.4772395802516
380,652.5037651071381
381,652.530895009675
382,652.5586595223855
383,652.5870819944411
384,652.6161782609869
385,652.6459561310639
386,652.6764149938595
387,652.7075455429576
388,652.7393296195181
389,652.7717401774886
390,652.8047413745022
391,652.8382887901384
392,652.8723297694936
393,652.9068038855032
394,652.9416435085682
395,652.9767744670908
396,653.0121167781872
397,653.0475854251428
398,653.0830911584504
399,653.1185413009966
400,653.1538405438572
401,653.1888917256069
402,653.2235965940824
403,653.2578565537334
404,653.2915734020461
405,653.3246500549116
406,653.3569912562045
407,653.3885042646291
408,653.419099511664
409,653.4486912264247
410,653.4771980248476
411,653.5045434613211
412,653.5306565408391
413,653.5554721892694
414,653.5789316787826
415,653.6009830049644
416,653.6215812116603
417,653.6406886593342
418,653.6582752327852
419,653.6743184844698
420,653.6888037099858
421,653.7017239516804
422,653.7130799247583
423,653.7228798593097
424,653.7311392536807
425,653.7378805402931
426,653.7431326725224
427,653.7469306477182
428,653.7493149854654
429,653.7503311820577
430,653.7500291623412
431,653.7484627477882
432,653.745689153921
433,653.7417685223678
434,653.736763485997
435,653.7307387612371
436,653.7237607591202
437,653.7158972057205
438,653.7072167648193
439,653.6977886606472
440,653.687682303346
441,653.6769669213888
442,653.665711203842
443,653.6539829531491
444,653.6418487475106
445,653.6293736117789
446,653.6166206973996
447,653.6036509739616
448,653.5905229357401
449,653.5772923269576
450,653.5640118913965
451,653.5507311554186
452,653.5374962560281
453,653.5243498257753
454,653.5113309444977
455,653.4984751649104
456,653.4858146150704
457,653.4733781761275
458,653.4611917290863
459,653.4492784599793
460,653.4376592095272
461,653.4263528514247
462,653.4153766823014
463,653.4047468056823
464,653.3944784926189
465,653.3845865039674
466,653.3750853631179
467,653.3659895717631
468,653.3573137637536
469,653.3490727930783
470,653.3412817524339
471,653.3339559197461
472,653.3271106316641
473,653.3207610853061
474,653.3149220724421
475,653.3096076535637
476,653.3048307819163
477,653.3006028893802
478,653.2969334481888
479,653.2938295249255
480,653.2912953441943
481,653.2893318775583
482,653.2879364698571
483,653.2871025114027
484,653.2868191611518
485,653.2870711225428
486,653.2878384710114
487,653.2890965312654
488,653.2908158028181
489,653.2929619325264
490,653.2954957324281
491,653.2983732407656
492,653.3015458243073
493,653.3049603207385
494,653.3085592205207
495,653.3122808880809
496,653.316059823136
497,653.3198269648035
498,653.3235100427154
499,653.3270339788616
500,653.3303213413695
501,653.3332928484505
502,653.3358679182305
503,653.3379652583119
504,653.3395034877352
505,653.3404017830242
506,653.3405805379458
507,653.3399620229771
508,653.3384710267204
509,653.3360354602853
510,653.3325869078676
511,653.3280611103401
512,653.3223983710928
513,653.3155438746765
514,653.3074479114819
515,653.2980660081694
516,653.2873589735419
517,653.2752928789276
518,653.2618389958218
519,653.2469737103344
520,653.2306784272386
521,653.2129394701216
522,653.1937479799911
523,653.1730998123519
524,653.1509954313426
525,653.1274397986579
526,653.1024422550337
527,653.076016393739
528,653.0481799292451
529,653.0189545695218
530,652.9883659053958
531,652.9564433333089
532,652.9232200280186
533,652.8887329788566
534,652.8530230964103
535,652.8161353865663
536,652.7781191782844
537,652.739028382798
538,652.6989217567498
539,652.657863140682
540,652.6159216467142
541,652.5731717737164
542,652.5296934336749
543,652.485571878702
544,652.4408975236718
545,652.3957656640215
546,652.3502760917835
547,652.3045326170248
548,652.2586425084911
549,652.2127158752514
550,652.166865016126
551,652.1212037627485
552,652.0758468371762
553,652.0309092397725
554,651.9865056786533
555,651.9427500467714
556,651.8997549461368
557,651.8576312519584
558,651.816487703245
559,651.7764305001822
560,651.7375628834391
561,651.6999846698516
562,651.6637917255201
563,651.6290753702937
564,651.5959217225817
565,651.5644110054213
566,651.5346168400514
567,651.5066055512494
568,651.4804355021545
569,651.456156469126
570,651.4338090618672
571,651.4134241914683
572,651.3950225890123
573,651.3786143788114
574,651.3641987120168
575,651.3517634682629
576,651.3412850360681
577,651.3327281870411
578,651.3260460623674
579,651.3211802896369
580,651.3180612436203
581,651.3166084590639
582,651.3167311991374
583,651.3183291790041
584,651.3212934389871
585,651.3255073568567
586,651.3308477848404
587,651.337186293474
588,651.3443905007267
589,651.3523254614176
590,651.3608550897725
591,651.3698435879494
592,651.3791568556355
593,651.388663859185
594,651.3982379415254
595,651.4077580556901
596,651.4171099065123
597,651.4261869877937
598,651.4348915053603
599,651.443135178298
600,651.4508399115538
601,651.457938334864
602,651.464374206522
603,651.4701026844823
604,651.4750904699528
605,651.479315829848
606,651.4827685056366
607,651.4854495177939
608,651.48737087586
609,651.4885552025962
610,651.4890352783655
611,651.4888535117097
612,651.4880613443604
613,651.4867186003072
614,651.4848927867624
615,651.482658351442
616,651.4800958983412
617,651.4772913640181
618,651.4743351575082
619,651.4713212687624
620,651.4683463528161
621,651.4655087996882
622,651.4629078031072
623,651.4606424439652
624,651.4588108052493
625,651.4575091329187
626,651.4568310533559
627,651.456866855274
628,651.457702842361
629,651.459420760474
630,651.4620972994186
631,651.4658036657161
632,651.4706052201208
633,651.4765611714782
634,651.4837243164185
635,651.4921408125907
636,651.5018499721584
637,651.5128840627531
638,651.5252681055589
639,651.539019664645
640,651.5541486277416
641,651.5706569856245
642,651.5885386234127
643,651.6077791403854
644,651.6283557147016
645,651.6502370268475
646,651.673383252881
647,651.6977461365792
648,651.7232691473162
649,651.7498877267429
650,651.7775296237381
651,651.8061153160597
652,651.8355585178396
653,651.8657667708142
654,651.896642111906
655,651.9280818021149
656,651.9599790950933
657,651.9922240205734
658,652.0247041579935
659,652.0573053778286
660,652.089912531197
661,652.1224100721976
662,652.1546826025442
663,652.1866153349589
664,652.2180944806214
665,652.2490075753208
666,652.2792437656173
667,652.3086940774193
668,652.3372516846479
669,652.364812187262
670,652.391273898915
671,652.4165381377946
672,652.4405095117462
673,652.4630961907185
674,652.4842101640395
675,652.5037674840554
676,652.5216884993922
677,652.5378980809905
678,652.5523258434611
679,652.564906363689
680,652.5755793982945
681,652.584290102487
682,652.5909892552919
683,652.5956334988122
684,652.5981856008418
685,652.5986147504084
686,652.5968968940605
687,652.5930151157816
688,652.5869600553987
689,652.5787303511268
690,652.5683330835179
691,652.5557841919419
692,652.5411088316948
693,652.5243416396834
694,652.5055268774852
695,652.484718420951
696,652.4619795667612
697,652.437382631556
698,652.4110083298123
699,652.3829449307108
700,652.3532872083928
701,652.3221352116618
702,652.2895928876512
703,652.2557665995153
704,652.2207635808576
705,652.1846903695351
706,652.1476512618922
707,652.1097468272711
708,652.071072522554
709,652.0317174459711
710,651.9917632660616
711,651.9512833548396
712,651.9103421452428
713,651.8689947232052
714,651.8272866548937
715,651.7852540403969
716,651.7429237770875
717,651.7003140095991
718,651.657434739762
719,651.6142885696312
720,651.5708715532986
721,651.5271741368258
722,651.4831821689165
723,651.4388779669765
724,651.394241423259
725,651.34925113406
726,651.303885532762
727,651.2581240060882
728,651.2119479721083
729,651.1653418983595
730,651.1182942404303
731,651.0707982870729
732,651.0228529068364
733,650.974463200735
734,650.9256410719146
735,650.8764057233773
736,650.8267840882875
737,650.776811187785
738,650.7265304031567
739,650.6759936446858
740,650.625261398155
741,650.5744026318156
742,650.5234945524926
743,650.4726222085552
744,650.4218779466729
745,650.3713607360347
746,650.3211753778811
747,650.2714316206718
748,650.2222432023786
749,650.1737268414453
750,650.1260011969678
751,650.0791858162781
752,650.0334000847432
753,649.9887621899126
754,649.9453881108186
755,649.9033906415654
756,649.8628784553017
757,649.8239552120738
758,649.786718713824
759,649.7512601113109
760,649.7176631696124
761,649.6860036012494
762,649.6563484786993
763,649.6287557393226
764,649.603273794237
765,649.5799412499409
766,649.5587867496289
767,649.5398289401168
768,649.523076569039
769,649.5085287156347
770,649.4961751575546
771,649.4859968747221
772,649.4779666876021
773,649.472050020814
774,649.468205775653
775,649.4663872898842
776,649.4665433628927
777,649.4686193289996
778,649.47255816755
779,649.478301639774
780,649.4857914374898
781,649.4949703209019
782,649.5057832169075
783,649.518178247782
784,649.5321076628583
785,649.547528651876
786,649.5644040259557
787,649.5827027580343
788,649.6024003779637
789,649.6234792191275
790,649.6459285146223
791,649.669744342614
792,649.6949294227796
793,649.7214927686991
794,649.7494492044362
795,649.7788187571986
796,649.8096259413961
797,649.8418989514774
798,649.8756687803738
799,649.910968277306
800,649.9478311552303
801,649.9862909574824
802,650.0263799965575
803,650.0681282828626
804,650.1115624631498
805,650.1567047854419
806,650.2035721021904
807,650.2521749196529
808,650.3025165003572
809,650.354592026158
810,650.4083878301926
811,650.4638807061709
812,650.5210373037974
813,650.5798136209479
814,650.6401546058904
815,650.70199388425
816,650.7652536241324
817,650.8298445491475
818,650.8956661047034
819,650.962606779782
820,651.0305445851429
821,651.0993476880005
822,651.1688751999255
823,651.2389781078205
824,651.3095003293937
825,651.3802798681595
826,651.451150040444
827,651.5219407477952
828,651.592479771702
829,651.6625940725498
830,651.7321110793217
831,651.8008599584173
832,651.8686728484242
833,651.9353860450061
834,652.0008411205708
835,652.064885969621
836,652.1273757804012
837,652.1881739414882
838,652.2471528954047
839,652.3041949512681
840,652.3591930663813
841,652.4120516018979
842,652.4626870498786
843,652.5110287204967
844,652.5570193720166
845,652.6006157636468
846,652.6417891115505
847,652.680525429869
848,652.7168257410759
849,652.7507061438524
850,652.7821977328283
851,652.8113463726916
852,652.838212336877
853,652.8628698243584
854,652.8854063645972
855,652.9059221124134
856,652.9245290267795
857,652.9413499247598
858,652.956517405177
859,652.9701726447
860,652.9824640793138
861,652.9935459936828
862,653.003577047734
863,653.01271877293
864,653.0211340699469
865,653.0289857355187
866,653.0364350408257
867,653.04364037845
868,653.0507559900798
869,653.0579307833734
870,653.0653072449643
871,653.0730204578706
872,653.0811972337572
873,653.0899553710303
874,653.0994030477997
875,653.1096383548298
876,653.1207489682224
877,653.1328119557686
878,653.1458937071105
879,653.1600499777926
880,653.1753260397008
881,653.1917569319731
882,653.2093678051475
883,653.2281743476398
884,653.2481832790243
885,653.2693928896996
886,653.2917936022807
887,653.3153685288158
888,653.3400940016053
889,653.3659400628256
890,653.3928709058885
891,653.4208452674374
892,653.4498167740995
893,653.4797342539173
894,653.5105420277454
895,653.542180198425
896,653.5745849542327
897,653.607688898867
898,653.6414214147346
899,653.6757090609059
900,653.7104760018012
901,653.7456444564041
902,653.7811351505876
903,653.8168677491701
904,653.8527612418153
905,653.8887342581703
906,653.9247052919237
907,653.9605928205613
908,653.9963153172865
909,654.031791162544
910,654.0669384732619
911,654.10167487738
912,654.1359172682229
913,654.1695815758602
914,654.2025825897035
915,654.2348338596078
916,654.2662476945977
917,654.2967352712119
918,654.3262068577772
