frame_number,force
0,651.7486854206835
1,651.7780242157663
2,651.8076057738494
3,651.8372828988281
4,651.8669078793558
5,651.8963332162745
6,651.9254123232881
7,651.9540001930432
8,651.9819540208691
9,652.0091337799499
10,652.0354027449985
11,652.0606279658457
12,652.0846806959038
13,652.1074367816249
14,652.1287770179924
15,652.1485874733979
16,652.1667597865071
17,652.1831914380504
18,652.1977860011868
19,652.2104533749255
20,652.221110005972
21,652.2296791045884
22,652.2360908589036
23,652.2402826501291
24,652.2421992695854
25,652.2417931381511
26,652.2390245292986
27,652.2338617970479
28,652.226281608823
29,652.2162691802586
30,652.203818505758
31,652.1889325769604
32,652.1716235821573
33,652.1519130819487
34,652.1298321579337
35,652.1054215309224
36,652.0787316433275
37,652.0498226976216
38,652.0187646397079
39,651.9856370738836
40,651.9505290955975
41,651.9135390291445
42,651.8747740588539
43,651.8343497436296
44,651.7923894064807
45,651.7490233942124
46,651.704388207749
47,651.658625508412
48,651.6118810077264
49,651.5643032486214
50,651.5160422874978
51,651.4672482923952
52,651.41807008187
53,651.3686536382996
54,651.3191406339957
55,651.2696670077289
56,651.2203616248162
57,651.1713450476568
58,651.1227284364612
59,651.0746125932839
60,651.0270871584959
61,650.9802299686984
62,650.934106587334
63,650.8887700206196
64,650.8442606289403
65,650.8006062369099
66,650.7578224364925
67,650.715913070945
68,650.6748708847199
69,650.6346783244644
70,650.595308476972
71,650.5567261307127
72,650.5188889477674
73,650.4817487313172
74,650.4452527699652
75,650.4093452358311
76,650.3739686109274
77,650.3390651169385
78,650.3045781267518
79,650.2704535402563
80,650.2366411092689
81,650.2030956946301
82,650.1697784329164
83,650.1366577842537
84,650.1037104300551
85,650.0709219914221
86,650.038287544469
87,650.0058119163001
88,649.9735097528182
89,649.9414053554252
90,649.9095322885879
91,649.8779327661324
92,649.8466568314794
93,649.8157613545884
94,649.7853088749796
95,649.7553663250326
96,649.726003669785
97,649.6972924984004
98,649.669304599448
99,649.642110548684
100,649.6157783350335
101,649.5903720480898
102,649.5659506487655
103,649.542566844422
104,649.5202660913066
105,649.4990857491081
106,649.4790544123528
107,649.4601914397384
108,649.4425066958698
109,649.4260005115171
110,649.4106638593626
111,649.3964787330082
112,649.383418709297
113,649.3714496687209
114,649.3605306449929
115,649.3506147718153
116,649.341650293433
117,649.3335816075164
118,649.326350314437
119,649.3198962538169
120,649.3141585143766
121,649.3090764051797
122,649.3045903760856
123,649.3006428741768
124,649.2971791228098
125,649.2941478119324
126,649.2915016920192
127,649.2891980677848
128,649.2871991906889
129,649.2854725512211
130,649.2839910732299
131,649.2827332133704
132,649.2816829699854
133,649.28082980817
134,649.2801685108781
135,649.2796989681921
136,649.2794259171811
137,649.2793586428896
138,649.2795106473926
139,649.2798992894866
140,649.2805453936321
141,649.2814728241741
142,649.2827080202102
143,649.2842794879771
144,649.2862172507984
145,649.2885522605884
146,649.2913157789615
147,649.2945387394586
148,649.2982511043791
149,649.3024812303075
150,649.3072552573029
151,649.3125965390359
152,649.3185251337342
153,649.325057376166
154,649.3322055480927
155,649.3399776600917
156,649.3483773536167
157,649.3574039293171
158,649.3670525047337
159,649.3773143005069
160,649.388177049986
161,649.399625523669
162,649.4116421567057
163,649.4242077638235
164,649.4373023218764
165,649.4509057966706
166,649.46499898832
167,649.4795643691754
168,649.494586891396
169,649.5100547463587
170,649.5259600623522
171,649.5422995293272
172,649.5590749417502
173,649.5762936541896
174,649.5939689479775
175,649.612120309554
176,649.6307736219956
177,649.6499612713818
178,649.6697221686809
179,649.6901016850048
180,649.7111514943645
181,649.7329293155169
182,649.7554985440711
183,649.7789277673356
184,649.8032901575278
185,649.828662744335
186,649.8551255746178
187,649.8827607734114
188,649.9116515248537
189,649.9418809936299
190,649.9735312068577
191,650.0066819134898
192,650.0414094342475
193,650.0777855110402
194,650.115876161823
195,650.1557405452195
196,650.1974298386006
197,650.2409861336466
198,650.2864413551846
199,650.3338162122469
200,650.3831191941969
201,650.4343456290303
202,650.48747682573
203,650.542479327721
204,650.5993043088015
205,650.6578871441006
206,650.7181471852027
207,650.7799877618572
208,650.8432964254905
209,650.9079454434346
210,650.9737925462923
211,651.0406819226315
212,651.1084454456045
213,651.1769041071178
214,651.2458696281803
215,651.3151462087035
216,651.3845323757708
217,651.4538228868047
218,651.5228106440442
219,651.5912885792579
220,651.6590514716357
221,651.7258976663065
222,651.7916306652661
223,651.856060566717
224,651.9190053338106
225,651.9802918802465
226,652.0397569676085
227,652.0972479163295
228,652.1526231382156
229,652.205752503864
230,652.2565175628772
231,652.3048116373697
232,652.3505398095288
233,652.3936188232385
234,652.4339769193069
235,652.471553623042
236,652.506299499751
237,652.5381758873829
238,652.5671546078813
239,652.593217652845
240,652.6163568363892
241,652.6365734081347
242,652.6538776205429
243,652.6682882463523
244,652.6798320439195
245,652.6885431717598
246,652.6944625590062
247,652.6976372447829
248,652.69811970414
249,652.6959671796549
250,652.6912410377129
251,652.6840061695689
252,652.674330459115
253,652.6622843386384
254,652.6479404491037
255,652.6313734138345
256,652.6126597255353
257,652.5918777377992
258,652.5691077459804
259,652.544432140902
260,652.5179356216387
261,652.4897054563363
262,652.4598317789447
263,652.4284079057919
264,652.3955306534732
265,652.3613006409189
266,652.3258225618423
267,652.2892054159389
268,652.2515626869455
269,652.2130124537857
270,652.1736774194804
271,652.1336848434078
272,652.0931663666142
273,652.0522577256546
274,652.0110983551073
275,651.9698308809376
276,651.9286005070198
277,651.8875542967744
278,651.8468403514829
279,651.8066068865422
280,651.7670012078877
281,651.7281685948119
282,651.6902511024317
283,651.653386304462
284,651.6177060017685
285,651.5833349236842
286,651.5503894486579
287,651.5189763700669
288,651.4891917326858
289,651.4611197657221
290,651.4348319397387
291,651.4103861762734
292,651.3878262381289
293,651.3671813232828
294,651.348465876824
295,651.3316796262914
296,651.3168078393692
297,651.3038217998298
298,651.2926794960509
299,651.2833265144023
300,651.2756971268867
301,651.2697155582273
302,651.2652974110302
303,651.2623512192735
304,651.260780093327
305,651.2604834166443
306,651.2613585549743
307,651.2633025415664
308,651.2662137047581
309,651.2699932067659
310,651.2745464645418
311,651.2797844260638
312,651.2856246793385
313,651.2919923768234
314,651.298820963831
315,651.3060527044432
316,651.313639002572
317,651.3215405204048
318,651.3297271020419
319,651.338177515429
320,651.3468790297275
321,651.3558268484146
322,651.3650234208228
323,651.3744776555886
324,651.3842040583344
325,651.3942218144286
326,651.4045538378383
327,651.4152258089969
328,651.4262652263081
329,651.4377004950779
330,651.4495600736078
331,651.4618716902256
332,651.4746616392189
333,651.4879541592629
334,651.5017708951643
335,651.5161304422134
336,651.5310479713725
337,651.5465349319288
338,651.5625988258763
339,651.5792430462258
340,651.5964667709044
341,651.6142649049533
342,651.6326280656529
343,651.6515426075628
344,651.6709906872551
345,651.6909503706044
346,651.7113957886559
347,651.7322973510055
348,651.7536220272625
349,651.7753337060723
350,651.7973936376203
351,651.8197609619764
352,651.84239332345
353,651.8652475686853
354,651.8882805216808
355,651.9114498227748
356,651.934714812501
357,651.9580374356605
358,651.981383135958
359,652.0047217081714
360,652.0280280749791
361,652.0512829599344
362,652.07447343473
363,652.0975933251159
364,652.1206434644283
365,652.1436317879444
366,652.1665732670248
367,652.1894896887158
368,652.2124092912441
369,652.2353662668057
370,652.2584001417217
371,652.2815550435266
372,652.3048788665551
373,652.3284223513068
374,652.3522380962052
375,652.3763795218698
376,652.4008998077609
377,652.4258508202288
378,652.451282050756
379,652.4772395834111
380,652.5037651102982
381,652.5308950128308
382,652.5586595255318
383,652.5870819975722
384,652.6161782640974
385,652.6459561341485
386,652.6764149969133
387,652.7075455459765
388,652.7393296224981
389,652.7717401804266
390,652.8047413773965
391,652.8382887929884
392,652.8723297722995
393,652.9068038882662
394,652.9416435112898
395,652.9767744697731
396,653.0121167808322
397,653.0475854277523
398,653.083091161026
399,653.1185413035395
400,653.1538405463682
401,653.1888917280862
402,653.2235965965293
403,653.2578565561465
404,653.2915734044236
405,653.3246500572516
406,653.3569912585051
407,653.3885042668883
408,653.4190995138798
409,653.4486912285953
410,653.4771980269711
411,653.504543463396
412,653.530656542864
413,653.5554721912432
414,653.578931680705
415,653.6009830068353
416,653.6215812134806
417,653.6406886611047
418,653.658275234508
419,653.674318486148
420,653.6888037116231
421,653.7017239532815
422,653.7130799263285
423,653.7228798608544
424,653.7311392552056
425,653.7378805418045
426,653.7431326740269
427,653.7469306492222
428,653.7493149869756
429,653.7503311835804
430,653.7500291638822
431,653.7484627493527
432,653.7456891555138
433,653.7417685239928
434,653.7367634876578
435,653.7307387629363
436,653.7237607608592
437,653.7158972074997
438,653.7072167666379
439,653.6977886625035
440,653.6876823052378
441,653.6769669233136
442,653.665711205797
443,653.6539829551316
444,653.6418487495172
445,653.6293736138058
446,653.6166206994425
447,653.6036509760153
448,653.5905229377995
449,653.577292329018
450,653.5640118934532
451,653.5507311574675
452,653.5374962580654
453,653.5243498277974
454,653.5113309465016
455,653.4984751668936
456,653.4858146170311
457,653.4733781780645
458,653.4611917309984
459,653.4492784618657
460,653.4376592113872
461,653.4263528532574
462,653.4153766841058
463,653.4047468074579
464,653.3944784943657
465,653.3845865056862
466,653.37508536481
467,653.36598957343
468,653.357313765397
469,653.3490727946997
470,653.3412817540351
471,653.3339559213288
472,653.3271106332298
473,653.3207610868564
474,653.3149220739782
475,653.309607655087
476,653.3048307834281
477,653.3006028908829
478,653.2969334496859
479,653.2938295264214
480,653.291295345694
481,653.2893318790674
482,653.2879364713807
483,653.287102512946
484,653.2868191627197
485,653.28707112414
486,653.2878384726424
487,653.2890965329346
488,653.2908158045291
489,653.2929619342818
490,653.2954957342297
491,653.2983732426139
492,653.3015458262014
493,653.3049603226766
494,653.3085592224996
495,653.3122808900962
496,653.3160598251822
497,653.3198269668742
498,653.3235100448044
499,653.3270339809624
500,653.3303213434758
501,653.3332928505558
502,653.3358679203292
503,653.3379652603987
504,653.3395034898058
505,653.3404017850748
506,653.340580539974
507,653.3399620249812
508,653.3384710286996
509,653.3360354622396
510,653.3325869097974
511,653.3280611122466
512,653.3223983729778
513,653.3155438765425
514,653.3074479133323
515,653.2980660100081
516,653.2873589753736
517,653.2752928807579
518,653.2618389976565
519,653.2469737121799
520,653.2306784291018
521,653.2129394720098
522,653.1937479819115
523,653.1730998143108
524,653.1509954333462
525,653.1274398007121
526,653.1024422571439
527,653.0760163959104
528,653.0481799314823
529,653.0189545718289
530,652.9883659077765
531,652.9564433357668
532,652.923220030557
533,652.8887329814783
534,652.8530230991171
535,652.8161353893594
536,652.7781191811634
537,652.7390283857615
538,652.6989217597951
539,652.6578631438058
540,652.615921649912
541,652.5731717769827
542,652.5296934370036
543,652.4855718820868
544,652.4408975271061
545,652.3957656674993
546,652.350276095299
547,652.3045326205731
548,652.258642512068
549,652.2127158788536
550,652.1668650197503
551,652.1212037663918
552,652.075846840836
553,652.0309092434463
554,651.9865056823384
555,651.942750050465
556,651.899754949836
557,651.8576312556606
558,651.8164877069471
559,651.7764305038804
560,651.7375628871288
561,651.6999846735275
562,651.6637917291764
563,651.6290753739237
564,651.5959217261786
565,651.5644110089784
566,651.5346168435627
567,651.5066055547105
568,651.480435505562
569,651.4561564724777
570,651.4338090651615
571,651.4134241947042
572,651.3950225921898
573,651.3786143819312
574,651.3641987150808
575,651.3517634712738
576,651.3412850390289
577,651.3327281899548
578,651.3260460652372
579,651.3211802924664
580,651.318061246413
581,651.3166084618231
582,651.3167312018654
583,651.3183291817029
584,651.3212934416581
585,651.3255073595008
586,651.3308477874582
587,651.3371862960662
588,651.3443905032942
589,651.3523254639618
590,651.3608550922947
591,651.3698435904511
592,651.3791568581179
593,651.3886638616491
594,651.398237943972
595,651.4077580581202
596,651.417109908927
597,651.4261869901949
598,651.4348915077499
599,651.4431351806782
600,651.450839913927
601,651.457938337233
602,651.4643742088895
603,651.4701026868512
604,651.4750904723269
605,651.4793158322316
606,651.4827685080342
607,651.4854495202095
608,651.4873708782972
609,651.4885552050573
610,651.4890352808522
611,651.4888535142229
612,651.4880613469002
613,651.4867186028731
614,651.4848927893541
615,651.482658354059
616,651.4800959009831
617,651.4772913666836
618,651.4743351601961
619,651.471321271471
620,651.4683463555434
621,651.4655088024319
622,651.4629078058646
623,651.4606424467329
624,651.458810808024
625,651.4575091356969
626,651.4568310561334
627,651.4568668580463
628,651.4577028451232
629,651.4594207632214
630,651.4620973021459
631,651.4658036684183
632,651.4706052227931
633,651.4765611741159
634,651.4837243190167
635,651.4921408151448
636,651.5018499746644
637,651.5128840652073
638,651.5252681079584
639,651.5390196669869
640,651.5541486300232
641,651.5706569878432
642,651.5885386255661
643,651.6077791424715
644,651.6283557167185
645,651.6502370287942
646,651.6733832547565
647,651.697746138383
648,651.7232691490481
649,651.7498877284039
650,651.7775296253303
651,651.8061153175867
652,651.8355585193058
653,651.8657667722249
654,651.8966421132668
655,651.9280818034323
656,651.9599790963745
657,651.9922240218259
658,652.0247041592257
659,652.057305379049
660,652.0899125324139
661,652.1224100734192
662,652.1546826037787
663,652.1866153362141
664,652.2180944819046
665,652.2490075766382
666,652.2792437669743
667,652.3086940788212
668,652.3372516860987
669,652.3648121887647
670,652.391273900471
671,652.4165381394046
672,652.4405095134096
673,652.463096192434
674,652.4842101658056
675,652.5037674858703
676,652.5216885012542
677,652.537898082898
678,652.5523258454122
679,652.564906365682
680,652.5755794003271
681,652.5842901045563
682,652.5909892573941
683,652.5956335009427
684,652.5981856029954
685,652.5986147525795
686,652.5968968962429
687,652.5930151179687
688,652.5869600575835
689,652.578730353302
690,652.5683330856764
691,652.5557841940773
692,652.5411088338013
693,652.5243416417561
694,652.5055268795202
695,652.4847184229449
696,652.4619795687114
697,652.437382633461
698,652.4110083316714
699,652.3829449325242
700,652.3532872101609
701,652.3221352133853
702,652.2895928893304
703,652.2557666011501
704,652.2207635824476
705,652.1846903710795
706,652.1476512633897
707,652.1097468287207
708,652.0710725239549
709,652.0317174473224
710,651.9917632673632
711,651.9512833560922
712,651.9103421464475
713,651.8689947243637
714,651.8272866560073
715,651.7852540414674
716,651.742923778117
717,651.70031401059
718,651.6574347407172
719,651.614288570554
720,651.5708715541928
721,651.5271741376953
722,651.4831821697657
723,651.4388779678096
724,651.3942414240803
725,651.3492511348733
726,651.3038855335709
727,651.2581240068956
728,651.2119479729167
729,651.1653418991714
730,651.1182942412478
731,651.0707982878982
732,651.0228529076717
733,650.974463201582
734,650.9256410727747
735,650.8764057242518
736,650.8267840891768
737,650.7768111886895
738,650.726530404076
739,650.6759936456195
740,650.625261399103
741,650.5744026327781
742,650.5234945534698
743,650.4726222095477
744,650.4218779476813
745,650.3713607370595
746,650.3211753789225
747,650.2714316217296
748,650.2222432034526
749,650.1737268425356
750,650.1260011980745
751,650.079185817401
752,650.033400085882
753,649.9887621910673
754,649.9453881119895
755,649.9033906427532
756,649.8628784565077
757,649.8239552132997
758,649.7867187150717
759,649.7512601125825
760,649.7176631709099
761,649.6860036025743
762,649.6563484800528
763,649.6287557407055
764,649.6032737956498
765,649.5799412513837
766,649.5587867511013
767,649.5398289416181
768,649.5230765705688
769,649.508528717193
770,649.4961751591416
771,649.485996876338
772,649.4779666892476
773,649.4720500224901
774,649.4682057773608
775,649.4663872916252
776,649.466543364668
777,649.4686193308099
778,649.4725581693962
779,649.4783016416566
780,649.4857914394091
781,649.4949703228582
782,649.5057832189003
783,649.5181782498105
784,649.5321076649211
785,649.5475286539711
786,649.5644040280806
787,649.5827027601861
788,649.602400380139
789,649.6234792213224
790,649.6459285168327
791,649.6697443448352
792,649.6949294250065
793,649.7214927709259
794,649.7494492066565
795,649.7788187594053
796,649.8096259435819
797,649.8418989536343
798,649.8756687824942
799,649.9109682793828
800,649.9478311572564
801,649.9862909594502
802,650.0263799984598
803,650.0681282846925
804,650.1115624649002
805,650.1567047871062
806,650.203572103762
807,650.2521749211259
808,650.3025165017269
809,650.3545920274214
810,650.4083878313479
811,650.4638807072178
812,650.5210373047369
813,650.579813621783
814,650.6401546066261
815,650.7019938848925
816,650.7652536246895
817,650.8298445496278
818,650.8956661051151
819,650.9626067801336
820,651.0305445854426
821,651.0993476882562
822,651.1688752001447
823,651.2389781080102
824,651.3095003295604
825,651.3802798683093
826,651.4511500405832
827,651.5219407479307
828,651.5924797718409
829,651.6625940726997
830,651.7321110794899
831,651.8008599586116
832,651.8686728486527
833,651.9353860452765
834,652.0008411208906
835,652.0648859699975
836,652.1273757808415
837,652.1881739419989
838,652.2471528959916
839,652.3041949519361
840,652.3591930671344
841,652.4120516027386
842,652.4626870508083
843,652.5110287215157
844,652.557019373124
845,652.6006157648409
846,652.6417891128285
847,652.6805254312281
848,652.7168257425128
849,652.7507061453639
850,652.782197734411
851,652.811346374342
852,652.8382123385916
853,652.8628698261343
854,652.8854063664322
855,652.9059221143065
856,652.9245290287305
857,652.941349926769
858,652.9565174072453
859,652.970172646829
860,652.9824640815054
861,652.993545995939
862,653.0035770500567
863,653.0127187753213
864,653.0211340724088
865,653.0289857380525
866,653.0364350434318
867,653.0436403811281
868,653.0507559928287
869,653.0579307861918
870,653.0653072478503
871,653.0730204608219
872,653.0811972367708
873,653.0899553741034
874,653.0994030509294
875,653.1096383580134
876,653.1207489714573
877,653.132811959052
878,653.1458937104392
879,653.1600499811628
880,653.1753260431087
881,653.1917569354148
882,653.2093678086195
883,653.228174351139
884,653.2481832825479
885,653.2693928932446
886,653.2917936058443
887,653.3153685323957
888,653.3400940051991
889,653.3659400664312
890,653.392870909503
891,653.4208452710578
892,653.4498167777226
893,653.4797342575393
894,653.5105420313625
895,653.5421802020329
896,653.574584957827
897,653.6076889024426
898,653.641421418287
899,653.6757090644305
900,653.710476005294
901,653.7456444598614
902,653.7811351540059
903,653.816867752546
904,653.8527612451459
905,653.8887342614529
906,653.924705295156
907,653.9605928237412
908,653.9963153204126
909,654.0317911656153
910,654.0669384762784
911,654.1016748803421
912,654.1359172711313
913,654.1695815787162
914,654.2025825925084
915,654.2348338623626
916,654.2662476973038
917,654.2967352738702
