frame_number,force
0,640.9975000000599
1,641.342025561957
2,641.6664268356078
3,641.9525745063399
4,642.1859839885566
5,642.3568836900452
6,642.4606225675783
7,642.4974725358702
8,642.47196091943
9,642.391898854236
10,642.2672735275436
11,642.1091599401881
12,641.9287811839683
13,641.7367962102937
14,641.5428254212452
15,641.3551623360696
16,641.1805889416639
17,641.0242203565887
18,640.8893438146546
19,640.777272355957
20,640.6872814802302
21,640.6167097752736
22,640.5612690763629
23,640.5155450982847
24,640.4736145137392
25,640.4296839558882
26,640.3786675369516
27,640.3166459024436
28,640.2411775404739
29,640.1514544485295
30,640.0483069736864
31,639.9340695231833
32,639.8123264275431
33,639.6875676548334
34,639.564790449943
35,639.449079368101
36,639.3451878197295
37,639.2571374642721
38,639.1878529556999
39,639.1388606454749
40,639.1100935048474
41,639.0998434602798
42,639.1048801247955
43,639.1207286734951
44,639.1420874811452
45,639.1633601931435
46,639.1792535436049
47,639.1853514708038
48,639.1785550097867
49,639.1573073586092
50,639.1215869734917
51,639.072706327478
52,639.0129822852077
53,638.9453523925952
54,638.87300506475
55,638.7990740869096
56,638.7264252663317
57,638.6575385662521
58,638.594465971062
59,638.5388313752994
60,638.4918361965533
61,638.4542402504927
62,638.4263068626439
63,638.4077384987048
64,638.3976632948333
65,638.3947280497548
66,638.3973033016098
67,638.4037474902706
68,638.4126491981467
69,638.4229763779678
70,638.4340955167348
71,638.4456691346486
72,638.4574827801512
73,638.469271937151
74,638.480604592269
75,638.4908417798322
76,638.4991726300645
77,638.5047146058957
78,638.5066730391148
79,638.5045458724346
80,638.498334916203
81,638.4887048884539
82,638.47703579568
83,638.4653376266002
84,638.4560243981741
85,638.4515755318075
86,638.4541480427629
87,638.4652291382796
88,638.4854127835496
89,638.5143410065876
90,638.5507942510503
91,638.5928739513108
92,638.6382076669386
93,638.6841216414653
94,638.7277601705088
95,638.7661680422574
96,638.7963692354806
97,638.8154682382442
98,638.820787899772
99,638.8100508718285
100,638.7816018721082
101,638.7346484859285
102,638.6694788577959
103,638.5876111641714
104,638.4918473736965
105,638.3862284751146
106,638.2758971589939
107,638.1668626580139
108,638.0656537533375
109,637.9788589671559
110,637.9125785143248
111,637.8718327196515
112,637.8599871651957
113,637.8782719950793
114,637.9254775489293
115,637.997885076863
116,638.0894543342748
117,638.1922654737155
118,638.2971980805146
119,638.3948010145657
120,638.4762577717484
121,638.5343103192208
122,638.5640004442753
123,638.5631263420665
124,638.532373032936
125,638.4751319608918
126,638.3970600198539
127,638.3054395747333
128,638.2084031780029
129,638.1140946060334
130,638.0298503216954
131,637.9614902253674
132,637.9127978810632
133,637.8852529798153
134,637.8780559216538
135,637.8884503179563
136,637.9122966771363
137,637.944787547763
138,637.9811519045103
139,638.0172070238242
140,638.049679726592
141,638.0763011739261
142,638.0957397812498
143,638.1074531011134
144,638.1115162577179
145,638.1084481929107
146,638.0990387668888
147,638.0841911666033
148,638.0648140368938
149,638.0417943484154
150,638.016052798872
151,637.9886572951893
152,637.9609640187925
153,637.93475557935
154,637.9123369684917
155,637.896541072626
156,637.8906013858985
157,637.8978726623562
158,637.9214148925943
159,637.9634933486285
160,638.0250767926024
161,638.1054328366353
162,638.2019235930952
163,638.3100893309469
164,638.424064773536
165,638.537302473438
166,638.6434920033294
167,638.7374934632803
168,638.8160906914387
169,638.878424414997
170,638.9260533373432
171,638.9626712542383
172,638.9935640269224
173,639.0249159493862
174,639.0630702323522
175,639.113828338817
176,639.1818565045021
177,639.2702545882914
178,639.3803213809274
179,639.5115222212501
180,639.6616403352402
181,639.8270779996953
182,640.003262596793
183,640.1851026265155
184,640.3674350025512
185,640.5454125971439
186,640.7148001165764
187,640.8721755407576
188,641.0150647816706
189,641.1420498533071
190,641.2528733158302
191,641.3485228775041
192,641.4312439208957
193,641.5044171391129
194,641.5722602379678
195,641.6393565366436
196,641.7100645989104
197,641.7879094985767
198,641.8750811817114
199,641.972149738549
200,642.078051153371
201,642.190325074263
202,642.3055283941084
203,642.4197251688904
204,642.5289676455291
205,642.6297139378995
206,642.7191471639327
207,642.795365442923
208,642.8574222140618
209,642.905223437238
210,642.9393210619427
211,642.96066266339
212,642.970359646518
213,642.9695275053888
214,642.9592361219711
215,642.9405817104195
216,642.9148498362061
217,642.8836913181733
218,642.8492113621852
219,642.8139064581134
220,642.7804620347832
221,642.7514930425991
222,642.7293225946805
223,642.7158512839917
224,642.7125112641056
225,642.7202661046936
226,642.7396220801019
227,642.7706362059945
228,642.8129148158392
229,642.8655981100762
230,642.927339510469
231,642.9963080093237
232,643.0702435281449
233,643.1465751571714
234,643.2225883688332
235,643.2956129110399
236,643.3631956990389
237,643.4232218714868
238,643.4739594116445
239,643.5140287573232
240,643.5423273658001
241,643.5579572985921
242,643.5602025554638
243,643.5485807479226
244,643.5229618719886
245,643.4837235671757
246,643.4319071552652
247,643.369344894893
248,643.2987330284777
249,643.2236250028333
250,643.1483219017973
251,643.077645050165
252,643.0165860577952
253,642.9698445856218
254,642.941289557726
255,642.9334125749727
256,642.9468704392775
257,642.9802263055841
258,643.029988665323
259,643.0910005636598
260,643.1571426501517
261,643.2222146659914
262,643.2808024319324
263,643.3289409136747
264,643.3644319559248
265,643.386755527774
266,643.3966227436898
267,643.3953295631167
268,643.38412948749
269,643.3638195787324
270,643.3346389387594
271,643.2964553794899
272,643.2491189407835
273,643.1928310324913
274,643.1284143880932
275,643.0574350465779
276,642.9821863415862
277,642.9055803993585
278,642.8310026756675
279,642.7621685561448
280,642.7029835839126
281,642.6573738400602
282,642.6290472415881
283,642.6211721289939
284,642.6359944112997
285,642.6744406225802
286,642.7357703493366
287,642.8173492553742
288,642.9146076786424
289,643.0212264007275
290,643.1295585727653
291,643.2312635675477
292,643.3180937019022
293,643.3827383405473
294,643.4196057694309
295,643.4254267846069
296,643.3995943432044
297,643.3441994192864
298,643.2637729178308
299,643.1647849075898
300,643.0549763910051
301,642.9426081050877
302,642.8357160389783
303,642.7414653247548
304,642.6656768745974
305,642.6125540113131
306,642.5845797396099
307,642.582526518063
308,642.6055355559433
309,642.6512647241517
310,642.7161406695747
311,642.7957523597552
312,642.885377633565
313,642.9805603844762
314,643.0776025942133
315,643.1738455533134
316,643.2676849453447
317,643.358351879325
318,643.4455568194561
319,643.5291194592508
320,643.60868938571
321,643.6836057710369
322,643.7528805018131
323,643.8152570249798
324,643.8693062029588
325,643.9135472243711
326,643.9465991738506
327,643.9673666039062
328,643.9752456559686
329,643.970318896971
330,643.9534965683091
331,643.9265619028789
332,643.8920910963636
333,643.8532443637182
334,643.8134511488364
335,643.7760268732388
336,643.7437643584681
337,643.7185495506031
338,643.7010527960583
339,643.6905348980193
340,643.684790366773
341,643.6802421671083
342,643.6721982820713
343,643.6552657624645
344,643.623889944095
345,643.5729577268975
346,643.4983872451024
347,643.3976246821418
348,643.2699779671053
349,643.1167353912626
350,642.9410495710413
351,642.7476103536385
352,642.5421639262929
353,642.3309446075424
354,642.120082886156
355,641.9150557958956
356,641.7202451851691
357,641.5386475036505
358,641.371742379814
359,641.2195021499697
360,641.0805223460251
361,640.9522636731804
362,640.8314012129551
363,640.7142654050743
364,640.5973363501203
365,640.4777311626247
366,640.3536108919727
367,640.2244344968484
368,640.0910129878339
369,639.9553662363273
370,639.8204314402041
371,639.6896849309741
372,639.5667184524585
373,639.4547895231634
374,639.3563687716304
375,639.2727296101071
376,639.2036465435306
377,639.1472731941274
378,639.10025123617
379,639.0580566610856
380,639.0155385188023
381,638.9675724867288
382,638.9097414956332
383,638.83895324215
384,638.7539046842127
385,638.6553193358474
386,638.545921181483
387,638.4301565528165
388,638.3137153840878
389,638.2029275708371
390,638.1041146177652
391,638.022963739648
392,637.963974507125
393,637.9300162073621
394,637.9220238264345
395,637.9388528535898
396,637.9773136597101
397,638.0324048276208
398,638.0977453131748
399,638.1661723518815
400,638.2304423542708
401,638.2839531590919
402,638.3213999230859
403,638.3392857775113
404,638.3362287500115
405,638.313031502463
406,638.2725079182238
407,638.2190914132198
408,638.1582786522572
409,638.0959760252308
410,638.0378108892764
411,637.9884620666393
412,637.9510726027502
413,637.9268264555079
414,637.91477506072
415,637.9119728824156
416,637.913927988257
417,637.9153123113921
418,637.9108235462702
419,637.8960578022488
420,637.8682461038142
421,637.8267296273962
422,637.7730913298792
423,637.7109175198813
424,637.6452301422671
425,637.581701094115
426,637.5258061951097
427,637.4820720156931
428,637.4535212672348
429,637.4413680615087
430,637.4449792601347
431,637.4620977529291
432,637.4893013078338
433,637.52264350274
434,637.558396613243
435,637.5937906282314
436,637.6276236429086
437,637.6606251615386
438,637.6954934748061
439,637.736584955682
440,637.7892895296856
441,637.8591821241422
442,637.9510897592202
443,638.0682345960774
444,638.2115907074859
445,638.3795443411818
446,638.5678979334996
447,638.7702093035649
448,638.9784048926871
449,639.1835632912157
450,639.3767538811221
451,639.5498345549634
452,639.6961371014198
453,639.8109828785236
454,639.8919901996607
455,639.9391745664234
456,639.9548807899952
457,639.9435881891125
458,639.91160499636
459,639.8666512859579
460,639.8173329002649
461,639.7725221338777
462,639.7406806140976
463,639.7291839166633
464,639.7437230445241
465,639.7878513457728
466,639.8627190156593
467,639.9670103534922
468,640.0970873911813
469,640.2473384745186
470,640.4107101511686
471,640.5793618074678
472,640.7453455402843
473,640.9012046256693
474,641.0404146573843
475,641.1576504651673
476,641.2489199111262
477,641.3116359028356
478,641.3446916436645
479,641.3485664121507
480,641.3254343874385
481,641.2792025008496
482,641.2153888077183
483,641.140777106215
484,641.0628389269662
485,640.9889821228676
486,640.9257385630654
487,640.8780249966711
488,640.8486044962069
489,640.8378444360045
490,640.8438075895202
491,640.8626387754899
492,640.889153126851
493,640.9175148940157
494,640.9419090955195
495,640.9571320348767
496,640.9590545206142
497,640.9449471947358
498,640.913691590466
499,640.8659126029565
500,640.8040491352132
501,640.7323411478094
502,640.6566742105927
503,640.5842102259871
504,640.5227643815433
505,640.4799625199356
506,640.4622971391383
507,640.4742481070049
508,640.5176266621164
509,640.5912563175547
510,640.6910436123735
511,640.810421272488
512,640.9410776850318
513,641.073845466589
514,641.199620411317
515,641.3102043645724
516,641.3989920036647
517,641.46144804291
518,641.4953495574729
519,641.5007956065045
520,641.480011201899
521,641.4369933117636
522,641.3770597720909
523,641.3063674679488
524,641.231462231971
525,641.1589013394938
526,641.0949539028277
527,641.0453586048877
528,641.0151142319205
529,641.0082808056886
530,641.0277665433738
531,641.0750824265288
532,641.150076195311
533,641.2506997105154
534,641.37289134881
535,641.510652724152
536,641.6563669592092
537,641.8013529057939
538,641.9365945648707
539,642.0535487063453
540,642.1449239704067
541,642.2053391527226
542,642.231803205143
543,642.2239985230585
544,642.1843676597955
545,642.1179986079867
546,642.0322983119014
547,641.9364583383598
548,641.8407489649197
549,641.7557098702692
550,641.6913187061199
551,641.6562099304139
552,641.6569972538961
553,641.6977397437925
554,641.779592676013
555,641.9006894674861
556,642.0562867050775
557,642.2391642160512
558,642.4402302708894
559,642.6492622291195
560,642.8557136896007
561,643.0495247239103
562,643.2218739204957
563,643.3658147616012
564,643.4767493944073
565,643.5527062565086
566,643.5944022575425
567,643.6050894142121
568,643.5902049288861
569,643.5568502165572
570,643.5131239105929
571,643.467350607976
572,643.4272863202461
573,643.3994109268928
574,643.3884043904363
575,643.3968563010322
576,643.4252141408017
577,643.4719514087545
578,643.5339213447617
579,643.6068462838319
580,643.6858807397471
581,643.7661808437241
582,643.8434107586634
583,643.9141207701211
584,643.9759515612578
585,644.0276564130604
586,644.068974303526
587,644.1004154641028
588,644.1230264683174
589,644.1381808807611
590,644.1474037507003
591,644.1522063317055
592,644.1538985906468
593,644.1533640448348
594,644.150817894718
595,644.1456102248248
596,644.1361574509282
597,644.120067932843
598,644.0944740992569
599,644.0565186922759
600,644.0038960980044
601,643.9353366807828
602,643.8509415480312
603,643.7523149604323
604,643.6424865876728
605,643.5256551984301
606,643.4068101869574
607,643.2912890621751
608,643.1843133686158
609,643.0905369703023
610,643.0136515464673
611,642.9561016583156
612,642.9189421044906
613,642.9018377705064
614,642.9031891682567
615,642.9203651903651
616,642.9500170939791
617,642.9884297618843
618,643.0318588647871
619,643.0768220717813
620,643.1203455200462
621,643.1601846805405
622,643.1950273846584
623,643.2246562621732
624,643.2500215493698
625,643.273170985316
626,643.2970068011241
627,643.3248882200062
628,643.3601510154763
629,643.4056346879088
630,643.463280346391
631,643.5338287962177
632,643.6166484997891
633,643.7097396977791
634,643.8099487409635
635,643.9133771990507
636,644.0159147666437
637,644.1137899266226
638,644.2040253151779
639,644.2847059331232
640,644.3550100815377
641,644.4150028073759
642,644.4652435426788
643,644.5063044495616
644,644.5383133917887
645,644.5606169327609
646,644.5716246999268
647,644.56887130116
648,644.5493132965332
649,644.5098438393485
650,644.447949485877
651,644.3623799017183
652,644.253684984987
653,644.1244983247174
654,643.9794952938413
655,643.8250183256745
656,643.6684279649818
657,643.5172857922748
658,643.3784974096224
659,643.2575493644911
660,643.157964776991
661,643.0810678939687
662,643.0260870435862
663,642.9905567263878
664,642.9709248458795
665,642.9632433860338
666,642.9638203667075
667,642.9697273802143
668,642.9790846301208
669,642.9910885662489
670,643.0058021711642
671,643.0237757873697
672,643.0455943574377
673,643.0714586956673
674,643.1009047652553
675,643.1327353536994
676,643.1651822923974
677,643.1962543004149
678,643.2241785289275
679,643.2478261828919
680,643.2670262681714
681,643.2827038680232
682,643.296814537128
683,643.3120840614162
684,643.3316060810437
685,643.35838331937
686,643.3949013049057
687,643.4428004349882
688,643.5026843840119
689,643.5740800723569
690,643.6555407331053
691,643.7448583461604
692,643.8393378489691
693,643.9360929082526
694,644.0323429524224
695,644.1257041681214
696,644.2144603134045
697,644.2977752989556
698,644.3757883206368
699,644.4495386472933
700,644.5207073618474
701,644.5912171921887
702,644.6627713774568
703,644.736425476523
704,644.8122750775511
705,644.889315513597
706,644.9654962911839
707,645.0379603771473
708,645.1034270093191
709,645.1586479251191
710,645.2008545282337
711,645.2281289724076
712,645.2396627351916
713,645.2358864543146
714,645.2184589984801
715,645.1901095098998
716,645.1543453672501
717,645.1150640368647
718,645.0761254240102
719,645.0409503550609
720,645.0122094541645
721,644.9916461033355
722,644.980033293987
723,644.9772194517166
724,644.9822059480136
725,644.993224291745
726,645.0078184739713
727,645.0229597575715
728,645.0352157092905
729,645.0409709726073
730,645.0366754449255
731,645.0190910557997
732,644.98551845539
733,644.9339972267063
734,644.8634775127769
735,644.7739539199331
736,644.6665403788221
737,644.5434600053013
738,644.4079329046338
739,644.2639594879429
740,644.1160085832724
741,643.9686321265242
742,643.8260485102253
743,643.6917579943201
744,643.5682573073776
745,643.4568965717485
746,643.357882490655
747,643.2704013026303
748,643.192823914153
749,643.1229567717247
750,643.0583097831892
751,642.9963666648664
752,642.9348537545966
753,642.8719977677177
754,642.8067467992096
755,642.738918753346
756,642.6692417534186
757,642.5992597351794
758,642.5310987009013
759,642.4671229915624
760,642.4095377028377
761,642.3600024370004
762,642.3193211077945
763,642.2872667034337
764,642.2625814204016
765,642.2431593240327
766,642.2263803619713
767,642.2095349326997
768,642.1902666427075
769,642.1669649188159
770,642.1390475975193
771,642.1070825609546
772,642.0727145546417
773,642.0383936005182
774,642.0069409118547
775,641.9810275732328
776,641.9626657255609
777,641.952809649167
778,641.9511406919478
779,641.9560802728148
780,641.9650402056895
781,641.9748716453731
782,641.9824243346637
783,641.9851052262509
784,641.981339064046
785,641.9708610213058
786,641.9547957548903
787,641.9355076785098
788,641.9162520299802
789,641.9006974100148
790,641.89240429429
791,641.8943309826856
792,641.9084192692176
793,641.9353019088243
794,641.9741678938728
795,642.0228071451952
796,642.0778328973383
797,642.1350573001552
798,642.1899774129595
799,642.23831125035
800,642.2765066361836
801,642.3021365643045
802,642.3141041321371
803,642.3126162125227
804,642.2989448064592
805,642.2750562196776
806,642.2432174446014
807,642.2056672142119
808,642.1643820074281
809,642.1209177450132
810,642.076300063655
811,642.030963349614
812,641.9847624633462
813,641.9370740616447
814,641.886977613118
815,641.8334871819121
816,641.7758016609256
817,641.7135394233027
818,641.6469179070501
819,641.5768442099435
820,641.5049061489399
821,641.4332774220989
822,641.3645602719016
823,641.301587005508
824,641.2471938539426
825,641.2039729738466
826,641.1740125628997
827,641.1586513111699
828,641.1582810330592
829,641.1722179563924
830,641.1986465997069
831,641.23464161666
832,641.2762846348536
833,641.3188908182465
834,641.3573368327451
835,641.3864545868228
836,641.4014406816358
837,641.398232129993
838,641.3738103060986
839,641.3264163835299
840,641.2556882561682
841,641.1627473736562
842,641.0502596311677
843,640.9224636470617
844,640.7851160707816
845,640.6452753475273
846,640.5108591826397
847,640.3899717685663
848,640.2900798680154
849,640.2171807868044
850,640.1751212586574
851,640.1651928062927
852,640.1860609427682
853,640.2340039133604
854,640.303371408757
855,640.3871517288103
856,640.4775590752824
857,640.5665967151481
858,640.6465861679912
859,640.7106607078554
860,640.7532114509622
861,640.7702678565681
862,640.7597983046549
863,640.721915969441
864,640.658963635709
865,640.5754449388802
866,640.4777810444975
867,640.3738874992221
868,640.2725727260148
869,640.1827723892701
870,640.1126760822142
871,640.0688684645805
872,640.0556556242094
873,640.0747365482598
874,640.1252994166325
875,640.20450534814
876,640.3082235827039
877,640.4318414048734
878,640.570986888826
879,640.7220474473336
880,640.8824265940835
881,641.050544924159
882,641.225639290192
883,641.4074328041874
884,641.5957469528119
885,641.7901241854083
886,641.9895299626271
887,642.1921991971449
888,642.3956740212055
889,642.5970409244862
890,642.7933169067745
891,642.9818795744409
892,643.1608193905921
893,643.3291262894356
894,643.4866876121255
895,643.6341350560651
896,643.7726069405642
897,643.903482733319
898,644.0281202424134
899,644.1476107164309
900,644.2625709143157
901,644.3729969194923
902,644.4781972482143
903,644.5768099768369
904,644.6669037076615
905,644.7461610203504
906,644.8121335420743
907,644.8625420617024
908,644.8955822295835
909,644.9101880452586
910,644.9062056395582
911,644.8844496529001
912,644.8466513765256
913,644.7953374321085
914,644.7336779929766
915,644.6653188813508
916,644.5941857644513
917,644.5242386564333
918,644.4591632323828
