frame_number,force
0,640.708740000039
1,640.7685628331855
2,640.8302625701807
3,640.8955580740219
4,640.9658561461328
5,641.0421142598639
6,641.1247408196217
7,641.2135487560121
8,641.3077634218541
9,641.4060784573871
10,641.5067571256212
11,641.6077744172618
12,641.7069774668747
13,641.8022221411095
14,641.8914419538094
15,641.9726307865822
16,642.0437662342875
17,642.1027414932204
18,642.1473817564436
19,642.1755868141001
20,642.18558523261
21,642.176241319967
22,642.1473460570702
23,642.0998424415383
24,642.0359601481856
25,641.9592452202581
26,641.8744713733571
27,641.787424012274
28,641.7045591091055
29,641.632552901085
30,641.5777750205525
31,641.545736361919
32,641.5405781727115
33,641.5646737147954
34,641.6184033746779
35,641.7001383863488
36,641.806432783659
37,641.9323860149835
38,642.0721089299566
39,642.2192107840409
40,642.3672305204042
41,642.5099661836035
42,642.6417029613815
43,642.7573777215155
44,642.8527252745967
45,642.9244316968194
46,642.970292347886
47,642.9893548000549
48,642.9820254277498
49,642.9501239209034
50,642.896869920821
51,642.8267828805865
52,642.7454831919313
53,642.6593978894571
54,642.575384317381
55,642.5002905917946
56,642.4404816931952
57,642.40137173437
58,642.3870110379704
59,642.3997834705515
60,642.4402686418108
61,642.5072984823083
62,642.5981889916173
63,642.7090823057546
64,642.8353180563031
65,642.9717699631822
66,643.1131197695142
67,643.2540782003977
68,643.3895852061307
69,643.5150179870462
70,643.6264068201534
71,643.7206229017776
72,643.795484902406
73,643.8497507747317
74,643.8830120608505
75,643.8955539921751
76,643.8882521670364
77,643.8625456106477
78,643.8204812902762
79,643.7647852579687
80,643.6988885464709
81,643.6268346618042
82,643.5530324088926
83,643.4818816279743
84,643.417355142959
85,643.3626386878221
86,643.3199097376308
87,643.290290725296
88,643.2739581896652
89,643.2703462570291
90,643.278369856017
91,643.2966132148633
92,643.3234665709459
93,643.3572269505567
94,643.396189580315
95,643.4387408789934
96,643.4834387082989
97,643.5290537845796
98,643.5745556314882
99,643.6190472272458
100,643.661668472565
101,643.7014890837695
102,643.7373997463789
103,643.768003154075
104,643.791520624764
105,643.8057607353129
106,643.808212616641
107,643.7963003812985
108,643.7677744691597
109,643.7211556594638
110,643.6561211740958
111,643.5737418367546
112,643.4765283530234
113,643.3682907636542
114,643.2538392693519
115,643.1385650175176
116,643.0279516626175
117,642.9270838925368
118,642.8402261009488
119,642.7705332592137
120,642.7199264175491
121,642.6891256259518
122,642.6777984764617
123,642.6847670715732
124,642.7082236070853
125,642.7459261504398
126,642.7953656462843
127,642.853900012178
128,642.9188455376864
129,642.9875171132622
130,643.0572241668918
131,643.1252471577496
132,643.1888262301183
133,643.2451824276973
134,643.2915655720839
135,643.3253018589071
136,643.3438245049117
137,643.344710193889
138,643.3257773239948
139,643.2852985715076
140,643.2223405601698
141,643.1371870139236
142,643.0317493845376
143,642.9098417434001
144,642.777214847099
145,642.6413073108727
146,642.5107440798799
147,642.3946491726175
148,642.3018350436362
149,642.2399217274044
150,642.2144557402389
151,642.2281333952503
152,642.2802584173955
153,642.3665584305446
154,642.4794390149065
155,642.6086754162868
156,642.7424575102731
157,642.8686393152911
158,642.9760125848418
159,643.0554287260135
160,643.1006289742456
161,643.1086943620654
162,643.080084770386
163,643.0182982578111
164,642.9292379671114
165,642.8204074292482
166,642.7000595209375
167,642.5764061874656
168,642.4569658381387
169,642.3480916523444
170,642.2546902518113
171,642.1801077407738
172,642.1261393297624
173,642.0931252262743
174,642.0801244682274
175,642.0851786161842
176,642.105665838637
177,642.138711927577
178,642.1815897468196
179,642.2320194937322
180,642.2882935023905
181,642.349195800304
182,642.4137535971236
183,642.480919516448
184,642.5493131344756
185,642.6171271255556
186,642.6822273050021
187,642.7423833714436
188,642.7955123406942
189,642.8398287831491
190,642.8738590207835
191,642.8963486481965
192,642.9061385723078
193,642.9020927395653
194,642.8831400102935
195,642.8484564526382
196,642.7977704013147
197,642.73172865889
198,642.6522283691718
199,642.562604156548
200,642.467575861458
201,642.3729202110361
202,642.284918485399
203,642.2097096209969
204,642.1527010035585
205,642.1181472880263
206,642.108929289629
207,642.1264944761555
208,642.1708889822121
209,642.2408200272698
210,642.3337171047343
211,642.4457941259654
212,642.572148830621
213,642.706959535199
214,642.8438293712877
215,642.9762739150673
216,643.0982744344379
217,643.2047733200296
218,643.2920011610639
219,643.357586032133
220,643.4004672875462
221,643.4206834859525
222,643.419112598559
223,643.3972194324842
224,643.3568303835955
225,643.2999329489804
226,643.2285017213976
227,643.1443751043163
228,643.0492184719776
229,642.9445906287644
230,642.8320950171075
231,642.713572959646
232,642.5912917692251
233,642.4680884834662
234,642.3474482175035
235,642.2335197975681
236,642.1310800424224
237,642.0454371884922
238,641.9822294182529
239,641.9470614123532
240,641.9449515810703
241,641.9796264988588
242,642.0527718478855
243,642.1634024781526
244,642.3075183454146
245,642.478156133807
246,642.6658550416822
247,642.8594736728453
248,643.0472463385453
249,643.2179459975869
250,643.3620132061714
251,643.4725133730096
252,643.5458098257925
253,643.5818908415137
254,643.5843432677686
255,643.559996864561
256,643.5182708774737
257,643.4702600753736
258,643.4276199601304
259,643.401348581937
260,643.4005978187178
261,643.4316581534274
262,643.4972361911451
263,643.5960945888596
264,643.7230792692486
265,643.8695357101396
266,644.024096892858
267,644.1737852657711
268,644.30531588435
269,644.4064436862575
270,644.4671799735581
271,644.480716238104
272,644.4439430503797
273,644.3575337029705
274,644.2256477258837
275,644.0553609499796
276,643.855935016392
277,643.6380222730343
278,643.4128905524833
279,643.191748016581
280,642.9852244498385
281,642.8030089936015
282,642.6535834498346
283,642.5439636682619
284,642.4793805354145
285,642.4628833204741
286,642.4949089506601
287,642.5729080081826
288,642.691140319036
289,642.8407514012282
290,643.0102155285816
291,643.1861782750126
292,643.354656463709
293,643.5024693527868
294,643.6186983280793
295,643.6959323847245
296,643.7310826204077
297,643.7256351718169
298,643.6853191702482
299,643.6192613712547
300,643.538770591432
301,643.4559390373666
302,643.3822612991239
303,643.327453741261
304,643.2986076684662
305,643.2997382534683
306,643.3317196468763
307,643.3925466153876
308,643.4778373713942
309,643.5814793460208
310,643.6963176016867
311,643.8148047937648
312,643.9295708896092
313,644.0339092163614
314,644.1221925462729
315,644.1902268386252
316,644.2355316783056
317,644.257516868114
318,644.2575143897171
319,644.2386328323281
320,644.2054287490811
321,644.163426282451
322,644.118545644123
323,644.076512029693
324,644.0423156332704
325,644.0197912629086
326,644.0113784083306
327,644.0180953672595
328,644.0397112328279
329,644.075047485716
330,644.1223193667952
331,644.1794490821305
332,644.2443243922104
333,644.3150025333596
334,644.3898589108512
335,644.4676678049653
336,644.5476031064893
337,644.6291714833445
338,644.7121197723761
339,644.7963611145624
340,644.8819344123259
341,644.9689790759085
342,645.0577018790422
343,645.148332434531
344,645.2410830144013
345,645.3361301192842
346,645.4336222974719
347,645.5337030710201
348,645.6365289904174
349,645.7422653661945
350,645.8510537815037
351,645.9629574276613
352,646.0778965052539
353,646.1955877762026
354,646.3154995106646
355,646.4368205531404
356,646.5584249216739
357,646.6788078246033
358,646.7959839955824
359,646.9073690317302
360,647.0096973268096
361,647.0990495705913
362,647.1710509971742
363,647.2212571004511
364,647.2456869506525
365,647.2414208522262
366,647.2071585779937
367,647.1436312233518
368,647.0537714791166
369,646.942582465199
370,646.8167077643811
371,646.6837756849875
372,646.5516355403424
373,646.4276066355252
374,646.3178373078757
375,646.2268452105569
376,646.157285174427
377,646.1099572732526
378,646.0840232985653
379,646.0773613172261
380,646.0869784311453
381,646.1094250579135
382,646.1411828360741
383,646.179002031633
384,646.2201466777682
385,646.262499836461
386,646.3045107085067
387,646.3450190771035
388,646.3830355120738
389,646.4175582726476
390,646.4474741367394
391,646.4715526699708
392,646.4885226710282
393,646.4972070660338
394,646.4966763788389
395,646.4863698691233
396,646.4661449731652
397,646.4362513031433
398,646.3972664352959
399,646.3500533979717
400,646.2957900881921
401,646.2360793925565
402,646.1730928264413
403,646.1096615960857
404,646.0492334349814
405,645.995657954354
406,645.9528193248598
407,645.924178082468
408,645.9123065306551
409,645.9185070252605
410,645.9425898620883
411,645.9828569188267
412,646.0362969115217
413,646.0989623970407
414,646.166472958789
415,646.2345693109056
416,646.2996282380306
417,646.359046677759
418,646.4114283303685
419,646.4565590388629
420,646.4952112407565
421,646.5288390919541
422,646.5592117694656
423,646.5880142733799
424,646.6164519527838
425,646.6449235756174
426,646.6728456959968
427,646.6986882868842
428,646.720219931955
429,646.73489558145
430,646.7402904406658
431,646.7344982572079
432,646.7164441453396
433,646.6860832561408
434,646.644466837449
435,646.5936703560171
436,646.5365950024118
437,646.4766640695162
438,646.4174389920429
439,646.362186659023
440,646.313444027075
441,646.2726398163389
442,646.239838861423
443,646.2136721950919
444,646.1915012245208
445,646.1698292878552
446,646.1449190172075
447,646.1135118472889
448,646.0734976758221
449,646.024373896694
450,645.9673770790514
451,645.9052491810374
452,645.8416778997345
453,645.780511187711
454,645.72489680239
455,645.6765364342085
456,645.6352403312427
457,645.5988980185809
458,645.5638654372866
459,645.5256653833961
460,645.4798470481084
461,645.422848326435
462,645.3527257551123
463,645.2696448780106
464,645.1760552708984
465,645.0765104523357
466,644.9771376952953
467,644.8848210537886
468,644.8062239895379
469,644.7468182132797
470,644.7100790852951
471,644.6969620190939
472,644.7057166189353
473,644.7320437541049
474,644.769556646719
475,644.810470429151
476,644.8464215901316
477,644.8693128616206
478,644.8720860379842
479,644.849341410786
480,644.7977508512323
481,644.7162510000161
482,644.606040630629
483,644.4704239692835
484,644.3145301348171
485,644.1449129526562
486,643.969030665217
487,643.7946361849605
488,643.6291432007617
489,643.4790344968925
490,643.3493548100602
491,643.243313508793
492,643.1620197566998
493,643.1043737460456
494,643.0671397114797
495,643.0452263813472
496,643.0321838071576
497,643.0208884008448
498,643.0043488321116
499,642.9765415639965
500,642.9331739890946
501,642.872266502897
502,642.7944483381823
503,642.7028930488619
504,642.6028833444581
505,642.5010732289543
506,642.4045798271671
507,642.3200662961548
508,642.2529617161094
509,642.2069123288968
510,642.1834989376858
511,642.1822139237191
512,642.2006682367803
513,642.2349821359185
514,642.2803052032557
515,642.3314129666769
516,642.3833226359162
517,642.4318479397607
518,642.4739945806789
519,642.5081168719862
520,642.5338183426342
521,642.5516564412578
522,642.5627649709833
523,642.568510153707
524,642.5702477642759
525,642.569181940917
526,642.5662833227426
527,642.5622236108075
528,642.5573105273648
529,642.551434350141
530,642.5440498698872
531,642.5342176211857
532,642.5207209807502
533,642.5022598667038
534,642.477696166644
535,642.446299535358
536,642.407930315849
537,642.3631111446692
538,642.3129772572339
539,642.2591337354181
540,642.2034600118149
541,642.1478876863777
542,642.0941597946363
543,642.0435765029617
544,641.9967468986694
545,641.9533941791644
546,641.912287695066
547,641.8713724683026
548,641.8281164680822
549,641.7800174062832
550,641.7251509912821
551,641.6626328959229
552,641.5928996933947
553,641.5177618637432
554,641.4402252020744
555,641.3641101234707
556,641.2935229382613
557,641.2322545305026
558,641.1831994689438
559,641.1478881304008
560,641.1261972795392
561,641.1162663776479
562,641.114618298117
563,641.1164653642534
564,641.1161667283421
565,641.1077923918763
566,641.0857456986048
567,641.0453908966848
568,640.9836168143149
569,640.8992550097728
570,640.7932850869015
571,640.6688014278024
572,640.5307532890182
573,640.3854805686748
574,640.2400684272701
575,640.1015709718982
576,639.9762096467741
577,639.8686937261389
578,639.7817946037476
579,639.7162338712302
580,639.6708619835293
581,639.6430499483938
582,639.6291948110512
583,639.6252367331246
584,639.6271003950308
585,639.6310111131411
586,639.6336815227073
587,639.6323934426325
588,639.6250072070126
589,639.609931046654
590,639.5860847592497
591,639.5528910162897
592,639.5103153297982
593,639.458950414505
594,639.4001168713789
595,639.3359463480355
596,639.2694195274813
597,639.2043300531429
598,639.1451384833153
599,639.0966888047149
600,639.063790638551
601,639.0507087978535
602,639.0606342473844
603,639.095229352834
604,639.1543401816265
605,639.2359474206388
606,639.3363850717831
607,639.4507964087694
608,639.5737374646346
609,639.6998055037842
610,639.8241771940958
611,639.94298162993
612,640.0534864261339
613,640.1541158761241
614,640.2443334744444
615,640.3244192366744
616,640.3951841432383
617,640.4576914826906
618,640.5130627618818
619,640.5624115822168
620,640.6068928699968
621,640.6478120653311
622,640.6867268699976
623,640.7254913822012
624,640.7662257916414
625,640.8112243963234
626,640.8628229165685
627,640.9232315341472
628,640.9943217633901
629,641.0773552893085
630,641.172668270123
631,641.2793676303716
632,641.3951365481965
633,641.516253957177
634,641.637887774331
635,641.7546366515768
636,641.8612084682829
637,641.9530766817792
638,642.0269688117017
639,642.0811016209377
640,642.1151538237592
641,642.1300344093012
642,642.1275450134358
643,642.1100360937138
644,642.0801264989016
645,642.0405198634447
646,641.9939259361156
647,641.9430777807712
648,641.8908215355974
649,641.8402437483518
650,641.7947892293465
651,641.7583106142463
652,641.7349913772397
653,641.7291060845931
654,641.7446213645226
655,641.7846889055492
656,641.8511248173165
657,641.9439900674811
658,642.0613730662274
659,642.1994321640154
660,642.3526980113226
661,642.5145814955947
662,642.6779973108104
663,642.8360037268965
664,642.9823751934605
665,643.1120554174961
666,643.221466575403
667,643.3086645733009
668,643.3733365850942
669,643.4166481101771
670,643.4409675926673
671,643.44952143378
672,643.4460480547798
673,643.4345137784293
674,643.4189240720838
675,643.4032227040922
676,643.3912336926003
677,643.3865819667076
678,643.3925440448896
679,643.4118291566846
680,643.4463439757171
681,643.497013624221
682,643.5637110151404
683,643.6453106044894
684,643.7398553846133
685,643.8448105539218
686,643.9573647678513
687,644.0747271084342
688,644.1943640363079
689,644.3141365011799
690,644.4323305882612
691,644.5476095390021
692,644.6589334744359
693,644.765485468154
694,644.8666115584253
695,644.961747282767
696,645.0502886637714
697,645.1313841134054
698,645.2036729648705
699,645.2650569743299
700,645.3126274800617
701,645.3428499962682
702,645.3520269291073
703,645.336952145867
704,645.2955899879399
705,645.2275947405583
706,645.1345414643644
707,645.0198409011304
708,644.8884139148114
709,644.7462551789729
710,644.6000004653549
711,644.456554242151
712,644.3227820015644
713,644.2052448686429
714,644.1099421695752
715,644.0420241055745
716,644.0054512047568
717,644.0026173349239
718,644.0340039335415
719,644.0979613436208
720,644.190699427611
721,644.3065276623371
722,644.4383365816611
723,644.5782645597676
724,644.7184495117706
725,644.8517375021189
726,644.9722267119835
727,645.0755712475631
728,645.1590391066853
729,645.2213795363756
730,645.262579630799
731,645.2835801563012
732,645.285999823524
733,645.2718991880687
734,645.2435951439755
735,645.2035128471817
736,645.1540474329225
737,645.0974180072667
738,645.0355280959088
739,644.969875512029
740,644.9015522689004
741,644.8313371813346
742,644.7598386745132
743,644.6876293311278
744,644.6153354893247
745,644.5436805727338
746,644.4734998636848
747,644.4057388176935
748,644.341431527179
749,644.281645722221
750,644.2273780189189
751,644.1793908207093
752,644.1380092062213
753,644.1029349234191
754,644.0731533627282
755,644.0469860327629
756,644.0222937566398
757,643.9968006466019
758,643.9684985025154
759,643.9360892720997
760,643.8994098183763
761,643.8597592548688
762,643.8200374609244
763,643.7846234665599
764,643.758968903117
765,643.7489382167122
766,643.7599862425267
767,643.7963173076797
768,643.8601933623952
769,643.9515248208946
770,644.0677951769269
771,644.2042849354303
772,644.3545101856693
773,644.5107768248047
774,644.6647568417467
775,644.8080132846426
776,644.9324358494306
777,645.0305880841338
778,645.0959945353251
779,645.1234056349293
780,645.1090681156636
781,645.0510007603185
782,644.9492437574426
783,644.8060347375113
784,644.6258696897954
785,644.4154201009003
786,644.1832902525308
787,643.9396125126533
788,643.695493971787
789,643.4623405467534
790,643.2510956154506
791,643.0714455278902
792,642.9310627795976
793,642.8349681262281
794,642.7850868741855
795,642.7800537945559
796,642.8152932523699
797,642.883372492914
798,642.9745974682817
799,643.0777913443821
800,643.1811724641719
801,643.2732420191061
802,643.3436029778301
803,643.3836508510749
804,643.3870950177338
805,643.3502833683774
806,643.2723123019787
807,643.1549140417359
808,643.0021348022875
809,642.8198535384988
810,642.6152264563116
811,642.3961522008213
812,642.1708233343172
813,641.9473729406755
814,641.7335712725652
815,641.536508602681
816,641.3622305696583
817,641.2153501021104
818,641.0987041650104
819,641.0131321111354
820,640.9574326224312
821,640.9285196197728
822,640.9217523372953
823,640.9313793540514
824,640.9510288245259
825,640.9741923606721
826,640.994669652347
827,641.0069574642216
828,641.0065804403358
829,640.9903671996884
830,640.9566687970281
831,640.9055021453962
832,640.8385876707417
833,640.7592465593633
834,640.6721326859771
835,640.5827966301915
836,640.4971118858148
837,640.4206291657587
838,640.3579455988393
839,640.3121696360736
840,640.2845390269878
841,640.2742256693022
842,640.2783438872785
843,640.2921612085348
844,640.309486548873
845,640.3231860740469
846,640.325765796989
847,640.3099682877059
848,640.2693500810802
849,640.1988195858596
850,640.0951095153385
851,639.9571354252187
852,639.7861750457195
853,639.5858163220239
854,639.361664023917
855,639.1208401780859
856,638.8713426540289
857,638.6213380251522
858,638.3784683108818
859,638.149253841301
860,637.9386748316775
861,637.7500015718094
862,637.5849049391046
863,637.4438136351141
864,637.3264115473414
865,637.2321207949544
866,637.1604168550724
867,637.1108746288929
868,637.0829342858548
869,637.0754728789274
870,637.0863327760932
871,637.1119658184671
872,637.1473091821122
873,637.185945840718
874,637.2205459738298
875,637.2435378400596
876,637.247912291523
877,637.2280371188828
878,637.1803624568391
879,637.1039287190081
880,637.0006216333652
881,636.8751457118726
882,636.7347125308813
883,636.5884682778008
884,636.4467148977056
885,636.3200013403375
886,636.2181672115296
887,636.1494178917752
888,636.1195119854608
889,636.1311465783524
890,636.1836183202506
891,636.27281402501
892,636.3915503515416
893,636.5302403315595
894,636.6778121872798
895,636.8227542439788
896,636.9541371568308
897,637.0624879485857
898,637.1404432394331
899,637.1831630808604
900,637.1885258934991
901,637.1571385309147
902,637.0921793790372
903,636.9990677695005
904,636.8849520696874
905,636.7580401320313
906,636.6268421268869
907,636.4994326794085
908,636.3828434422484
909,636.282658402323
910,636.202819735632
911,636.1455967243587
912,636.1116470093858
913,636.1001079637495
914,636.1086859931403
915,636.1337542535598
916,636.1705132628671
917,636.2132932700108
918,636.2560587334052
