frame_number,force
0,593.1793800000593
1,593.2625658614421
2,593.3475010702789
3,593.4357984607043
4,593.5288315767897
5,593.6276863487477
6,593.7331659680374
7,593.845827441094
8,593.9660217493664
9,594.0939178326166
10,594.2295035967443
11,594.3725644265337
12,594.5226373526365
13,594.6789356384761
14,594.8402503927733
15,595.004860556799
16,595.1704944251752
17,595.3343699835118
18,595.4933113985306
19,595.6439170633914
20,595.7827536951918
21,595.9065682266706
22,596.0125224292067
23,596.0984419656752
24,596.1630405777051
25,596.2060651774763
26,596.2283263957136
27,596.2316137264872
28,596.2185135872601
29,596.1921422090793
30,596.1557976230852
31,596.1125552959644
32,596.064870660232
33,596.0142724414036
34,595.9612207655442
35,595.9051774860591
36,595.8448982229775
37,595.778905774361
38,595.7060580441104
39,595.6260970231432
40,595.5400606251042
41,595.4504569173141
42,595.3611423107509
43,595.2769020094094
44,595.2027891069414
45,595.1433297134917
46,595.1017322124254
47,595.0792355730657
48,595.074698694082
49,595.0844894164217
50,595.102696448878
51,595.1216650737822
52,595.1328322490059
53,595.1277859960258
54,595.0994027833945
55,595.0428631475113
56,594.956347422677
57,594.8412779482195
58,594.7020759643476
59,594.5454976900479
60,594.3796753341253
61,594.2130170690484
62,594.0531291216081
63,593.9059113353621
64,593.7749363205318
65,593.6611639849771
66,593.562996358418
67,593.4766539146477
68,593.3968379533552
69,593.317611707716
70,593.2333817869736
71,593.139814805457
72,593.0345166172392
73,592.9173469398738
74,592.7903211268729
75,592.6571351267133
76,592.5224209241891
77,592.3908871283905
78,592.2665157645762
79,592.1519692938167
80,592.0483122997696
81,591.9550761729666
82,591.8706108893131
83,591.7926036363671
84,591.7186200194146
85,591.6465442185258
86,591.5748502680035
87,591.5027005133114
88,591.429905480111
89,591.3567848309783
90,591.2839679622793
91,591.2121853758094
92,591.142113485177
93,591.0743199974199
94,591.0093164111252
95,590.9476841050036
96,590.8902172558114
97,590.8380185320269
98,590.792491113053
99,590.7551973158512
100,590.7275972928767
101,590.7107264128458
102,590.7049014002251
103,590.7095513860169
104,590.7232403305151
105,590.743884242904
106,590.7690984184237
107,590.7965723730985
108,590.8243750185412
109,590.8511263939149
110,590.876019005256
111,590.8987189664628
112,590.9192072901826
113,590.9376211349477
114,590.9541294103939
115,590.9688484335283
116,590.9817921965262
117,590.9928636898695
118,591.0019086483209
119,591.0088403945989
120,591.0138032227912
121,591.0173094106582
122,591.0202897334897
123,591.0240250122858
124,591.0299486892825
125,591.0393264001723
126,591.0528502685793
127,591.0702405916855
128,591.0899933643029
129,591.1094026752771
130,591.1249116866347
131,591.1327386312897
132,591.1296333824871
133,591.1135822810618
134,591.0843055015899
135,591.0434613954396
136,590.9945462066902
137,590.9425297441954
138,590.8933013616519
139,590.8530245652018
140,590.8275058027401
141,590.8216658238779
142,590.8391665959799
143,590.8822033109158
144,590.9514307667546
145,591.0459748028934
146,591.1634922346838
147,591.3002705683997
148,591.4513790195466
149,591.6108910297588
150,591.7721990900902
151,591.9284297243876
152,592.0729368022725
153,592.199817200014
154,592.304374135604
155,592.3834633140406
156,592.4356924146202
157,592.4614863723951
158,592.4630551502562
159,592.4442915937675
160,592.4105872513885
161,592.3685129150387
162,592.3253128246872
163,592.2882240141365
164,592.2637163597741
165,592.2567967739319
166,592.2705111080116
167,592.3057275635947
168,592.3612223666128
169,592.4340305443664
170,592.5199802697564
171,592.6143014498954
172,592.712195475121
173,592.8092831830193
174,592.9019054281374
175,592.9873048568676
176,593.0637369891232
177,593.1305385810653
178,593.1881458753079
179,593.2380339552626
180,593.2825514505977
181,593.32464479172
182,593.367492115099
183,593.4140924128856
184,593.4668772039408
185,593.5274207530495
186,593.5963044636044
187,593.673139836035
188,593.7567030040694
189,593.8451211034966
190,593.9360790436602
191,594.0270458803939
192,594.1155195427884
193,594.199266549943
194,594.2765214424893
195,594.3461221231473
196,594.4075794835976
197,594.4610946347672
198,594.5075370194874
199,594.5483845528148
200,594.5856102054231
201,594.6214864247071
202,594.6582795774868
203,594.6978339836453
204,594.7411021213659
205,594.7877387587813
206,594.83589910988
207,594.8823440880384
208,594.9228754345522
209,594.9530277379549
210,594.9688603388711
211,594.9676547687554
212,594.9483592001125
213,594.9117156717157
214,594.8601032517604
215,594.7971784647704
216,594.7273903164182
217,594.6554305703514
218,594.5856767333574
219,594.5216871322622
220,594.4658059337518
221,594.4189354057783
222,594.3805260199782
223,594.3488036658398
224,594.3211984502054
225,594.2948896781802
226,594.267362019224
227,594.2368755473458
228,594.202769731324
229,594.1655451599091
230,594.1267070399931
231,594.0884101292954
232,594.0529946854956
233,594.0225242314953
234,593.9984185793886
235,593.9812252343972
236,593.9705151191838
237,593.9648614726203
238,593.9618750434167
239,593.95829811829
240,593.9501766316394
241,593.933128400619
242,593.9027104209616
243,593.8548638808236
244,593.7863948130309
245,593.6954415026141
246,593.5818774699217
247,593.4475867012463
248,593.2965351478961
249,593.1345756357579
250,592.9689719212971
251,592.807694460061
252,592.6586004892927
253,592.5286421644524
254,592.4232301266003
255,592.3458182226055
256,592.2977035842248
257,592.2779975282956
258,592.2837295667281
259,592.3100767099194
260,592.3507284635234
261,592.3983843604116
262,592.4453449921692
263,592.4841285246799
264,592.5080424109517
265,592.5116600243326
266,592.4911773057053
267,592.4446407804392
268,592.3720425676875
269,592.2752808025955
270,592.1579943870145
271,592.0252949499898
272,591.8834278517545
273,591.7393928850704
274,591.6005418542646
275,591.4741525039891
276,591.3669720542831
277,591.2847335685275
278,591.2316679779367
279,591.2100617511041
280,591.2199414097139
281,591.2589798578902
282,591.3226903802174
283,591.4049066131421
284,591.4984758485633
285,591.5960479958497
286,591.6908296285709
287,591.777190647315
288,591.8510569776331
289,591.9100803152073
290,591.9536210593482
291,591.9825976490205
292,591.9992435499523
293,592.0067850122693
294,592.0090345008887
295,592.009909164219
296,592.0129230111099
297,592.0207305080717
298,592.0347932263612
299,592.0552084826417
300,592.0807063997395
301,592.1088048870752
302,592.1361041354863
303,592.1586916727889
304,592.1726172247526
305,592.1743906148191
306,592.1614505825833
307,592.1325384923284
308,592.0879012125395
309,592.0292707333738
310,591.9596275652273
311,591.8828147772039
312,591.8030946913541
313,591.7247306200142
314,591.6516519978445
315,591.587234807827
316,591.5341978840247
317,591.4945781644267
318,591.469722800215
319,591.460251480623
320,591.4659952962935
321,591.4859641382374
322,591.5183947742721
323,591.560895213608
324,591.6106646590345
325,591.6647541621686
326,591.7203349160098
327,591.774943939053
328,591.8266765708299
329,591.8742992486916
330,591.9172687595906
331,591.955657029441
332,591.9899864549924
333,592.0209895718292
334,592.0493286847376
335,592.0753330211471
336,592.0988096142864
337,592.1189571604274
338,592.1343813045539
339,592.1431940242094
340,592.1431770831294
341,592.1319893302186
342,592.1073987557937
343,592.0675274357815
344,592.0111082428182
345,591.9377558317628
346,591.8482402593817
347,591.7447205145114
348,591.6308679921959
349,591.5118102638064
350,591.3938531284059
351,591.283978897681
352,591.189164917169
353,591.1156118892687
354,591.0679992937311
355,591.0488849251273
356,591.0583432084286
357,591.0939014501345
358,591.150790600377
359,591.222484068821
360,591.3014597050113
361,591.3800856495355
362,591.4515005871426
363,591.5103454449882
364,591.5532247823819
365,591.5788345587629
366,591.5877703092038
367,591.5820970753058
368,591.5647936724037
369,591.5391748416565
370,591.5083690893407
371,591.4749131319999
372,591.4405153821556
373,591.4060203172132
374,591.3715647318699
375,591.3368745777608
376,591.3016273020938
377,591.2657965597324
378,591.2298952215173
379,591.1950473375294
380,591.1628635659694
381,591.1351586734799
382,591.1136033538805
383,591.0994205639306
384,591.0932177023337
385,591.0950043044497
386,591.1043922237201
387,591.1209212274041
388,591.1444138437801
389,591.1752539961475
390,591.2145054303065
391,591.263829450666
392,591.3252150180708
393,591.4005811690308
394,591.4913346506926
395,591.5979591148105
396,591.7196912698414
397,591.8543285304718
398,591.998216668236
399,592.1464602261566
400,592.2933603531751
401,592.4330253696677
402,592.5600524439667
403,592.670164606427
404,592.7607016015088
405,592.8308938721864
406,592.88188866952
407,592.9165387196407
408,592.9389973324664
409,592.9541832197826
410,592.967187388639
411,592.9826997673481
412,593.0045304953167
413,593.0352799160202
414,593.0761768876747
415,593.1270785646058
416,593.1866172309699
417,593.2524742487394
418,593.3217381364926
419,593.3912743621628
420,593.4580309337813
421,593.5192409481215
422,593.5725411797041
423,593.6160671370412
424,593.6485824152569
425,593.6696565793693
426,593.6798516391269
427,593.6808452714347
428,593.6754223715093
429,593.6672960783623
430,593.6607578142256
431,593.6601941133232
432,593.6695442627481
433,593.6917981871972
434,593.7286332802369
435,593.7802552112123
436,593.8454513228428
437,593.9218107031264
438,594.0060370722882
439,594.09428632558
440,594.1824892600557
441,594.2666539262333
442,594.34315816388
443,594.4090243485645
444,594.4621324192175
445,594.501318319889
446,594.5263406199539
447,594.5377461762264
448,594.5366880395517
449,594.5247402592297
450,594.5037323552863
451,594.4756070286874
452,594.4422956359562
453,594.4056085316737
454,594.3671473039508
455,594.3282522182047
456,594.2899900066108
457,594.2531673497306
458,594.2183435692829
459,594.185829389049
460,594.1556867247006
461,594.1277551119156
462,594.1017099988003
463,594.0771295636767
464,594.0535362519398
465,594.0303910584047
466,594.0070483985978
467,593.9827174269655
468,593.9564936167002
469,593.9274978499151
470,593.8951028362967
471,593.8591768500006
472,593.820259010425
473,593.7796018839875
474,593.7390625453227
475,593.7008696388962
476,593.6673226134495
477,593.6404854952498
478,593.6219249359108
479,593.6125156474216
480,593.6123082970922
481,593.6204456958598
482,593.6351281457472
483,593.6536464247716
484,593.672499089679
485,593.6875966371623
486,593.694548298394
487,593.6890250173727
488,593.6671739563184
489,593.6260254735685
490,593.5638143381723
491,593.4801585912834
492,593.3760864473288
493,593.2539357283623
494,593.1171559266949
495,592.9700365136797
496,592.8173847120969
497,592.664182086027
498,592.515254539058
499,592.3749871877571
500,592.2470977497463
501,592.1344574904257
502,592.0389385316678
503,591.9612763124153
504,591.9009529538375
505,591.8561255548167
506,591.8236446838265
507,591.7992208179287
508,591.7777812760226
509,591.7540120636669
510,591.7230148908932
511,591.6809627207998
512,591.6256324878096
513,591.5567237567474
514,591.4759130911608
515,591.3866383161707
516,591.2936581540561
517,591.2024761944932
518,591.1187291367498
519,591.0476183174933
520,590.9934357831539
521,590.9592160164226
522,590.9465270562904
523,590.9553978170454
524,590.984367243458
525,591.0306378533727
526,591.0903205990664
527,591.1587666916907
528,591.2309838926622
529,591.3021176587987
530,591.3679443060054
531,591.4252938963745
532,591.4723161117133
533,591.5085298464405
534,591.5346483725496
535,591.5522308650375
536,591.5632579029577
537,591.5697439539302
538,591.5734760336115
539,591.5759157567072
540,591.5782473335913
541,591.5815202758846
542,591.5868261238653
543,591.5954496187029
544,591.6089391843446
545,591.629056396816
546,591.6575928512531
547,591.6960782169004
548,591.7454373123182
549,591.8056800646713
550,591.8757159836634
551,591.9533635498326
552,592.0355732684733
553,592.1188166679553
554,592.1995399442498
555,592.2745637658003
556,592.3413371323918
557,592.3980110502986
558,592.4433604095134
559,592.4766247213327
560,592.4973529402604
561,592.5053309670392
562,592.500645865441
563,592.4838934052585
564,592.4564702458231
565,592.4208392049436
566,592.3806494465853
567,592.3406350423336
568,592.306278724463
569,592.2832862188644
570,592.2769553928434
571,592.2915394413249
572,592.3296991133519
573,592.3921220021558
574,592.4773611136919
575,592.5819149676619
576,592.7005433495726
577,592.8267862530798
578,592.9536231122984
579,593.074181671705
580,593.1823984341037
581,593.2735483677454
582,593.3445853891825
583,593.3942576650951
584,593.422987174347
585,593.4325387050112
586,593.4255483172761
587,593.4050187886289
588,593.3738983182124
589,593.3348323802484
590,593.2901283522561
591,593.2419126884674
592,593.192401899266
593,593.1441671923124
594,593.1002686775153
595,593.0641769175469
596,593.0394722220915
597,593.0293856974014
598,593.0362952753379
599,593.0613025691231
600,593.1039907800308
601,593.1624093614695
602,593.2332697646938
603,593.312293428447
604,593.394639729829
605,593.475350549629
606,593.5497680421408
607,593.6139097641532
608,593.6648127444525
609,593.7008628502174
610,593.7220921428344
611,593.730373218907
612,593.7294102895928
613,593.7244523344341
614,593.7217220032385
615,593.7276281628617
616,593.7478864147203
617,593.7867025672791
618,593.846165704198
619,593.9259435397497
620,594.0232974865343
621,594.1333744637828
622,594.2496993005597
623,594.3647757102846
624,594.470699068567
625,594.5596981410292
626,594.6245636088585
627,594.6589802426055
628,594.6578278760612
629,594.6175192913214
630,594.5363876282662
631,594.4150500787188
632,594.2566158664698
633,594.0666201761667
634,593.8526479173186
635,593.6237099482385
636,593.389492590352
637,593.1596023807953
638,592.9428961865815
639,592.7469521895972
640,592.5777113388139
641,592.4392952110625
642,592.3339779036079
643,592.262264225551
644,592.2230189712038
645,592.2136078567545
646,592.2300430737547
647,592.2671621168763
648,592.3188904810253
649,592.3786307078955
650,592.439776868303
651,592.4962903498102
652,592.5432237131065
653,592.5770762412477
654,592.5959112999029
655,592.5992342468239
656,592.587687942395
657,592.5626557457715
658,592.5258672464497
659,592.4790818655258
660,592.4238888997658
661,592.3616257639119
662,592.2933931413745
663,592.2201418693427
664,592.1428133066987
665,592.0625120057442
666,591.9806679090798
667,591.8991273466022
668,591.8201260643731
669,591.7461390483912
670,591.6796411686631
671,591.6228319565605
672,591.5773799741892
673,591.5442309188312
674,591.5235001489174
675,591.5144448172889
676,591.5154985894832
677,591.5243581206689
678,591.5381229057897
679,591.5534908247064
680,591.5669967247691
681,591.5752654643127
682,591.5752499651187
683,591.5644370398893
684,591.5410135639382
685,591.5039871419968
686,591.4532563659052
687,591.389626102935
688,591.3147555008027
689,591.2310175503176
690,591.1412564999026
691,591.048455791626
692,590.9553622317144
693,590.8641429705668
694,590.776171337775
695,590.6920242626525
696,590.6117140651352
697,590.5350908540507
698,590.4622824415196
699,590.394023990493
700,590.3317769727527
701,590.2776153338997
702,590.2339206877142
703,590.2029602223848
704,590.1864353252258
705,590.1850967261568
706,590.1985128825506
707,590.2250431398627
708,590.2620193478067
709,590.3061004533891
710,590.3537385968225
711,590.4016790506614
712,590.4474169218976
713,590.4895516828101
714,590.5279987166216
715,590.5640266555985
716,590.6001037293647
717,590.6395634395102
718,590.6861302156778
719,590.7433720069686
720,590.8141669705436
721,590.9002740997946
722,591.0020723621282
723,591.1184912858854
724,591.2471183431138
725,591.3844409702594
726,591.5261647016038
727,591.6675535386838
728,591.803766402025
729,591.93019258284
730,592.0427949006805
731,592.1384539574392
732,592.215291066819
733,592.2729371279909
734,592.3126996934772
735,592.3375666494006
736,592.3519975862307
737,592.3614993036302
738,592.3720346910329
739,592.389350870917
740,592.4183287264751
741,592.4624522261596
742,592.5234709951778
743,592.6012863175602
744,592.6940409445092
745,592.7983589700056
746,592.909679586655
747,593.022646843296
748,593.1315344015186
749,593.230691037747
750,593.314987246715
751,593.3802249634135
752,593.4234554987726
753,593.4431559256044
754,593.4392401782198
755,593.412910711567
756,593.3663839874359
757,593.3025512172751
758,593.2246546169955
759,593.1360510013782
760,593.0400975133846
761,592.9401466786693
762,592.839597448246
763,592.741926091205
764,592.6506260999016
765,592.5690233983441
766,592.4999893872283
767,592.4456251429629
768,592.4070110890939
769,592.384098367949
770,592.3757733025273
771,592.3800746929584
772,592.3945013873048
773,592.4163333107975
774,592.4429151744423
775,592.4718977218387
776,592.5014510534153
777,592.5304372338053
778,592.5584886008465
779,592.5859398115309
780,592.6136186346016
781,592.6425625991379
782,592.6737390196362
783,592.7078049404655
784,592.744900758656
785,592.7844661864858
786,592.8250943595586
787,592.8644686634947
788,592.899438670819
789,592.9262857682097
790,592.9411995626427
791,592.9409205802114
792,592.9234206611035
793,592.8884462193926
794,592.8377814084895
795,592.7751764118543
796,592.705974194684
797,592.6365210536887
798,592.573463044392
799,592.5230272552963
800,592.4903717652644
801,592.479066215524
802,592.490748160064
803,592.5249913850739
804,592.5794052238192
805,592.6499500175719
806,592.7314206357514
807,592.8180360767515
808,592.9040712243853
809,592.9844578722991
810,593.0552682400852
811,593.1139985026855
812,593.1596059093341
813,593.1923075797548
814,593.2131968649353
815,593.2237610428037
816,593.2253943977305
817,593.2189984336624
818,593.2047464360606
819,593.1820601185767
820,593.1498032333974
821,593.1066525928235
822,593.0515720062727
823,592.984288962751
824,592.9056616204368
825,592.8178418403643
826,592.7241939298377
827,592.6289948590718
828,592.5369837408026
829,592.4528284600666
830,592.3805573728944
831,592.3230054808156
832,592.2813558569138
833,592.2548810449383
834,592.2409688627578
835,592.2354520156022
836,592.233180719243
837,592.2287213890077
838,592.2170557484809
839,592.1941808101731
840,592.1575420389377
841,592.1062608648084
842,592.0411484252791
843,591.9645239410386
844,591.8798747475004
845,591.7914165467638
846,591.7036359185876
847,591.6209011428028
848,591.5472007789037
849,591.4860219172624
850,591.4403274727016
851,591.4125563235574
852,591.4045744189838
853,591.4175462586747
854,591.4517430995049
855,591.5063326490445
856,591.5792086955963
857,591.6669299382803
858,591.7648398025752
859,591.8674152642388
860,591.968835466692
861,592.0636858115906
862,592.1476513048916
863,592.2180337782688
864,592.2739628304004
865,592.316249308846
866,592.3469283624695
867,592.3686255053595
868,592.3839216039279
869,592.3948742945133
870,592.4027879933218
871,592.4082457553492
872,592.4113498007098
873,592.4120755293305
874,592.4106325617009
875,592.4077422892848
876,592.4047679881594
877,592.4036593368554
878,592.4067050697173
879,592.4161335999738
880,592.4336517339028
881,592.4600427654638
882,592.4949363749814
883,592.5368101133308
884,592.583208287076
885,592.6311038024148
886,592.6773036775111
887,592.7188122086628
888,592.7531070040071
889,592.7783272553879
890,592.793393102497
891,592.7980685494626
892,592.7929720602231
893,592.779542019495
894,592.7599676140167
895,592.7370880303027
896,592.7142483960878
897,592.6950886416424
898,592.683240191951
899,592.6819280878191
900,592.6935262782163
901,592.7191663301923
902,592.7585133536315
903,592.8097799946981
904,592.8699769823482
905,592.9353388719244
906,593.0018327046129
907,593.0656496255983
908,593.1235909838985
909,593.1732904992382
910,593.2132601123227
911,593.2428020450991
912,593.2618723215105
913,593.2709792421308
914,593.2711443326091
915,593.2638817469614
916,593.2511200199957
917,593.2350136713311
