frame_number,force
0,616.3172000059039
1,616.3187658122182
2,616.3202876137204
3,616.3217220467131
4,616.3230270158067
5,616.3241622944773
6,616.3250900886334
7,616.3257755556002
8,616.3261872730868
9,616.3262976536104
10,616.3260833001533
11,616.3255252997417
12,616.3246094536053
13,616.3233264449193
14,616.3216719469425
15,616.319646675251
16,616.3172563875646
17,616.314511833338
18,616.3114286533299
19,616.3080272278438
20,616.3043324720489
21,616.3003735777872
22,616.2961837028724
23,616.2917996103383
24,616.2872612609455
25,616.2826113628015
26,616.277894882836
27,616.2731585263601
28,616.2684501926054
29,616.2638184152346
30,616.259311796791
31,616.2549784449214
32,616.250865416776
33,616.2470181771325
34,616.2434800754652
35,616.2402918466908
36,616.23749113956
37,616.2351120763487
38,616.2331848481111
39,616.2317353507864
40,616.2307848680463
41,616.2303498067105
42,616.2304414902
43,616.2310660150144
44,616.2322241743325
45,616.233911451535
46,616.2361180851592
47,616.2388292055809
48,616.2420250420803
49,616.2456811965429
50,616.2497689774065
51,616.2542557854499
52,616.2591055422469
53,616.2642791524604
54,616.2697349918986
55,616.2754294134876
56,616.2813172628339
57,616.2873523943607
58,616.2934881786878
59,616.2996779920912
60,616.3058756794278
61,616.3120359829954
62,616.3181149316817
63,616.3240701872526
64,616.3298613471502
65,616.3354502053251
66,616.3408009744819
67,616.3458804746017
68,616.3506582931033
69,616.3551069211599
70,616.3592018689851
71,616.3629217612835
72,616.3662484131232
73,616.36916688615
74,616.3716655248365
75,616.373735972068
76,616.3753731631398
77,616.3765752976982
78,616.3773437902937
79,616.3776832016858
80,616.3776011543514
81,616.3771082365031
82,616.376217899247
83,616.3749463511639
84,616.3733124534428
85,616.3713376170031
86,616.3690457015039
87,616.3664629149146
88,616.3636177110301
89,616.3605406811517
90,616.357264435969
91,616.3538234748517
92,616.3502540414594
93,616.3465939657532
94,616.342882492943
95,616.339160100057
96,616.3354683009544
97,616.331849440666
98,616.3283464798542
99,616.3250027698291
100,616.321861818152
101,616.3189670449609
102,616.3163615312684
103,616.3140877621906
104,616.3121873692161
105,616.3107008754914
106,616.3096674471141
107,616.3091246524295
108,616.309108230628
109,616.3096518703538
110,616.3107869986989
111,616.3125425810541
112,616.3149449326936
113,616.3180175433406
114,616.3217809162799
115,616.3262524238554
116,616.3314461812831
117,616.3373729404022
118,616.3440400041852
119,616.3514511614843
120,616.3596066399149
121,616.3685030736216
122,616.378133482484
123,616.3884872599333
124,616.3995501673601
125,616.4113043339169
126,616.4237282616542
127,616.4367968374132
128,616.4504813540524
129,616.4647495439212
130,616.4795656273473
131,616.4948903788728
132,616.5106812140554
133,616.5268922992033
134,616.5434746850863
135,616.5603764639229
136,616.5775429478745
137,616.5949168675088
138,616.612438589903
139,616.6300463573167
140,616.6476765480223
141,616.6652639608694
142,616.6827421250405
143,616.700043636855
144,616.7171005265013
145,616.7338446586665
146,616.7502081713963
147,616.7661239566575
148,616.78152618387
149,616.7963508643809
150,616.8105364510079
151,616.8240244631281
152,616.8367601248015
153,616.8486930012042
154,616.8597776174234
155,616.8699740440793
156,616.8792484366014
157,616.8875735183254
158,616.894929000098
159,616.901301929697
160,616.9066869636836
161,616.9110865537612
162,616.9145110402085
163,616.916978646382
164,616.9185153700032
165,616.9191547684304
166,616.9189376362558
167,616.9179115747286
168,616.9161304544652
169,616.9136537763727
170,616.9105459403858
171,616.9068754361682
172,616.9027139731636
173,616.898135569073
174,616.8932156162937
175,616.8880299453717
176,616.8826539033971
177,616.877161463517
178,616.8716243792608
179,616.8661113945689
180,616.8606875181727
181,616.8554133694383
182,616.8503446012977
183,616.8455314040033
184,616.8410180915389
185,616.8368427712563
186,616.8330370969903
187,616.8296261060851
188,616.8266281404582
189,616.8240548502479
190,616.8219112759239
191,616.8201960021318
192,616.8189013751247
193,616.8180137755195
194,616.817513938707
195,616.8173773160171
196,616.8175744703526
197,616.818071500112
198,616.8188304846409
199,616.8198099435572
200,616.8209653018567
201,616.8222493533661
202,616.8236127167951
203,616.8250042805805
204,616.8263716340463
205,616.8276614828242
206,616.8288200464087
207,616.8297934357876
208,616.8305280096876
209,616.8309707089792
210,616.8310693697799
211,616.8307730165055
212,616.8300321364641
213,616.8287989377518
214,616.8270275926279
215,616.8246744696127
216,616.8216983589303
217,616.8180606965827
218,616.8137257915695
219,616.8086610587975
220,616.8028372578157
221,616.7962287353528
222,616.7888136681922
223,616.7805743024861
224,616.7714971860634
225,616.7615733910567
226,616.7507987247343
227,616.7391739266533
228,616.7267048501307
229,616.7134026253447
230,616.6992838001775
231,616.6843704538421
232,616.668690278
233,616.65227662041
234,616.6351684868739
235,616.6174104983731
236,616.5990528017502
237,616.5801509335612
238,616.5607656375112
239,616.5409626364986
240,616.5208123611663
241,616.5003896378406
242,616.4797733393689
243,616.4590460024768
244,616.4382934152616
245,616.4176041786702
246,616.3970692461049
247,616.376781445331
248,616.3568349865814
249,616.3373249601291
250,616.3183468255669
251,616.2999958938805
252,616.2823668027138
253,616.265552985388
254,616.2496461350601
255,616.2347356665431
256,616.2209081796158
257,616.2082469288584
258,616.1968313055773
259,616.1867363368525
260,616.1780322055888
261,616.1707837946251
262,616.1650502580499
263,616.1608846235724
264,616.1583334300886
265,616.1574364037469
266,616.1582261742127
267,616.1607280314239
268,616.1649597226611
269,616.1709312901262
270,616.1786449496827
271,616.1880950112145
272,616.1992678402912
273,616.2121418602745
274,616.2266875942101
275,616.2428677465352
276,616.2606373249889
277,616.2799438028395
278,616.3007273211429
279,616.3229209306527
280,616.3464508728594
281,616.3712368988672
282,616.3971926236242
283,616.4242259120156
284,616.4522392927094
285,616.4811303952613
286,616.5107924059314
287,616.5411145380917
288,616.5719825137761
289,616.6032790533997
290,616.6348843709088
291,616.6666766718848
292,616.6985326526079
293,616.7303279987003
294,616.7619378824738
295,616.7932374583819
296,616.8241023561086
297,616.8544091709862
298,616.8840359517441
299,616.9128626861221
300,616.9407717853396
301,616.9676485682411
302,616.9933817447854
303,617.017863896609
304,617.0409919501901
305,617.0626676362386
306,617.082797927917
307,617.1012954506596
308,617.1180788574475
309,617.1330731648342
310,617.1462100464738
311,617.1574280824675
312,617.1666729645688
313,617.1738976586106
314,617.179062525732
315,617.1821354033158
316,617.1830916461844
317,617.1819141293881
318,617.1785932155229
319,617.1731266908843
320,617.1655196751773
321,617.1557845090695
322,617.143940623321
323,617.1300143930182
324,617.1140389801368
325,617.0960541666211
326,617.0761061784325
327,617.0542474992899
328,617.0305366715421
329,617.0050380804975
330,616.9778217172054
331,616.9489629133558
332,616.9185420413361
333,616.8866441731894
334,616.8533586944287
335,616.8187788717664
336,616.7830013767114
337,616.7461257690276
338,616.7082539454476
339,616.6694895601084
340,616.6299374238199
341,616.5897028892844
342,616.5488912288922
343,616.5076070111234
344,616.4659534813287
345,616.424031953014
346,616.3819412166566
347,616.3397769741156
348,616.2976313072604
349,616.2555921890889
350,616.2137430443131
351,616.1721623647592
352,616.1309233838115
353,616.0900938136671
354,616.0497356485018
355,616.0099050349411
356,615.9706522086992
357,615.9320214940161
358,615.8940513614824
359,615.8567745399614
360,615.8202181786688
361,615.7844040551429
362,615.7493488237697
363,615.7150642985605
364,615.6815577640322
365,615.6488323095426
366,615.616887184422
367,615.5857181725056
368,615.5553179846537
369,615.5256766668064
370,615.4967820197894
371,615.4686200261397
372,615.4411752790702
373,615.4144314093853
374,615.3883715072747
375,615.3629785368325
376,615.3382357413107
377,615.314127036174
378,615.2906373851831
379,615.267753152837
380,615.2454624255869
381,615.223755294674
382,615.2026240950485
383,615.1820635970835
384,615.1620711503091
385,615.1426467808874
386,615.1237932466375
387,615.105516054379
388,615.0878234437787
389,615.070726340425
390,615.0542382797728
391,615.0383753034761
392,615.0231558299275
393,615.0086005009791
394,614.9947320066719
395,614.9815748893159
396,614.9691553273533
397,614.9575008982811
398,614.9466403189293
399,614.9366031609455
400,614.9274195394555
401,614.9191197735103
402,614.911734017932
403,614.9052918672785
404,614.8998219337043
405,614.8953514016686
406,614.8919055638243
407,614.8895073438509
408,614.8881768134165
409,614.88793071195
410,614.8887819792141
411,614.8907393111512
412,614.8938067489486
413,614.8979833102356
414,614.9032626703319
415,614.9096329003104
416,614.9170762669279
417,614.9255690973617
418,614.9350817098815
419,614.9455784105616
420,614.9570175559301
421,614.9693516816162
422,614.9825276969663
423,614.996487145031
424,615.0111665265697
425,615.0264976858026
426,615.0424082541364
427,615.0588221459799
428,615.0756600988957
429,615.092840249506
430,615.1102787366361
431,615.1278903231724
432,615.1455890273219
433,615.1632887526822
434,615.1809039058534
435,615.1983499910491
436,615.2155441731486
437,615.2324058029853
438,615.2488569004486
439,615.2648225918375
440,615.2802314984173
441,615.2950160742047
442,615.3091128929684
443,615.3224628866715
444,615.3350115392427
445,615.3467090400659
446,615.3575104008902
447,615.3673755385946
448,615.3762693254025
449,615.3841616085213
450,615.3910272025767
451,615.3968458594827
452,615.4016022205132
453,615.4052857543722
454,615.407890683911
455,615.4094159034904
456,615.4098648886929
457,615.4092455994835
458,615.4075703767763
459,615.4048558311505
460,615.4011227218552
461,615.3963958244289
462,615.3907037857833
463,615.3840789661327
464,615.3765572677171
465,615.3681779509191
466,615.3589834387429
467,615.3490191104295
468,615.3383330844812
469,615.3269759911504
470,615.3150007346823
471,615.3024622459315
472,615.2894172260607
473,615.2759238819092
474,615.2620416535135
475,615.2478309344062
476,615.2333527858243
477,615.2186686465484
478,615.2038400402025
479,615.1889282813137
480,615.1739941809481
481,615.159097753038
482,615.1442979234674
483,615.129652244827
484,615.1152166201579
485,615.1010450392108
486,615.0871893309168
487,615.0736989357032
488,615.0606207009516
489,615.0479987023314
490,615.0358740928006
491,615.0242849796858
492,615.0132663290196
493,615.0028498957553
494,614.9930641783842
495,614.9839343964156
496,614.9754824891658
497,614.9677271344307
498,614.9606837856231
499,614.9543647257701
500,614.9487791366108
501,614.9439331809075
502,614.9398300957862
503,614.9364702945699
504,614.9338514746382
505,614.9319687295668
506,614.9308146647661
507,614.9303795164159
508,614.9306512735037
509,614.9316158025397
510,614.9332569743549
511,614.935556792458
512,614.9384955229799
513,614.9420518275422
514,614.9462029021668
515,614.9509246267696
516,614.9561917300899
517,614.9619779739181
518,614.968256358683
519,614.9749993506504
520,614.9821791295668
521,614.9897678544012
522,614.9977379437619
523,615.0060623668279
524,615.0147149402424
525,615.0236706260204
526,615.0329058249546
527,615.0423986595295
528,615.0521292401304
529,615.0620799080913
530,615.0722354489413
531,615.0825832698305
532,615.0931135369825
533,615.103819271403
534,615.1146964026672
535,615.1257437811936
536,615.1369631500638
537,615.1483590789405
538,615.1599388641124
539,615.1717123986202
540,615.1836920146438
541,615.1958922983918
542,615.2083298772291
543,615.2210231799722
544,615.2339921732172
545,615.2472580781299
546,615.2608430728418
547,615.2747699856678
548,615.2890619841603
549,615.3037422645575
550,615.3188337453252
551,615.3343587672708
552,615.3503388013207
553,615.3667941635981
554,615.3837437362912
555,615.4012046926861
556,615.4191922258955
557,615.4377192823638
558,615.4567963019684
559,615.4764309661532
560,615.4966279546577
561,615.5173887109153
562,615.5387112163983
563,615.5605897747218
564,615.5830148067798
565,615.6059726587365
566,615.6294454257588
567,615.6534107957657
568,615.6778419185699
569,615.7027073063712
570,615.7279707720838
571,615.753591412822
572,615.779523646648
573,615.8057173106512
574,615.8321178271941
575,615.8586664430742
576,615.885300544008
577,615.9119540445537
578,615.9385578511325
579,615.9650403933117
580,615.9913282166058
581,616.017346629115
582,616.0430203937193
583,616.0682744564327
584,616.0930346999437
585,616.1172287100993
586,616.1407865425523
587,616.1636414767809
588,616.1857307449162
589,616.2069962232052
590,616.227385074513
591,616.2468503310055
592,616.2653514069776
593,616.2828545326652
594,616.2993331011105
595,616.3147679221722
596,616.3291473804671
597,616.3424674966143
598,616.3547318929323
599,616.3659516657561
600,616.376145167212
601,616.3853376999812
602,616.3935611294146
603,616.4008534182595
604,616.4072580903421
605,616.4128236311221
606,616.4176028352931
607,616.4216521141495
608,616.4250307772425
609,616.4278003030125
610,616.4300236117285
611,616.4317643519418
612,616.4330862095806
613,616.4340522470776
614,616.4347242784755
615,616.4351622851344
616,616.4354238754428
617,616.4355637909241
618,616.4356334603093
619,616.4356806022873
620,616.4357488766236
621,616.4358775823504
622,616.4361014011247
623,616.4364501837234
624,616.4369487779697
625,616.4376168972453
626,616.4384690300864
627,616.4395143926062
628,616.4407569258686
629,616.4421953396578
630,616.4438232028903
631,616.4456290798786
632,616.4475967109809
633,616.4497052355134
634,616.4519294537641
635,616.4542401235743
636,616.4566042857371
637,616.4589856119251
638,616.4613447692653
639,616.463639796911
640,616.4658264917963
641,616.4678588029731
642,616.4696892359732
643,616.4712692694609
644,616.4725497854774
645,616.4734815127288
646,616.4740154812523
647,616.4741034870065
648,616.4736985654206
649,616.4727554725024
650,616.4712311709677
651,616.4690853182874
652,616.4662807536951
653,616.462783980629
654,616.4585656387051
655,616.4536009559263
656,616.447870169016
657,616.4413588984877
658,616.4340584655425
659,616.4259661399426
660,616.4170853109556
661,616.407425576584
662,616.3970027493043
663,616.3858387794148
664,616.3739615995097
665,616.3614048952278
666,616.3482078082938
667,616.3344145781812
668,616.3200741286063
669,616.3052396047809
670,616.2899678675957
671,616.2743189521499
672,616.2583554998112
673,616.2421421741539
674,616.2257450711023
675,616.2092311327532
676,616.1926675733168
677,616.1761213246824
678,616.1596585082508
679,616.1433439387803
680,616.1272406648797
681,616.1114095494864
682,616.0959088924234
683,616.0807940962386
684,616.0661173761022
685,616.0519275144795
686,616.0382696613186
687,616.0251851802034
688,616.0127115401988
689,616.0008822522254
690,615.9897268480836
691,615.9792708999569
692,615.9695360784793
693,615.9605402481714
694,615.9522975996271
695,615.9448188173636
696,615.9381112804066
697,615.9321792901366
698,615.9270243177154
699,615.9226452622219
700,615.9190387105311
701,615.9161991905894
702,615.9141194107724
703,615.9127904794194
704,615.9122021002493
705,615.9123427410808
706,615.9131997754308
707,615.9147595992199
708,615.9170077270683
709,615.9199288734821
710,615.9235070237805
711,615.9277254990641
712,615.9325670196392
713,615.9380137715569
714,615.9440474802302
715,615.9506494932322
716,615.9578008721733
717,615.9654824919018
718,615.9736751445496
719,615.9823596461968
720,615.9915169446876
721,616.0011282274901
722,616.0111750279078
723,616.0216393268972
724,616.032503647115
725,616.0437511361939
726,616.0553656374235
727,616.067331747398
728,616.0796348612217
729,616.0922612061895
730,616.1051978644889
731,616.1184327848857
732,616.1319547832288
733,616.1457535321065
734,616.1598195405983
735,616.1741441251114
736,616.1887193716533
737,616.2035380892644
738,616.2185937545432
739,616.2338804483456
740,616.2493927871137
741,616.2651258519952
742,616.2810751185244
743,616.2972363884139
744,616.3136057235627
745,616.3301793812893
746,616.3469537493831
747,616.3639252799496
748,616.381090422073
749,616.3984455544341
750,616.4159869195505
751,616.4337105610299
752,616.4516122645331
753,616.4696875026614
754,616.4879313842038
755,616.5063386090874
756,616.52490343141
757,616.5436196334376
758,616.562480513148
759,616.5814788869391
760,616.6006071079693
761,616.6198570996784
762,616.6392204033326
763,616.6586882376308
764,616.6782515674167
765,616.6979011777709
766,616.7176277496457
767,616.7374219336139
768,616.7572744184982
769,616.7771759912285
770,616.79711758374
771,616.8170903031023
772,616.8370854426074
773,616.857094473478
774,616.8771090182903
775,616.8971208080417
776,616.9171216253272
777,616.9371032364008
778,616.9570573149202
779,616.9769753598367
780,616.9968486090061
781,617.0166679486299
782,617.0364238171104
783,617.0561061011307
784,617.0757040221862
785,617.095206013153
786,617.1145995860144
787,617.1338711927621
788,617.1530060815787
789,617.1719881503313
790,617.1907997996533
791,617.2094217882644
792,617.2278330931548
793,617.2460107767453
794,617.2639298624989
795,617.2815632200669
796,617.2988814611173
797,617.3158528475246
798,617.3324432142751
799,617.3486159099444
800,617.364331758091
801,617.3795490438259
802,617.3942235310254
803,617.4083085163726
804,617.4217549261816
805,617.4345114610878
806,617.446524792657
807,617.45773981477
808,617.4680999510759
809,617.4775475180218
810,617.4860241412421
811,617.4934712213953
812,617.4998304436399
813,617.505044323001
814,617.5090567763405
815,617.5118137107512
816,617.5132636178105
817,617.5133581630944
818,617.5120527607171
819,617.5093071234851
820,617.5050857803026
821,617.4993585532675
822,617.492100987106
823,617.4832947234808
824,617.4729278130192
825,617.4609949591382
826,617.447497689592
827,617.4324444535703
828,617.4158506438414
829,617.3977385448479
830,617.3781372087368
831,617.3570822618723
832,617.3346156445845
833,617.3107852871855
834,617.2856447260308
835,617.2592526646815
836,617.2316724868523
837,617.2029717295136
838,617.1732215258278
839,617.1424960280833
840,617.1108718202489
841,617.0784273285055
842,617.0452422366743
843,617.0113969122651
844,616.9769718481957
845,616.9420471252806
846,616.9067019012458
847,616.871013932832
848,616.8350591380355
849,616.7989112055861
850,616.7626412583217
851,616.7263175757917
852,616.6900053790715
853,616.6537666781012
854,616.6176601799025
855,616.581741255067
856,616.5460619595569
857,616.5106711085582
858,616.4756143982105
859,616.4409345690632
860,616.4066716024242
861,616.3728629386271
862,616.3395437058475
863,616.306746949636
864,616.2745038557922
865,616.2428439612602
866,616.2117953487016
867,616.181384820545
868,616.1516380483343
869,616.1225796936861
870,616.0942334983547
871,616.0666223425236
872,616.0397682716965
873,616.0136924928224
874,615.9884153396953
875,615.9639562069058
876,615.9403334514045
877,615.917564261612
878,615.8956644959587
879,615.874648494988
880,615.854528872917
881,615.8353162956805
882,615.8170192531429
883,615.7996438334845
884,615.7831935079984
885,615.7676689346188
886,615.7530677879259
887,615.7393846218656
888,615.7266107696644
889,615.714734284367
890,615.703739923162
891,615.6936091784614
892,615.6843203580303
893,615.6758487156216
894,615.6681666329944
895,615.6612438536077
896,615.6550477671911
897,615.6495437428132
898,615.6446955064988
899,615.6404655581094
900,615.6368156208966
901,615.6337071155765
902,615.6311016490565
903,615.6289615065235
904,615.6272501348429
905,615.6259326050512
906,615.6249760420021
907,615.6243500100977
908,615.6240268456787
909,615.623981928917
910,615.6241938904515
911,615.6246447500534
912,615.6253199861671
913,615.6262085364723
914,615.6273027310069
915,615.6285981609749
916,615.6300934879927
