frame_number,force
0,736.6840800000641
1,736.4003983611966
2,736.1396456480016
3,735.922756932638
4,735.76697343942
5,735.6846497387428
6,735.6826588865357
7,735.7623668035408
8,735.9200647284758
9,736.1477224489184
10,736.4339466801642
11,736.7650614973268
12,737.1262414907898
13,737.5026277802241
14,737.8803574655141
15,738.2474361731649
16,738.5943759943609
17,738.9145224996571
18,739.2040253484794
19,739.461464859633
20,739.6872088302367
21,739.8826212427848
22,740.0492704182913
23,740.1882826048183
24,740.2999518694899
25,740.3836540800718
26,740.438041555336
27,740.4614373328017
28,740.4523157185918
29,740.4097520260306
30,740.3337510264627
31,740.2254171205934
32,740.0869869391087
33,739.9217708040801
34,739.7340292314836
35,739.52877480029
36,739.3114827879858
37,739.0877254835326
38,738.8627833285937
39,738.641298481711
40,738.4270219959966
41,738.2226848306341
42,738.030006705246
43,737.8498368768534
44,737.6823892147452
45,737.5275034651567
46,737.3848575529292
47,737.2540774483043
48,737.1347271007776
49,737.0261956254484
50,736.927526549513
51,736.8372504975151
52,736.7532807650962
53,736.6729120063255
54,736.5929382992408
55,736.5098841668135
56,736.4203157053232
57,736.3211703011672
58,736.2100282631723
59,736.0852640121775
60,735.9460561044999
61,735.7922824075018
62,735.6243568671408
63,735.443070649506
64,735.2494856392934
65,735.0448979769471
66,734.8308562489217
67,734.6091980824925
68,734.3820679374727
69,734.1518966882683
70,733.9213463483792
71,733.6932295834237
72,733.4703989761437
73,733.2555856190121
74,733.0511719915107
75,732.8589129885688
76,732.6796567336887
77,732.5131439162615
78,732.3579676499393
79,732.2117499596353
80,732.0715398198213
81,731.9343790992697
82,731.7979403256112
83,731.6611248308712
84,731.5245165744697
85,731.390606300646
86,731.2637285388496
87,731.14969325116
88,731.0551470413299
89,730.9867550115694
90,730.9503301374715
91,730.9500378859877
92,730.9877824805044
93,731.062861135246
94,731.1719527309774
95,731.3094652740566
96,731.4682000576843
97,731.6402302683766
98,731.8178624400159
99,731.9945452535263
100,732.1656001034868
101,732.3286741530262
102,732.4838612804991
103,732.6334880567794
104,732.7816063766332
105,732.9332666161417
106,733.0936694010632
107,733.2673125455073
108,733.4572539806993
109,733.6645908881331
110,733.8882128597158
111,734.1248411531583
112,734.3693365304978
113,734.6152483032595
114,734.8555700308191
115,735.0836415285416
116,735.2940893301729
117,735.4836486124701
118,735.6516892533142
119,735.800302985293
120,735.9339037811142
121,736.0584200077974
122,736.1802562862372
123,736.3052325079506
124,736.4376742889013
125,736.5797721969333
126,736.7312729428284
127,736.8895146380964
128,737.0497656943315
129,737.2057816497834
130,737.3504743317199
131,737.4766057713192
132,737.577463793038
133,737.6475110368574
134,737.6829949967384
135,737.6824697350909
136,737.6471404237999
137,737.5809259283391
138,737.4901566993177
139,737.3828902666106
140,737.2679212545714
141,737.1536496245068
142,737.0470107491816
143,736.9526527264567
144,736.8724842600589
145,736.8056302302083
146,736.7487458262408
147,736.6965860343904
148,736.6427247815609
149,736.5803502911615
150,736.5030919445451
151,736.4058349576472
152,736.2854546688828
153,736.1413728908025
154,735.9758312010171
155,735.7938034085398
156,735.6025237801167
157,735.4106743236825
158,735.2273407324747
159,735.0608962065099
160,734.9179883717893
161,734.8027807636576
162,734.7165450901012
163,734.657629579743
164,734.6217590179589
165,734.6025725386919
166,734.5922924033475
167,734.5824379259252
168,734.56452988313
169,734.5307523307349
170,734.4745467099308
171,734.3911110825079
172,734.2777740442585
173,734.1342177514783
174,733.9625349234666
175,733.7671125551798
176,733.5543438520399
177,733.3321864859103
178,733.1096037014386
179,732.89593504673
180,732.7002457279623
181,732.5307015644057
182,732.3940102875233
183,732.2949624000103
184,732.2361004753586
185,732.2175404340489
186,732.2369551831728
187,732.289714823349
188,732.3691683150442
189,732.4670492975569
190,732.5739890638508
191,732.680120593071
192,732.7757531286177
193,732.8520835050483
194,732.901899856593
195,732.9202328308318
196,732.9049043602483
197,732.8569047524503
198,732.7805125218943
199,732.6830825935183
200,732.5744797442657
201,732.4662180052477
202,732.3704456804134
203,732.2989416563826
204,732.2622509488742
205,732.2690198242778
206,732.3255339690841
207,732.4354394153272
208,732.599636272613
209,732.8163582336783
210,733.0814539663867
211,733.388855159784
212,733.7311696527499
213,734.1003127587534
214,734.4881007573806
215,734.8867580767146
216,735.2893103712795
217,735.6898533508925
218,736.0837153049839
219,736.4675561609431
220,736.8394376530651
221,737.198856790061
222,737.546696281111
223,737.8850483807919
224,738.2169108568817
225,738.5457983045887
226,738.8753258875818
227,739.2088071771349
228,739.5488905077872
229,739.8972604365355
230,740.2544444475557
231,740.6197625726264
232,740.9914261803243
233,741.3667493983661
234,741.7424109832706
235,742.1147095361989
236,742.4797822528008
237,742.8337861045759
238,743.1730555494672
239,743.4942529197069
240,743.7945219523714
241,744.0716414999954
242,744.3241562411387
243,744.5514432475763
244,744.7536688267312
245,744.9316066082079
246,745.0863286054076
247,745.218836027097
248,745.329733361405
249,745.4190339055417
250,745.4861233239618
251,745.5298472797695
252,745.5486693882807
253,745.5408629638717
254,745.5047247398463
255,745.438809867057
256,745.3421821226221
257,745.2146572376907
258,745.056998914682
259,744.8710185317375
260,744.6595425908986
261,744.4262440193486
262,744.175362671687
263,743.911349937516
264,743.6384742784385
265,743.3604380633783
266,743.0800711560847
267,742.7991581242152
268,742.5184225898207
269,742.2376550636387
270,741.955945452307
271,741.6719725339727
272,741.3843065057354
273,741.0916868631549
274,740.7932409563325
275,740.488617095022
276,740.1780278757474
277,739.8622252839306
278,739.5424403482442
279,739.2203090423646
280,738.8977851887402
281,738.5770292146974
282,738.2602643913438
283,737.9496024969399
284,737.6468539265176
285,737.3533528213925
286,737.0698383341329
287,736.796425287657
288,736.5326697608571
289,736.2777050966384
290,736.0304112812443
291,735.789585702946
292,735.5540898357864
293,735.3229516372164
294,735.0954225214182
295,734.8710155072217
296,734.64955435795
297,734.4312316021745
298,734.2166401667271
299,734.006742920445
300,733.8027752113506
301,733.6061132535839
302,733.4181598440587
303,733.2402841430269
304,733.0738161956725
305,732.920067833119
306,732.780342713519
307,732.6559032312406
308,732.5478762090229
309,732.4571029083645
310,732.3839660495071
311,732.3282429417544
312,732.2890230185488
313,732.2646916756
314,732.2529542010125
315,732.2508844186365
316,732.2550164772949
317,732.2615160337585
318,732.2664549941582
319,732.2661837750749
320,732.2577637782239
321,732.239404399293
322,732.2108445457138
323,732.1736164553503
324,732.1311263343587
325,732.0884966620558
326,732.0521486402147
327,732.0291466374429
328,732.0263610957239
329,732.0495333511875
330,732.102355557335
331,732.1857051760712
332,732.2971739531462
333,732.4309918119963
334,732.5783796221147
335,732.7283018279023
336,732.8685445810386
337,732.9870018049165
338,733.0729997369342
339,733.1184540598168
340,733.118668830838
341,733.0726611281203
342,732.9830030215934
343,732.8552708644893
344,732.6972449690736
345,732.5180003603825
346,732.3269935683511
347,732.1332169846072
348,731.944481826612
349,731.7668948098172
350,731.6045846342846
351,731.4596965054129
352,731.33262524634
353,731.222430498981
354,731.1273697316608
355,731.0454692685121
356,730.975024280967
357,730.9149086280877
358,730.8646193787714
359,730.8240676799134
360,730.7932066457118
361,730.7716217091481
362,730.7582027993312
363,730.7509882437524
364,730.7472263746017
365,730.7436491444718
366,730.7369052712824
367,730.7240714345614
368,730.7031510118828
369,730.673470402379
370,730.6358863690505
371,730.5927352088369
372,730.5475006788585
373,730.504245920194
374,730.466917320498
375,730.4386583508257
376,730.4212604285992
377,730.4148363104509
378,730.417750458507
379,730.4268017255168
380,730.4376329171581
381,730.4453261651048
382,730.4451210548619
383,730.4331679228771
384,730.4072098452833
385,730.367080692432
386,730.3149231854063
387,730.2550741992142
388,730.1936224344932
389,730.137697055419
390,730.0945845285585
391,730.070792318135
392,730.0711815596634
393,730.0982800360863
394,730.1518690606008
395,730.2289127736635
396,730.3238591744105
397,730.4292931462716
398,730.5368760571293
399,730.6384665750999
400,730.7272775436974
401,730.7988926361263
402,730.8519666266751
403,730.8884786284148
404,730.9134918644567
405,730.9344725106351
406,730.9603008257233
407,731.0001440460596
408,731.0623515123208
409,731.153500038743
410,731.2776824101059
411,731.4360982761133
412,731.626972311202
413,731.8457945740339
414,732.0858549833429
415,732.3390156850993
416,732.5966263423887
417,732.8504591362658
418,733.0935459429311
419,733.3208317924341
420,733.5295881113487
421,733.7195466948222
422,733.892737499244
423,734.0530529335721
424,734.2056082865683
425,734.3560023317149
426,734.5095923338062
427,734.6708874150036
428,734.8431440028569
429,735.0282139160594
430,735.2266383954761
431,735.4379139314027
432,735.6608158710934
433,735.8936715450704
434,736.1345087519646
435,736.3810466736718
436,736.6305428498318
437,736.8795650587476
438,737.1238046926486
439,737.3580560897343
440,737.5764373833539
441,737.7728445371905
442,737.9415577004734
443,738.0778893034841
444,738.178771609111
445,738.2432046589669
446,738.2725085613777
447,738.2703451395836
448,738.2424977867717
449,738.1964280607804
450,738.1406600985187
451,738.0840709837103
452,738.0351744343698
453,738.0014675046646
454,737.9888758210967
455,738.0013125990023
456,738.0403802452669
457,738.1052729851644
458,738.1929435028219
459,738.2985527494931
460,738.4161465291086
461,738.5394342362969
462,738.6625140719963
463,738.7804052752267
464,738.8893068735484
465,738.9865842222641
466,739.0705553961735
467,739.1401818550726
468,739.1947611439863
469,739.2336933103292
470,739.2563632189562
471,739.2621500860525
472,739.2505398776508
473,739.221281298444
474,739.1745131845645
475,739.1108189915518
476,739.0312185954905
477,738.9371450046714
478,738.8304443198273
479,738.7133960183666
480,738.5887149346911
481,738.459487340682
482,738.329006807864
483,738.2005008574176
484,738.0767742787976
485,737.9598328057012
486,737.8505711653451
487,737.7485984912507
488,737.6522426068192
489,737.5587429857256
490,737.4646195049264
491,737.3661855929519
492,737.2601488608009
493,737.1442093311174
494,737.0175425834556
495,736.8810596322027
496,736.7373682221945
497,736.5904144581204
498,736.4448520112423
499,736.3052523947764
500,736.175305407787
501,736.0571473830042
502,735.9509157525199
503,735.8545934783346
504,735.7641798778619
505,735.6741879314161
506,735.5784169300192
507,735.4708946027994
508,735.3468409523489
509,735.2034949126905
510,735.0406750901836
511,734.8610054787212
512,734.6697960012873
513,734.4746034771313
514,734.2845171644857
515,734.1092353519234
516,733.9580303822113
517,733.838723711351
518,733.7567953874579
519,733.7147326232672
520,733.7116897986295
521,733.7434961847542
522,733.8030090866146
523,733.8807695892905
524,733.9658835851923
525,734.0470327376731
526,734.1135213963117
527,734.1562794460646
528,734.1687573043191
529,734.1476578161067
530,734.0934434687302
531,734.0105402132411
532,733.9071528254749
533,733.7946372036752
534,733.6864472180721
535,733.5967626690797
536,733.5389721730932
537,733.5242051968825
538,733.5600863656828
539,733.6498464309745
540,733.7918812614786
541,733.9798015907942
542,734.2029640380791
543,734.4474270694855
544,734.697238644576
545,734.9359312007884
546,735.1480687989389
547,735.3206646229625
548,735.444282068873
549,735.5136678296461
550,735.5278413871398
551,735.4896638049044
552,735.4050053079915
553,735.2817007567625
554,735.128501956232
555,734.9541998210901
556,734.7670164229584
557,734.5742851420525
558,734.3823674791602
559,734.1967120388593
560,734.021955039612
561,733.8619873425708
562,733.7199503570249
563,733.5981606937811
564,733.4980015648079
565,733.4198445030512
566,733.3630548565711
567,733.3260942844687
568,733.3066997350909
569,733.3021124383182
570,733.3093376942564
571,733.3254177327443
572,733.3476963406387
573,733.3740524046901
574,733.40308127021
575,733.4342080568379
576,733.4677249436945
577,733.5047513179819
578,733.5471230798853
579,733.5972290136712
580,733.6578170649051
581,733.7317757115685
582,733.8218679195434
583,733.9303937006556
584,734.058796080352
585,734.2072781277453
586,734.3745294655159
587,734.5576533626635
588,734.7523458593481
589,734.9533225233339
590,735.1549327742757
591,735.351856643003
592,735.5397524594403
593,735.7157290122688
594,735.8785603657311
595,736.0286316830845
596,736.1676676428268
597,736.298324869433
598,736.4237221394592
599,736.5469558257589
600,736.6706338433844
601,736.7964749284708
602,736.9250410313222
603,737.0556638352881
604,737.1865839143919
605,737.3152665718293
606,737.4388156161299
607,737.5543831663249
608,737.6594778332843
609,737.7521163311743
610,737.8308330815471
611,737.8946188913895
612,737.942872905277
613,737.9754262319999
614,737.9926513373529
615,737.9956232384582
616,737.986262223569
617,737.9673847521066
618,737.9426258133362
619,737.9162468150562
620,737.8928728476885
621,737.877202918916
622,737.8737237136929
623,737.8864447867936
624,737.9186605687463
625,737.9727382966969
626,738.0499426340685
627,738.1503282847068
628,738.2727354697713
629,738.4149008013522
630,738.5736640321487
631,738.7452272563423
632,738.9254128549907
633,739.1098711588859
634,739.2942110307104
635,739.4740608224708
636,739.6450982148338
637,739.8031018744115
638,739.9440673225664
639,740.0643935651758
640,740.1611059375163
641,740.2320632475424
642,740.2761075563949
643,740.2931327454819
644,740.2840630238328
645,740.2507480058471
646,740.1957934501535
647,740.1223508186606
648,740.0338893747938
649,739.9339732440482
650,739.826054755641
651,739.7132768394714
652,739.5982696091618
653,739.4829414112367
654,739.36829331919
655,739.2543084327149
656,739.139970149447
657,739.023444466647
658,738.9024226630689
659,738.7745694422208
660,738.6379765929873
661,738.4915102068287
662,738.3349759898965
663,738.1690961267428
664,737.9953473980479
665,737.8157197142433
666,737.6324309693366
667,737.4476197327393
668,737.2630497714982
669,737.079881338268
670,736.8985669534683
671,736.7189031604693
672,736.5402220995035
673,736.3616596661169
674,736.1824177044364
675,736.0019571697912
676,735.8200997295743
677,735.637050857644
678,735.4533776540134
679,735.2699780940836
680,735.0880631149895
681,734.9091440338796
682,734.7349896103602
683,734.5675054236087
684,734.4085080181073
685,734.2594199979662
686,734.1209719522724
687,733.9930184639701
688,733.8745390789335
689,733.7638215739893
690,733.6587525829178
691,733.5571042382693
692,733.4567268618808
693,733.3556317967882
694,733.2520325890517
695,733.1444484173836
696,733.0319334700876
697,732.9144095646842
698,732.7930058747338
699,732.6702854331797
700,732.5502606797918
701,732.4381531771704
702,732.3399196540266
703,732.2616273185587
704,732.2087966846474
705,732.1858310291245
706,732.1956169810201
707,732.239322528053
708,732.3163678349291
709,732.4245267488055
710,732.5601261607325
711,732.7183209822923
712,732.8934226605716
713,733.0792587265996
714,733.2695531314406
715,733.4583346009612
716,733.640373098789
717,733.8116002668795
718,733.9694242918001
719,734.1128511275297
720,734.2423768096515
721,734.359681105303
722,734.4671932267062
723,734.5676093367832
724,734.6634366843546
725,734.7566342675397
726,734.8484103707042
727,734.9392099856447
728,735.0288764582376
729,735.1169177450673
730,735.2027779733262
731,735.2860301836024
732,735.3664561175771
733,735.444030329734
734,735.5188530805721
735,735.591075280949
736,735.660837540237
737,735.7282189578151
738,735.79317644574
739,735.8554599321897
740,735.9145084898431
741,735.9693569187177
742,736.0185991278978
743,736.060451696339
744,736.0929327186143
745,736.1141267408083
746,736.122469814744
747,736.1169790327076
748,736.0973673511937
749,736.0640169050178
750,736.0178302373977
751,735.9600306165466
752,735.8920092341681
753,735.8152935124392
754,735.7316500178794
755,735.643270956861
756,735.5529471743635
757,735.4641167029176
758,735.3807078585988
759,735.3067628720768
760,735.2459010426871
761,735.2007281867726
762,735.1723129012421
763,735.1598391260459
764,735.1605170183045
765,735.169789544323
766,735.1818119534348
767,735.1901221415036
768,735.1883861773812
769,735.1711046071255
770,735.1341876266548
771,735.0753308291974
772,734.9941460528546
773,734.8920365770218
774,734.7718518176076
775,734.6373944578088
776,734.4928699618291
777,734.3423650556978
778,734.1894184649216
779,734.0367120908688
780,733.8858863085871
781,733.7374812575506
782,733.5910139575539
783,733.4452004718331
784,733.2983155981012
785,733.1486529418011
786,732.9950191888855
787,732.8371834467525
788,732.6762089181848
789,732.5146128617774
790,732.3563276364492
791,732.2064675398806
792,732.0709301846794
793,731.9558657313296
794,731.867043655942
795,731.8091583125382
796,731.7851461749924
797,731.795619938884
798,731.8385353282273
799,731.9091877988263
800,732.00059275836
801,732.1042388848597
802,732.2111232329464
803,732.3128949039408
804,732.4028861402957
805,732.4768304670139
806,732.5331565872959
807,732.5728604724756
808,732.5990441359119
809,732.6162483790171
810,732.6297141457478
811,732.6446997252185
812,732.6659561981253
813,732.6974160833208
814,732.7420889496744
815,732.8021025167936
816,732.8788021197295
817,732.9728381170177
818,733.0842137965561
819,733.212302649793
820,733.3558592602117
821,733.5130543554662
822,733.6815699295112
823,733.8587824509922
824,734.0420304135745
825,734.2289207967325
826,734.417602369583
827,734.6069317872085
828,734.7964777896724
829,734.9863470134646
830,735.1768621898625
831,735.3681604002381
832,735.5597970649308
833,735.7504464614221
834,735.9377829454085
835,736.1186004636885
836,736.2891792747458
837,736.4458513136669
838,736.5856665170801
839,736.7070296608453
840,736.8101690089987
841,736.8973287822158
842,736.9726434664447
843,737.0417178855147
844,737.1109724475925
845,737.1868307037257
846,737.2748547538004
847,737.3789642007102
848,737.5008710886655
849,737.6398210868575
850,737.7926776393338
851,737.954333926338
852,738.1183791710905
853,738.2778925442667
854,738.4262235336829
855,738.5576524520964
856,738.6678797933957
857,738.7543346991314
858,738.8163084360347
859,738.854914454532
860,738.8728719230581
861,738.8741277562223
862,738.8633721123166
863,738.8455309960938
864,738.8253078531787
865,738.8068044753804
866,738.7932182599734
867,738.786610059266
868,738.7877515216801
869,738.796071499644
870,738.8097260684464
871,738.8258201450504
872,738.8407957418083
873,738.8509552847786
874,738.8530257782601
875,738.8446374832583
876,738.8246155780466
877,738.7930446911586
878,738.7511247680695
879,738.7008724612075
880,738.6447393926816
881,738.5852239506019
882,738.5245429389566
883,738.4644027754458
884,738.4058823143604
885,738.3494234590177
886,738.2949139201942
887,738.2418286594121
888,738.1893803619145
889,738.1366318784552
890,738.0825512978918
891,738.0260276644805
892,737.9658862158805
893,737.9009362979752
894,737.8300658557345
895,737.7523771666079
896,737.6673405389006
897,737.5749315850719
898,737.4757281501919
899,737.3709714143422
900,737.2626116464023
901,737.1533414055716
902,737.0465812618007
903,736.9463570509179
904,736.8570188770217
905,736.7828063536181
906,736.7273360166098
907,736.6931274260274
908,736.6812693770828
909,736.6912819786692
910,736.7211936566812
911,736.7678336204453
912,736.8273216733683
913,736.8957018885912
914,736.9696194412192
915,737.0469040797094
916,737.126921442047
917,737.2105943685224
