frame_number,force
0,601.6591200000391
1,601.5098345961027
2,601.3614818030597
3,601.2153047846476
4,601.0731074492372
5,600.9373970901421
6,600.8113939104036
7,600.6989023347826
8,600.6040567519293
9,600.5309788051418
10,600.4834126281826
11,600.4644159208751
12,600.4761615543317
13,600.519858648855
14,600.5957628366829
15,600.7032306299167
16,600.8407800524053
17,601.006138853178
18,601.196285016826
19,601.4075031797415
20,601.6354836249703
21,601.8754730742361
22,602.1224578296976
23,602.3713403385171
24,602.6170796835615
25,602.8548054316755
26,603.079955474714
27,603.2884959174393
28,603.4772398620999
29,603.6442118789577
30,603.7889510712934
31,603.9126467628807
32,604.0180551398707
33,604.1092135655696
34,604.1910128134328
35,604.2686938991638
36,604.3473212048327
37,604.4312724446905
38,604.5237865892954
39,604.6266125147365
40,604.7397992950428
41,604.8616662861269
42,604.9889777177121
43,605.1173098503473
44,605.2415516527594
45,605.3564537120427
46,605.4571475045301
47,605.5395802277469
48,605.6008273537007
49,605.6392579749439
50,605.6545541382258
51,605.6476215798699
52,605.6204453551452
53,605.5759247883111
54,605.5176926774465
55,605.4499119939272
56,605.3770472217301
57,605.3036127173553
58,605.2339049718572
59,605.1717327292699
60,605.1201665578658
61,605.0813322710787
62,605.056268188914
63,605.0448598305212
64,605.045860496903
65,605.0569933198467
66,605.0751071569241
67,605.0963469352944
68,605.116318006451
69,605.1302601050996
70,605.1332690908806
71,605.1205978094986
72,605.0880367811509
73,605.032340003772
74,604.9516380966708
75,604.8457714826808
76,604.7164744217658
77,604.5673501458386
78,604.403605334692
79,604.2315585087148
80,604.05799306776
81,603.8894714914532
82,603.7317397995295
83,603.5893293628167
84,603.465422381822
85,603.3619912057045
86,603.2801448672051
87,603.2205394743846
88,603.1836783178362
89,603.169969488121
90,603.1795067011894
91,603.2116504548882
92,603.2645663734268
93,603.3348934017283
94,603.4176662069477
95,603.5065374016249
96,603.5942732705856
97,603.6734448933414
98,603.7372020980182
99,603.7800024769099
100,603.7981766095397
101,603.7902397186996
102,603.7569024748711
103,603.7007868002803
104,603.6259057120384
105,603.5369991304902
106,603.4388254310672
107,603.3355111433037
108,603.230066490023
109,603.1241556743796
110,603.0181485215297
111,602.9114033464464
112,602.8026852602845
113,602.6906184740752
114,602.5740834265134
115,602.452487055941
116,602.3258658854546
117,602.1948339029
118,602.0604419867708
119,601.924037218929
120,601.7871843724496
121,601.6516589843474
122,601.5194696523796
123,601.3928347467911
124,601.274042228431
125,601.1651670972504
126,601.067688642382
127,600.9821061500614
128,600.9076765048059
129,600.8423805470491
130,600.7831635708148
131,600.7264074072621
132,600.6685186392874
133,600.6064928678469
134,600.5383414677013
135,600.4633243889874
136,600.3819900714399
137,600.2960529009727
138,600.208130542908
139,600.1213435387672
140,600.0387909860121
141,599.962969516155
142,599.895257830897
143,599.835600446078
144,599.7824844839241
145,599.7332322029462
146,599.6845529224145
147,599.633235174307
148,599.5768345986846
149,599.5142266005565
150,599.4459235845653
151,599.3740890138821
152,599.3022259285232
153,599.2345901169834
154,599.1754620081635
155,599.1284677803724
156,599.0961350822785
157,599.0797893335953
158,599.0797651632658
159,599.0957853320358
160,599.1273125811439
161,599.1737278891669
162,599.2342911823652
163,599.3079344674558
164,599.3929850646774
165,599.4869228691282
166,599.586264836233
167,599.6866543148499
168,599.7832029463768
169,599.8710736010195
170,599.9462084088699
171,600.006029447593
172,600.0499138805345
173,600.0792937391589
174,600.0973414343262
175,600.108328372936
176,600.1168277211011
177,600.1269474864804
178,600.1417449751567
179,600.1629184056566
180,600.1908116133359
181,600.224707111621
182,600.2633236479567
183,600.3053861601613
184,600.350117282842
185,600.3975238423502
186,600.4484120694509
187,600.5041417968067
188,600.5662044610822
189,600.6357608428916
190,600.7132780391474
191,600.7983572716579
192,600.8897709428127
193,600.9856651103064
194,601.0838535950645
195,601.1821274938062
196,601.2785110322864
197,601.3714065224041
198,601.4595967283167
199,601.5421134277848
200,601.6180264286731
201,601.6862457246218
202,601.7454407430847
203,601.7941417222675
204,601.831006595451
205,601.8551603276663
206,601.8664888295527
207,601.8657988172471
208,601.8548042841171
209,601.8359404456529
210,601.8120353730595
211,601.7858957614139
212,601.7598829451312
213,601.7355618886746
214,601.7135004899153
215,601.6932794428658
216,601.6737384695151
217,601.6534316929075
218,601.6312050800701
219,601.6067624561521
220,601.58107267814
221,601.5564998125218
222,601.5366044563157
223,601.5256433537695
224,601.5278595220094
225,601.5466927215006
226,601.5840500881033
227,601.6397669314699
228,601.7113645348212
229,601.7941704967222
230,601.881803497646
231,601.9669523843238
232,602.0423198545863
233,602.1015641925273
234,602.140067254714
235,602.1553941343875
236,602.1473847141353
237,602.1179039408788
238,602.0703459195888
239,602.0090159204642
240,601.9385010916906
241,601.8631052278333
242,601.7863950642935
243,601.7108977484143
244,601.6379891918275
245,601.5680003754743
246,601.5005315968688
247,601.4349103379071
248,601.3706821761349
249,601.3080100667988
250,601.2478810705427
251,601.1920726523014
252,601.1428964018639
253,601.102790544432
254,601.0738563567668
255,601.0574334865846
256,601.0537959525376
257,601.0620197532655
258,601.080027644386
259,601.1047847900332
260,601.1326186928086
261,601.1596463770427
262,601.1822763792368
263,601.197709606873
264,601.2043301660241
265,601.2018970766585
266,601.1915171142803
267,601.1754480794394
268,601.1568051022389
269,601.13922040939
270,601.1264765227941
271,601.1221272497326
272,601.1291398259373
273,601.1496087737092
274,601.1845856288181
275,601.2340420600302
276,601.296955221898
277,601.3714842693475
278,601.4551974891677
279,601.5453104658133
280,601.6389012602764
281,601.7330711069445
282,601.8250256565344
283,601.9120765129493
284,601.991600033616
285,602.0610154428042
286,602.1178407173466
287,602.1598548112075
288,602.1853513013369
289,602.1934273897422
290,602.1842277320969
291,602.1590645207316
292,602.120366045108
293,602.07145289455
294,602.0161815584001
295,601.9585202049066
296,601.9021364108042
297,601.8500776471693
298,601.8045987245847
299,601.7671402794663
300,601.7384159744822
301,601.7185465282976
302,601.7071871296905
303,601.7036198443417
304,601.7068107243027
305,601.7154472833531
306,601.7279707076493
307,601.7426151877479
308,601.7574787000322
309,601.7706591148756
310,601.7804699276594
311,601.7857041625213
312,601.785874892287
313,601.7813554904841
314,601.7733765777731
315,601.7638866607846
316,601.7553154777178
317,601.7502774815146
318,601.7512356630643
319,601.7601425736448
320,601.7780945145266
321,601.8050597124145
322,601.839749913013
323,601.8796860820305
324,601.921464769976
325,601.9611756939879
326,601.9948782618906
327,602.0190402213125
328,602.0308759928517
329,602.0285651276342
330,602.0113514977093
331,601.9795232579793
332,601.9342794614498
333,601.8775139255963
334,601.8115730811634
335,601.7390477087229
336,601.6626303713198
337,601.5850263980168
338,601.5088784525584
339,601.4366737077582
340,601.3706353286988
341,601.3126234619962
342,601.2640662928942
343,601.2259208376757
344,601.1986513409393
345,601.1822165190385
346,601.1760606014469
347,601.1791040721017
348,601.1897435133103
349,601.2058961422888
350,601.2251374866916
351,601.2449593886491
352,601.2631268103711
353,601.2780601383099
354,601.289139863211
355,601.2968362916394
356,601.3026048994068
357,601.3085454672845
358,601.3168877807697
359,601.3294198221358
360,601.3469913110303
361,601.3691991540718
362,601.394312703206
363,601.4194478718208
364,601.4409534573614
365,601.4549299100321
366,601.4577720753972
367,601.4466276816746
368,601.4196938738767
369,601.3763240438565
370,601.3169729545422
371,601.2430514146184
372,601.1567678097607
373,601.0609950255503
374,600.9591492649247
375,600.8550449857263
376,600.7527040079675
377,600.6561189963833
378,600.5689830136223
379,600.4944041996482
380,600.434638432349
381,600.3908872437863
382,600.3632075160227
383,600.3505578343133
384,600.350972553709
385,600.3618214378788
386,600.3800933480742
387,600.4026488042368
388,600.4264172542415
389,600.4485508997125
390,600.466564494055
391,600.4784817198769
392,600.4829859401783
393,600.4795581667493
394,600.4685882772012
395,600.4514519996985
396,600.4305344175814
397,600.4091560798025
398,600.3913517626768
399,600.3814849301505
400,600.3837406003855
401,600.4015955308744
402,600.4373892524447
403,600.4920941448163
404,600.5653123876639
405,600.6554512479231
406,600.759992297994
407,600.8757835700889
408,600.9993154710367
409,601.1269635972695
410,601.2551933023634
411,601.380729797251
412,601.5007010956914
413,601.6127527410048
414,601.7151173481991
415,601.8066139121596
416,601.8865635565105
417,601.9546355280798
418,602.0106615076364
419,602.0544624003855
420,602.0857201964376
421,602.1039116830046
422,602.108314353034
423,602.0980973213024
424,602.0725051243863
425,602.0311184697479
426,601.9741435346974
427,601.9026598973134
428,601.8187578774977
429,601.725521061525
430,601.6268513287649
431,601.527171771744
432,601.4310611348543
433,601.3428760177385
434,601.2664161863087
435,601.204684126239
436,601.1597746817354
437,601.1329008389761
438,601.1245243258394
439,601.1345320217122
440,601.16239637946
441,601.2072780666475
442,601.2680562669199
443,601.3432943574576
444,601.4311659161408
445,601.5293809532001
446,601.6351569897244
447,601.7452625305791
448,601.8561261664826
449,601.9639755502286
450,602.0649674828718
451,602.1552922817342
452,602.2312610567936
453,602.2893962510166
454,602.3265474781819
455,602.3400536153484
456,602.3279599736538
457,602.2892686698281
458,602.2241656399702
459,602.1341538072456
460,602.0220401364872
461,601.8917668680252
462,601.748123562336
463,601.596402675252
464,601.4420544272417
465,601.2903698904316
466,601.1462027205823
467,601.013738064855
468,600.89631579634
469,600.7963082975
470,600.7150501527657
471,600.6528174657147
472,600.6088501986894
473,600.5814086812569
474,600.5678673102751
475,600.5648670745097
476,600.568549569063
477,600.574867661909
478,600.5799321127118
479,600.5803385419689
480,600.5734307552602
481,600.5574769052826
482,600.5317504676717
483,600.4965209697777
484,600.4529751143521
485,600.4031015916403
486,600.3495712958423
487,600.2956260319559
488,600.2449616458181
489,600.201570454446
490,600.1695077429112
491,600.1525742405623
492,600.1539505692197
493,600.1758567986518
494,600.2193186795724
495,600.2840958889522
496,600.3687763307662
497,600.4709853394344
498,600.587629372288
499,600.7151116161937
500,600.8495093316343
501,600.9867478424818
502,601.1228124960792
503,601.2540129565816
504,601.3772771509467
505,601.4904207245538
506,601.5923204489411
507,601.6829246171201
508,601.7630649515053
509,601.8340888788098
510,601.8973896966127
511,601.9539475337418
512,602.0039894259519
513,602.0468397710937
514,602.0809836740194
515,602.1043199992276
516,602.1145431811376
517,602.1095666734759
518,602.0878931046541
519,602.048853059201
520,601.992674688758
521,601.9203962683458
522,601.833674243538
523,601.7345605257392
524,601.6253240158901
525,601.5083674999247
526,601.3862401268443
527,601.261692118826
528,601.1376997569859
529,601.0174111028352
530,600.9039982081913
531,600.8004286898532
532,600.709190286823
533,600.6320212783689
534,600.5697115160569
535,600.5220298960052
536,600.4877970150003
537,600.4650707213794
538,600.4513786711358
539,600.4439365727068
540,600.4398251119585
541,600.4361356113955
542,600.4301116100398
543,600.4193069927477
544,600.4017649992912
545,600.376211024132
546,600.3422449129267
547,600.3005067556468
548,600.2527758800379
549,600.2019585434275
550,600.1519328701593
551,600.1072427407609
552,600.0726554662855
553,600.0526244560709
554,600.0507326740467
555,600.0692162411098
556,600.1086513280948
557,600.1678340975104
558,600.2438276863618
559,600.3321233271472
560,600.4268721659802
561,600.5211763427747
562,600.6074583070836
563,600.6779406567134
564,600.7252629714966
565,600.7432305989331
566,600.7276265725126
567,600.676946519355
568,600.5928867565867
569,600.480452564805
570,600.3476366572226
571,600.2047089026572
572,600.0632283509983
573,599.9349211032913
574,599.8305582947298
575,599.7589328284424
576,599.7260026057254
577,599.7342628498918
578,599.7824214540242
579,599.8654502743018
580,599.9750515954474
581,600.1005157486951
582,600.2298724776604
583,600.3511788578269
584,600.4537623739965
585,600.5292577015343
586,600.5723239371065
587,600.5809810477137
588,600.5565533965578
589,600.5032600131368
590,600.4275394252514
591,600.3372223633501
592,600.2406603023319
593,600.1458957077035
594,600.05993956433
595,599.9882058855999
596,599.9341359151985
597,599.8990310142415
598,599.8821091649371
599,599.8807963157354
600,599.891244991567
601,599.9090361209783
602,599.9299723141181
603,599.9508234255784
604,599.9698655409612
605,599.9870901369342
606,600.0040418658895
607,600.0233318090619
608,600.0479419966916
609,600.0804833875256
610,600.1225855049948
611,600.1745606766522
612,600.2353958400456
613,600.3030199356651
614,600.3747309836643
615,600.4476619905673
616,600.5191928537697
617,600.5872487125752
618,600.6504545399208
619,600.7081396771871
620,600.7602091025062
621,600.8069282342416
622,600.8486949389571
623,600.8858702629359
624,600.9187025994279
625,600.9473353413642
626,600.9718632099406
627,600.9924007024188
628,601.009138300606
629,601.0223839844944
630,601.0326105644406
631,601.0405334764979
632,601.0472221362639
633,601.0542181880988
634,601.0636107285708
635,601.0780043655193
636,601.1003230183932
637,601.1334355163283
638,601.1796557138452
639,601.2402278618925
640,601.3149335752788
641,601.4019361562733
642,601.4979083402022
643,601.5983977221474
644,601.6983194604388
645,601.7924568533276
646,601.8758866559124
647,601.9443013153638
648,601.9942507469121
649,602.0233522847697
650,602.03050833871
651,602.0161281322029
652,601.9822893365622
653,601.9327370501995
654,601.8726421817129
655,601.8081214193256
656,601.7455970588335
657,601.6910995769545
658,601.6495993108724
659,601.6244348502139
660,601.6169030467792
661,601.6260775850471
662,601.6489086914958
663,601.6806123658314
664,601.7152906250215
665,601.7466664106738
666,601.768800750419
667,601.7766874424763
668,601.7666684314199
669,601.7366609989036
670,601.6862255985972
671,601.6165201907152
672,601.5301760332234
673,601.4310993120473
674,601.324176116069
675,601.2148574776618
676,601.1086328387833
677,601.0104500760834
678,600.9241782524693
679,600.8522108580889
680,600.795276964429
681,600.7524915755675
682,600.7216482754728
683,600.6997256831908
684,600.6835329696858
685,600.6703736771619
686,600.6585926491773
687,600.6479020116909
688,600.6394400971312
689,600.6355717730754
690,600.6394781199209
691,600.6546138774596
692,600.6841307891257
693,600.7303600618948
694,600.7944172685492
695,600.8759594252748
696,600.9731041816399
697,601.0825125541687
698,601.1996297718871
699,601.3190687332092
700,601.4351038373919
701,601.5422190742087
702,601.6356345408174
703,601.7117350346045
704,601.768343128537
705,601.8048060113031
706,601.8218956911611
707,601.821556753506
708,601.8065685305602
709,601.7802036887247
710,601.7459482700164
711,601.707304536728
712,601.6676582462525
713,601.6301829633579
714,601.5977661372109
715,601.5729422800002
716,601.5577993403739
717,601.5538175154409
718,601.5616351474928
719,601.580796537381
720,601.6095726988976
721,601.6449334420914
722,601.6827092047616
723,601.7179479152155
724,601.7454515593345
725,601.7604473350024
726,601.7592982969508
727,601.7401135334852
728,601.7031167046242
729,601.6506834654646
730,601.5870353945721
731,601.5176452139574
732,601.4484500264732
733,601.3849939744925
734,601.331638825076
735,601.2909801441261
736,601.2635693721201
737,601.2479748636965
738,601.2411488937057
739,601.2390204170049
740,601.2371995288337
741,601.2316615054499
742,601.2192923874562
743,601.19822421767
744,601.1679419355077
745,601.129182868561
746,601.0836711927996
747,601.0337459270733
748,600.9819594743411
749,600.9307327152295
750,600.8821335282653
751,600.8377994740418
752,600.7989766888543
753,600.7666187069426
754,600.7414839709854
755,600.724181055616
756,600.7151326160104
757,600.7144636742827
758,600.7218612082798
759,600.7364807431865
760,600.7569670445458
761,600.7816055884892
762,600.8085626287552
763,600.8361482008854
764,600.8630518738939
765,600.8885191698326
766,600.91243702282
767,600.9352982025795
768,600.9580357193482
769,600.9817515889704
770,601.0073970340275
771,601.0354854083434
772,601.0659218693175
773,601.0980047185875
774,601.1306016158015
775,601.1624510312389
776,601.1925012941231
777,601.2201869794792
778,601.245565686061
779,601.2692938862677
780,601.2924784640495
781,601.316467802849
782,601.3426387805617
783,601.3722135859048
784,601.4061191667888
785,601.4448850586145
786,601.4885625441304
787,601.5366451206495
788,601.5879822157059
789,601.6407030304757
790,601.6921932937325
791,601.7391752275494
792,601.7779200200265
793,601.8045831964453
794,601.815615193737
795,601.8081758842757
796,601.7804809638736
797,601.7320253084756
798,601.6636442994799
799,601.5773822778079
800,601.4761610669517
801,601.3632987780076
802,601.2419946183004
803,601.1149237072333
804,600.9840586008218
805,600.8507651532169
806,600.7161332663208
807,600.5814267522843
808,600.4485014848227
809,600.3200567272407
810,600.1996331735972
811,600.0913354010561
812,599.9993311397019
813,599.927250025848
814,599.8776390614553
815,599.8516110266829
816,599.8487554875619
817,599.8672986267654
818,599.9044291559952
819,599.9566795824268
820,600.0202766737108
821,600.0914304369562
822,600.1665688629431
823,600.2425198382609
824,600.3166203045911
825,600.3867390879477
826,600.4512351446198
827,600.5089037212344
828,600.5589640382839
829,600.6011122459839
830,600.6356200361189
831,600.6634305345112
832,600.6862032980492
833,600.7062765724484
834,600.7265319086529
835,600.7501645879992
836,600.7803845658202
837,600.8200876129356
838,600.8715400317645
839,600.9361192429208
840,601.0141477871978
841,601.1048413884427
842,601.2063650920109
843,601.3159714781992
844,601.4301913069205
845,601.5450556572092
846,601.6563395373391
847,601.7598210501894
848,601.8515470113995
849,601.9280919548283
850,601.9867953990695
851,602.0259601892974
852,602.0449933594095
853,602.0444714322008
854,602.0261116981967
855,601.9926298467658
856,601.94747124141
857,601.8944279623403
858,601.837194334919
859,601.7789511659411
860,601.72207642945
861,601.6680442194541
862,601.6175102064449
863,601.5705255814911
864,601.5268017171034
865,601.4859684961467
866,601.447804258291
867,601.4124291579443
868,601.3804382998333
869,601.3529321688812
870,601.331407692281
871,601.3175089118264
872,601.3126828031498
873,601.3178143916962
874,601.332914798837
875,601.3569204781227
876,601.3876425266114
877,601.4218795841979
878,601.4556836427373
879,601.4847564205759
880,601.5049467285288
881,601.5128000768967
882,601.5060826163254
883,601.4841815802188
884,601.4482937863115
885,601.4013609031784
886,601.3477789628848
887,601.292961668332
888,601.2428426087748
889,601.2033671377259
890,601.1799866571118
891,601.1771587161567
892,601.1978759824963
893,601.2432710378162
894,601.3123542653783
895,601.4019406977452
896,601.5068115576232
897,601.6201295980975
898,601.7340808583397
899,601.8406634218661
900,601.9325074357737
901,602.0036013869757
902,602.0498170647782
903,602.0691639963657
904,602.0617555518986
905,602.0295252010694
906,601.9757818327854
907,601.9047190383053
908,601.8209785346534
909,601.7293206895278
910,601.6344043500231
911,601.5406437662476
912,601.4520952979211
913,601.372333281372
914,601.3043037123281
915,601.2501815212543
916,601.2112796124901
917,601.188054643062
