acceleration,velocity,displacement
0.03296479578900069,0.0,0.0
0.032198054028693184,1.6290712454423472e-05,4.072678113605868e-09
0.03143175666188963,3.2198165127069176e-05,1.619489750897903e-08
0.030666344944100678,4.7722690528566756e-05,3.617511142288801e-08
0.029902253912145363,6.286484024262827e-05,6.382199411568677e-08
0.029139909432531128,7.762538107879739e-05,9.894454944604318e-08
0.028379725467446926,9.20052898037919e-05,1.413522171666905e-07
0.027622101654988004,0.00010600574658440062,1.9085497626373863e-07
0.026867421294512115,0.00011962812732177565,2.472634447402827e-07
0.026116049807599653,0.0001328739950973036,3.1038897534505253e-07
0.025368333710201616,0.0001457450909767539,3.800437468635669e-07
0.024624600088655416,0.00015824332442646816,4.5604085071437246e-07
0.023885156534387414,0.00017037076358222887,5.381943727165467e-07
0.023150291470065407,0.00018212962558334208,6.263194700079394e-07
0.022420274792437158,0.00019352226714896772,7.202324431910169e-07
0.02169535875536539,0.00020455117553591835,8.197508038622384e-07
0.020975779016316205,0.00021521895997883876,9.246933377409277e-07
0.02026175577413481,0.00022552834367645151,1.0348801636547503e-06
0.019553494938695716,0.00023548215635465914,1.150132788662528e-06
0.01885118928985687,0.00024508332741179727,1.2702741596041421e-06
0.01815501959402028,0.0002543348796327666,1.395128711365283e-06
0.01746515564555387,0.00026323992344266014,1.5245224121341397e-06
0.016781757190641223,0.0002718016516517089,1.658282805907732e-06
0.01610497468265594,0.0002800233346200332,1.7962390524756675e-06
0.015434949817277291,0.0002879083157450165,1.93822196506693e-06
0.014771815801709741,0.0002954600071497633,2.0840640457906248e-06
0.01411569732425651,0.00030268188543125486,2.2335995189358793e-06
0.013466710212251355,0.00030957748731538185,2.3866643621225386e-06
0.012824960799369121,0.000316150405068287,2.543096335218456e-06
0.012190545060070898,0.000322404281533147,2.7027350068688145e-06
0.011563547596803338,0.00032834280469736557,2.8654217784264427e-06
0.010944040576154451,0.000333969701740605,3.030999905035935e-06
0.010332082702979061,0.00033928873256038836,3.1993145136111834e-06
0.009727718303384238,0.00034430368281197917,3.3702126174542755e-06
0.00913097656864203,0.00034901835652998575,3.543543127289767e-06
0.00854187099919206,0.0003534365684219443,3.7191568585277493e-06
0.00796039907999288,0.0003575621359417405,3.8969065346186704e-06
0.007386542210907467,0.0003613988712644656,4.076646786420222e-06
0.006820265907134365,0.00036495057329397605,4.2582341475598325e-06
0.006261520277664621,0.0003682210198401758,4.441527045843371e-06
0.005710240789169031,0.0003712139601068842,4.626385790830136e-06
0.005166349331215424,0.0003739331076369803,4.812672557766102e-06
0.004629755612054356,0.00037638213387279775,5.000251368143547e-06
0.004100358922512268,0.00037856466250643943,5.188988067238356e-06
0.0035780503005459767,0.000380484264812204,5.378750299068016e-06
0.003062715108734956,0.00038214445616452424,5.569407479312198e-06
0.0025542360065343313,0.00038354869394334153,5.760830766839164e-06
0.0020524962693692092,0.00038470037701231744,5.952893034578079e-06
0.0015573833847453413,0.0003856028469258461,6.14546884056262e-06
0.0010687928374107042,0.0003862593909813851,6.338434400039428e-06
0.0005866319770172485,0.00038667324718499207,6.5316675595810225e-06
0.00011082384796448887,0.0003868476111412375,6.72504777416258e-06
-0.000358689140534397,0.00038678564481809503,6.918456088152413e-06
-0.0008219418172388786,0.0003864904870786517,7.1117751211266e-06
-0.001278943223669263,0.00038596526581842467,7.304889059350869e-06
-0.0017296740433985242,0.0003852131115016577,7.49768365368089e-06
-0.0021740845485808797,0.00038423717185366287,7.69004622451972e-06
-0.0026120931039624947,0.000383040627440527,7.881865674343267e-06
-0.003043585243803628,0.00038162670785358546,8.073032508166796e-06
-0.003468413311679579,0.00037999870821471467,8.263438862183871e-06
-0.0038863966322284496,0.0003781600057287377,8.452978540669734e-06
-0.0042973221750181746,0.000376114076026926,8.64154706110865e-06
-0.00470094567690409,0.0003738645090639454,8.829041707381368e-06
-0.005096993204811597,0.0003714150243435165,9.015361590733234e-06
-0.005485163153603059,0.00036876948525391286,9.200407718132591e-06
-0.005865128673531799,0.0003659319122971292,9.384083067520351e-06
-0.006236540507868574,0.00036290649500177907,9.566292669345078e-06
-0.006599030201038831,0.00035969760232455224,9.74694369367666e-06
-0.006952213620041149,0.00035630979136928225,9.92594554210012e-06
-0.007295694722661301,0.0003527478142836066,1.0103209943513342e-05
-0.007629069505873547,0.00034901662322647293,1.0278651052890861e-05
-0.007951930073372164,0.00034512137333166153,1.0452185552030395e-05
-0.008263868766536174,0.00034106742362168446,1.0623732751268731e-05
-0.00856448230145257,0.0003368603358546873,1.0793214691137824e-05
-0.008853375843327639,0.00033250587131849227,1.0960556242931119e-05
-0.009130166933971381,0.0003280099856241675,1.1125685207166784e-05
-0.009394489180018362,0.00032337882159567006,1.1288532408971744e-05
-0.009645995618255751,0.0003186187003961015,1.1449031789469686e-05
-0.009884361699931125,0.00031373611106655483,1.160712049233535e-05
-0.010109287869842682,0.00030873769867411136,1.1762738944770516e-05
-0.010320501746929068,0.00030363025126991844,1.1915830932256524e-05
-0.01051775993045877,0.00029842068585057146,1.2066343666536646e-05
-0.010700849457394319,0.0002931160335036082,1.221422784637519e-05
-0.010869588932879934,0.00028772342390603965,1.2359437710727603e-05
-0.01102382935874529,0.00028225006933313337,1.2501931084037396e-05
-0.011163454693831098,0.0002767032483199893,1.2641669413450676e-05
-0.011288382187780523,0.0002710902890995864,1.277861779780557e-05
-0.011398562532841269,0.0002654185529194309,1.2912745008310326e-05
-0.011493979872464529,0.00025969541731810444,1.304402350086971e-05
-0.011574651688622378,0.00025392825942783273,1.3172429420056194e-05
-0.011640628571985204,0.00024812443936268085,1.3297942594753822e-05
-0.011691993878917353,0.0002422912837499552,1.342054652553198e-05
-0.011728863299556908,0.00023643606945533663,1.3540228363833303e-05
-0.011751384382615235,0.0002305660075347936,1.3656978883080836e-05
-0.011759736065421711,0.00022468822742278434,1.377079244182023e-05
-0.011754128243107065,0.00021880976134565214,1.388166693901234e-05
-0.011734801392676786,0.00021293752893670619,1.398960376158293e-05
-0.011702026255443226,0.00020707832202467618,1.4094607724323275e-05
-0.011656103572524947,0.00020123878956768414,1.4196687002221366e-05
-0.011597363856126117,0.00019542542271052136,1.4295853055290917e-05
-0.01152616716152241,0.00018964453995610922,1.4392120545957575e-05
-0.011442902805110476,0.000183902272464451,1.4485507249062714e-05
-0.01134798895797996,0.00017820454952367838,1.4576033954559747e-05
-0.011241872037086457,0.00017255708427491178,1.4663724363009396e-05
-0.011125025820245379,0.00016696535981057883,1.4748604974030768e-05
-0.010997950226648671,0.0001614346157988553,1.4830704967933127e-05
-0.010861169728014191,0.00015596983581018958,1.4910056080835388e-05
-0.010715231380765687,0.0001505757355329946,1.4986692473671183e-05
-0.010560702490303078,0.00014525675206522742,1.5060650595570739e-05
-0.010398167931046783,0.00014001703445988995,1.5131969042202018e-05
-0.010228227151925057,0.000134860435689147,1.5200688409739277e-05
-0.010051490899103857,0.00012979050617638977,1.526685114520566e-05
-0.009868577687996384,0.0001248104890296147,1.533050139400716e-05
-0.009680110056391715,0.00011992331709351767,1.5391684845537944e-05
-0.009486710632455615,0.00011513161192130584,1.545044857779165e-05
-0.009288998060185258,0.00011043768474814562,1.5506840901959014e-05
-0.009087582842770437,0.0001058435395224067,1.5560911208026652e-05
-0.008883063185895778,0.00010135087801524014,1.5612709812411063e-05
-0.008676020937615285,9.696110698436238e-05,1.5662287808660964e-05
-0.00846701772157727,9.267534731956424e-05,1.5709696922236946e-05
-0.008256591345371064,8.849444505282715e-05,1.5754989370330042e-05
-0.008045252541323909,8.44189840811534e-05,1.5798217727613537e-05
-0.00783348207250608,8.04493004276959e-05,1.583943479874075e-05
-0.007621728219241135,7.65854978547591e-05,1.5878693498311362e-05
-0.007410404653001109,7.282746463669854e-05,1.5916046738934227e-05
-0.007199888702311454,6.91748912978704e-05,1.595154732791787e-05
-0.006990520016226669,6.562728911823588e-05,1.5985247873021896e-05
-0.0067825996332483325,6.218400920586712e-05,1.601720069760292e-05
-0.006576389465442314,5.884426193119446e-05,1.6047457765387188e-05
-0.00637211220715945,5.560713651304402e-05,1.6076070614998247e-05
-0.0061699516747403226,5.247162054256908e-05,1.610309030426215e-05
-0.005970053578148255,4.9436619229346936e-05,1.612856736420513e-05
-0.005772526716496099,4.6500974155685845e-05,1.6152551762551387e-05
-0.005577444576162414,4.3663481332521216e-05,1.6175092876423437e-05
-0.005384847297747124,4.092290836404383e-05,1.6196239473847577e-05
-0.005194743973750256,3.827801054616949e-05,1.621603970357513e-05
-0.005007115243931918,3.5727545741748944e-05,1.623454109264711e-05
-0.004821916160598316,3.327028789061639e-05,1.6251790551055202e-05
-0.004639079290274358,3.090503902789822e-05,1.626783438278483e-05
-0.004458517998834377,2.8630639705621034e-05,1.628271830246821e-05
-0.004280129843566328,2.6445977745020857e-05,1.629648745683087e-05
-0.004103799980231535,2.434999528907139e-05,1.6309186450089393e-05
-0.003929404490853658,2.2341694171300094e-05,1.6320859372454484e-05
-0.003756813547792705,2.0420139661638504e-05,1.633154983091272e-05
-0.0035858943489182407,1.8584462687460767e-05,1.6341300981499996e-05
-0.0034165137813240076,1.6833860654900205e-05,1.6350155562335587e-05
-0.003248540787093384,1.5167597012795858e-05,1.6358155926752512e-05
-0.0030818484076248574,1.3584999714116297e-05,1.636534407593424e-05
-0.0029163154768134894,1.208545874300671e-05,1.637176169054852e-05
-0.0027518279292858346,1.0668422891481878e-05,1.6377450160957145e-05
-0.002588279696516767,9.333395985031227e-06,1.6382450615676273e-05
-0.0024255731783858984,8.07993276630556e-06,1.6386803947864107e-05
-0.0022636192895548156,6.907634649320382e-06,1.6390550839718013e-05
-0.0021023370816427318,5.816145556520995e-06,1.6393731784769473e-05
-0.0019416529379663694,4.80514805161872e-06,1.6396387108171507e-05
-0.0017814993387708909,3.8743599824344055e-06,1.6398556985180022e-05
-0.001621813206955809,3.0235318460027305e-06,1.640028145813713e-05
-0.0014625338620319597,2.252445078755788e-06,1.640160045236832e-05
-0.0013036006242629053,1.560911457182072e-06,1.6402553791502303e-05
-0.0011449501184411166,9.487737715060665e-07,1.6403181212809476e-05
-0.0009865133288990094,4.1590790967103497e-07,1.640352238322977e-05
-0.0008282124554842658,-3.777353642478386e-08,1.6403616916823082e-05
-0.0006699576162180396,-4.123160543503602e-07,1.640350439442539e-05
-0.0005116434422095283,-7.077163189572522e-07,1.640322438633206e-05
-0.00035314561862776,-9.239135841665742e-07,1.640281647885628e-05
-0.00019431744069762222,-1.0607793489979197e-06,1.6402320305622988e-05
-3.498647003026665e-05,-1.118105326679892e-06,1.640177558445407e-05
0.00012504861148432804,-1.0955897913163766e-06,1.640122216067457e-05
0.0002860208493348771,-9.928224261115753e-07,1.6400700057620213e-05
0.0004481974727669629,-8.092678455861153e-07,1.6400249535052288e-05
0.0006118818898303971,-5.442480049367753e-07,1.6399911156089658e-05
0.0007774151840207725,-1.969237364739829e-07,1.6399725863154305e-05
0.0009451771047471251,2.337243357179915e-07,1.6399735063304116e-05
0.0011155865568740636,7.489152511232887e-07,1.6399980723200827e-05
0.0012891015888073117,1.3500872875436327e-06,1.6400505473835493e-05
0.0014662188597638602,2.0389173996864255e-06,1.64013527250073e-05
0.0016474725457788144,2.817340251072094e-06,1.640256678941999e-05
0.0018334326356572233,3.6875665464311034e-06,1.6404193016119368e-05
0.002024702581405014,4.652100350696663e-06,1.640627793284365e-05
0.0022219162983435755,5.71375507063381e-06,1.640886939669898e-05
0.0024257345460090268,6.875667781721961e-06,1.6412016752412067e-05
0.002636840752242341,8.141311606284802e-06,1.641577099725907e-05
0.0028559363641570005,9.514505885384638e-06,1.6420184951631987e-05
0.003083735816839294,1.0999423930633711e-05,1.6425313434085994e-05
0.003320961199897259,1.260059818481785e-05,1.6431213439614855e-05
0.0035683366740244934,1.4322922653298287e-05,1.6437944319824385e-05
0.0038265826556777615,1.6171652485723852e-05,1.644556796360914e-05
0.004096409764927848,1.8152400590875255e-05,1.645414897687829e-05
0.004378512528315278,2.0271131164186035e-05,1.6463754859817057e-05
0.004673562840879609,2.2534150006484757e-05,1.6474456180109724e-05
0.004982203211077995,2.4948091519474157e-05,1.6486326740491215e-05
0.005305039836574576,2.75199022813873e-05,1.649944373894143e-05
0.005642635585679041,3.0256821136950705e-05,1.6513887919796014e-05
0.005995502979667083,3.3166355778287237e-05,1.6529743714024823e-05
0.0063640972768912625,3.625625584242682e-05,1.654709936693e-05
0.006748809754466768,3.953448260026633e-05,1.6566047051540673e-05
0.0071499612781527975,4.300917535842122e-05,1.6586682966030345e-05
0.0075677962493805075,4.668861474030454e-05,1.6609107413555026e-05
0.008002477013605399,5.058118305605102e-05,1.6633424863004114e-05
0.008454078801533075,5.4695322009835636e-05,1.6659743989270586e-05
0.008922585257800661,5.903948802466907e-05,1.6688177691779212e-05
0.009407884596453444,6.36221054882326e-05,1.671884309015744e-05
0.009909766411565187,6.845151824023726e-05,1.6751861496089557e-05
0.010427919164837611,7.353593963433797e-05,1.67873583605582e-05
0.01096192837201927,7.88834015185522e-05,1.6825463195846424e-05
0.011511275517571948,8.450170249095e-05,1.68663094718488e-05
0.012075337736906586,9.039835580456963e-05,1.691003448642268e-05
0.012653388307040162,9.658053731555632e-05,1.695677920970271e-05
0.013244597972363398,0.00010305503388540721,1.700668810250295e-05
0.013848037106028062,0.00010982819265500507,1.7059908909138054e-05
0.014462678681455194,0.00011690587160187589,1.7116592425202275e-05
0.01508740201136665,0.00012429339177508135,1.7176892241046515e-05
0.015720997202227922,0.00013199549157848,1.7240964461884906e-05
0.016362170266265057,0.00014001628344560325,1.7308967405640927e-05
0.017009548834577233,0.00014835921322081381,1.738106127980753e-05
0.017661688427945157,0.0001570270225364444,1.7457407838746847e-05
0.018317079259640514,0.00016602171445834083,1.7538170022995544e-05
0.01897415355156179,0.0001753445226611414,1.7623511582275413e-05
0.019631293333831422,0.0001849958843824897,1.7713596684036322e-05
0.020286838678298637,0.00019497541738552223,1.7808589509478325e-05
0.020939096304950014,0.0002052819011313344,1.790865383910754e-05
0.021586348504907166,0.0002159132623337987,1.8013952629973822e-05
0.022226862338817283,0.00022686656504472983,1.8124647586818454e-05
0.02285889908394504,0.00023813800540042042,1.8240898729429742e-05
0.023480723911444297,0.00024972291114926776,1.8362863958567165e-05
0.024090615775921167,0.0002616157460711091,1.8490698622872258e-05
0.024686877488389793,0.00027381011938718686,1.8624555089236833e-05
0.02526784591520308,0.0002862988002380851,1.876458231914315e-05
0.02583190220323476,0.00029907373726769455,1.8910925453519594e-05
0.026377481892812627,0.0003121260832917064,1.9063725408659445e-05
0.026903084760885262,0.00032544622495513087,1.9223118485721155e-05
0.02740728423927106,0.00033902381720516994,1.938923599626123e-05
0.027888736266845352,0.00035284782233169904,1.9562203906145447e-05
0.02834618745020257,0.00036690655326096104,1.9742142500043614e-05
0.028778482420364376,0.0003811877207286028,1.9929166068541004e-05
0.029184570284601377,0.0003956784839048442,2.0123382619699366e-05
0.02956351008887803,0.00041036550399821403,2.032489361667513e-05
0.029914475233592207,0.00042523500032883157,2.0533793742756894e-05
0.030236756817855565,0.0004402728083416935,2.0750170694924524e-05
0.030529765911970305,0.00045546443902415,2.0974105006765984e-05
0.03079303476733272,0.0004707951391939757,2.1205669901320517e-05
0.031026216974990695,0.0004862499521295566,2.14449311741514e-05
0.031229086589271614,0.0005018137780206221,2.1691947106688946e-05
0.031401536243397046,0.0005174714337287894,2.19467684096263e-05
0.03154357429384025,0.0005332077113630987,2.220943819589927e-05
0.03165532103387603,0.0005490074351950278,2.2479991982538802e-05
0.03173700401544879,0.000564855516457359,2.2758457720451898e-05
0.031788952520629604,0.0005807370055913786,2.3044855850964082e-05
0.031811591237185584,0.0005966371415308324,2.3339199387744635e-05
0.03180543321529484,0.0006125413976439526,2.364149402253833e-05
0.03177107220692319,0.0006284355239995071,2.3951738252949195e-05
0.03170917451446427,0.000644305585679854,2.4269923530369035e-05
0.03162047050169536,0.0006601379969338938,2.459603442602247e-05
0.0315057459406021,0.0006759195510444682,2.493004881301706e-05
0.03136583337127859,0.0006916374458724383,2.5271938062246288e-05
0.0312016036374139,0.0007072793051246115,2.562166724999555e-05
0.031013957733303878,0.0007228331954672909,2.5979195375143523e-05
0.030803819063577532,0.0007382876396665112,2.6344475583926973e-05
0.030572126176302623,0.0007536316259764812,2.6717455400337722e-05
0.030319825993431773,0.0007688546140189148,2.7098076960336572e-05
0.030047867542268188,0.0007839465374028398,2.748627724819201e-05
0.029757196190627024,0.0007988978033360636,2.7881988333376734e-05
0.02944874839529125,0.0008136992894825432,2.8285137606581387e-05
0.029123446974946048,0.0008283423383251024,2.8695648013533298e-05
0.028782196910751005,0.0008428187492965267,2.9113438285438704e-05
0.028425881666311548,0.0008571207689407923,2.9538423164998035e-05
0.02805536001174469,0.0008712410793603063,2.997051362707331e-05
0.02767146333326493,0.0008851727851965587,3.0409617093212528e-05
0.027274993402762945,0.0008989093993805658,3.085563763935681e-05
0.026866720568728082,0.0009124448278734385,3.130847619617031e-05
0.026447382317467905,0.0009257733535949876,3.176803074153742e-05
0.02601768214788963,0.0009388896197113269,3.2234196484864e-05
0.02557828870012123,0.0009517886124233296,3.270686604289766e-05
0.02512983507266515,0.0009644656433665261,3.318592960684512e-05
0.024672918259612014,0.0009769163316995955,3.367127510061165e-05
0.0242080986502557,0.0009891365859270623,3.416278833001832e-05
0.023735899561289422,0.0010011225854799487,3.466035312287007e-05
0.023256806803499615,0.001012870762071146,3.5163851459757845e-05
0.02277126830451573,0.0010243777808481497,3.567316359548767e-05
0.0222796938128258,0.001035640521377485,3.618816817104408e-05
0.021782454701879218,0.0010466560585061613,3.6708742316014994e-05
0.02127988388181832,0.0010574216431520856,3.723476174142955e-05
0.020772275815788003,0.0010679346830764873,3.7766100822986696e-05
0.020259886638141,0.0010781927236899694,3.830263267467831e-05
0.019742934391923258,0.0010881934289474855,3.884422921283768e-05
0.019221599436403922,0.0010979345624045672,3.939076121067569e-05
0.01869602510194312,0.001107413968539154,3.994209834341162e-05
0.01816631867257033,0.0011166295544827824,4.04981092241671e-05
0.017632552755824926,0.0011255792723398814,4.1058661430872765e-05
0.017094767067940986,0.0011342611022958228,4.162362152453169e-05
0.016552970635196087,0.001142673036721607,4.219285505928604e-05
0.016007144395749223,0.0011508130654793432,4.276622658483628e-05
0.01545724417848335,0.0011586791626229014,4.334359964186184e-05
0.014903204033660121,0.0011662692746759373,4.392483675118655e-05
0.014344939893088922,0.0011735813106576246,4.450979939751994e-05
0.013782353539390814,0.0011806131340157445,4.509834800868828e-05
0.013215336855095176,0.0011873625566143661,4.569034193134581e-05
0.01264377629988283,0.0011938273349031106,4.628563940422518e-05
0.012067557540640718,0.0012000051683632416,4.688409753004177e-05
0.011486570151853536,0.0012058937002863651,4.748557224720417e-05
0.010900712317196201,0.0012114905209036275,4.808991830250167e-05
0.010309895482666327,0.001216793172853593,4.869698922594097e-05
