frame_number,force
0,655.1516100000339
1,655.7296869596079
2,656.2867766705749
3,656.8041366838962
4,657.2671653955362
5,657.6666824081304
6,657.9994494876943
7,658.2679132013077
8,658.4792635698179
9,658.6439999353086
10,658.7742597035805
11,658.882181149419
12,658.9785352790453
13,659.0717854336298
14,659.1676370597042
15,659.2690448279005
16,659.3765710087222
17,659.4889571025448
18,659.6037801515362
19,659.718091989175
20,659.828965977168
21,659.9339052773289
22,660.0311016405077
23,660.1195620561246
24,660.1991331727556
25,660.2704525750707
26,660.3348458058524
27,660.3941722417244
28,660.4506135034019
29,660.5064078148521
30,660.5635582576933
31,660.6235628290482
32,660.6872131101304
33,660.754484566798
34,660.8245129114582
35,660.8956411796573
36,660.9655311378114
37,661.0313372243651
38,661.0899308070093
39,661.1381521325203
40,661.1730725467529
41,661.1922646941821
42,661.1940818945853
43,661.1779247526462
44,661.1444341711573
45,661.0955291465596
46,661.0342337600773
47,660.964304095995
48,660.8897322062642
49,660.8142346845066
50,660.740825272358
51,660.6715419396105
52,660.6073631711419
53,660.5483134789644
54,660.4937282048843
55,660.4426203640443
56,660.3940665311043
57,660.347514072447
58,660.30292482924
59,660.2607189522295
60,660.2215523420505
61,660.1860178094282
62,660.1543761603039
63,660.1264000014081
64,660.1013722544888
65,660.078241627766
66,660.0559004705775
67,660.0335158810132
68,660.0108285885166
69,659.9883524103013
70,659.9674440354356
71,659.9502331995092
72,659.9394007272779
73,659.9377972767243
74,659.947931210643
75,659.9714016752548
76,660.0083775663487
77,660.0572145219616
78,660.11428006457
79,660.1740390967002
80,660.2294315044596
81,660.2725314130572
82,660.2954098972834
83,660.2910578526232
84,660.2542045675909
85,660.1819027369785
86,660.073816893993
87,659.9322194212402
88,659.7617494411969
89,659.5690141045436
90,659.3621069908511
91,659.1500958633601
92,658.9425066355341
93,658.74881026093
94,658.5779065978987
95,658.4375971426018
96,658.3340510345066
97,658.2712916479609
98,658.2507531559739
99,658.2709739508838
100,658.3275073746169
101,658.4131291287669
102,658.5183878528052
103,658.6324771273773
104,658.7443238848535
105,658.84372652515
106,658.922364066084
107,658.974533280417
108,658.9975287447636
109,658.9916364429854
110,658.9597554644338
111,658.9067010991246
112,658.8382882144793
113,658.7603431800094
114,658.677819467801
115,658.5941689815123
116,658.5110510671736
117,658.4283770164465
118,658.344622922242
119,658.2573122519051
120,658.1635703296372
121,658.0606751110831
122,657.9465548882971
123,657.8202012478308
124,657.6819728575626
125,657.5337642398437
126,657.3790095165685
127,657.2225003758973
128,657.0700305335117
129,656.9279191004923
130,656.8024819953034
131,656.6995037786252
132,656.6237352676873
133,656.5784373631993
134,656.56501410864
135,656.582800912742
136,656.6290698330823
137,656.6992828406338
138,656.7875836305675
139,656.887479340649
140,656.9926251596459
141,657.0975928093108
142,657.198494292392
143,657.2933530575564
144,657.3821583863693
145,657.4665986670592
146,657.5495408925261
147,657.6343859882379
148,657.7244496309996
149,657.8224853566252
150,657.9304038040921
151,658.049180203182
152,658.1788991934739
153,658.3188676535194
154,658.467735513001
155,658.6235983990299
156,658.7840965933493
157,658.946547598135
158,659.1081437953031
159,659.2662184916055
160,659.4185439021129
161,659.5635880281226
162,659.7006454402497
163,659.8297833785908
164,659.9516012997445
165,660.0668641600919
166,660.1761087197729
167,660.2793221614166
168,660.3757616335743
169,660.4639419497677
170,660.5417793368563
171,660.6068499983801
172,660.6567125627595
173,660.6892518376418
174,660.7030122375857
175,660.6974909301798
176,660.6733542897352
177,660.6325341894735
178,660.5781648289269
179,660.5143470595317
180,660.4457689981806
181,660.3772458944436
182,660.3132518907214
183,660.2575028524137
184,660.2126264873507
185,660.179939875822
186,660.1593503758132
187,660.1493918670353
188,660.147394051038
189,660.1497636125999
190,660.1523415962806
191,660.1507911933255
192,660.1409619640121
193,660.119176064491
194,660.0824010478902
195,660.0283156723668
196,659.9553199915156
197,659.8625556368413
198,659.7499743612835
199,659.6184456069211
200,659.4698601182159
201,659.3071807947099
202,659.1344067112482
203,658.9564345094078
204,658.7788098287557
205,658.6073626369022
206,658.4477326461414
207,658.3048277795672
208,658.1823072326571
209,658.0822088664505
210,658.0048237076404
211,657.9488606382394
212,657.9118676652221
213,657.8908124704382
214,657.8826943896381
215,657.8850674107888
216,657.896387239952
217,657.9161363617019
218,657.9447211014466
219,657.9831761169161
220,658.032751308708
221,658.0944787240564
222,658.1688083698165
223,658.2553674788529
224,658.3528609281728
225,658.4591064137828
226,658.5711832472922
227,658.6856629326551
228,658.7988846962171
229,658.9072401896287
230,659.0074353128826
231,659.0967039470407
232,659.1729637043968
233,659.2349255917592
234,659.2821785115016
235,659.3152485841682
236,659.3356004590922
237,659.3455446129778
238,659.3480501745332
239,659.3464985122322
240,659.3444152716023
241,659.3451995444424
242,659.3518593390708
243,659.3667689437013
244,659.3914687236884
245,659.4265219828362
246,659.4714373097266
247,659.5246709101988
248,659.583737572692
249,659.6454611324187
250,659.7063697409402
251,659.763194458166
252,659.8133848440029
253,659.8555307250673
254,659.8895800902089
255,659.9167711915917
256,659.939259193548
257,659.959509037781
258,659.9796075971306
259,660.0006678491412
260,660.022446989902
261,660.043226919701
262,660.0599586096085
263,660.0686518809381
264,660.0649683460099
265,660.0449358682816
266,660.0056663312101
267,659.945947169203
268,659.8665993610208
269,659.7705421549006
270,659.662557902197
271,659.5487943424995
272,659.4360769173177
273,659.3311329922201
274,659.239846546953
275,659.1666570043498
276,659.1141885643688
277,659.0831527857302
278,659.0725142533421
279,659.0798562968813
280,659.1018484014054
281,659.1347181682552
282,659.1746674395133
283,659.218215561258
284,659.2624718735301
285,659.3053315049951
286,659.3455723542603
287,659.3828239384808
288,659.4173917385942
289,659.4499592553229
290,659.4812403784371
291,659.5116839115469
292,659.541317613224
293,659.5697704677394
294,659.5964562137099
295,659.620857806093
296,659.6428289973121
297,659.6628283627077
298,659.682020349683
299,659.7022104917228
300,659.725622657242
301,659.7545668772947
302,659.7910691228353
303,659.8365269659263
304,659.8914284045094
305,659.9551490136703
306,660.0258381473001
307,660.1004139979276
308,660.1746932046115
309,660.2436650929959
310,660.3018834353185
311,660.3439148259989
312,660.3647798791378
313,660.3603514817407
314,660.3277042098167
315,660.265414756613
316,660.1737981965405
317,660.0550486747544
318,659.9132456232567
319,659.7541901874489
320,659.5850587115948
321,659.413901436991
322,659.2490523277013
323,659.0985233519289
324,658.9694357707288
325,658.8675202781532
326,658.796716009565
327,658.7589052164533
328,658.7538155641738
329,658.7791030252972
330,658.8306109148768
331,658.9027957479241
332,658.98930756935
333,659.0836897525189
334,659.1801181849719
335,659.2740585753381
336,659.3627149729681
337,659.4451803732231
338,659.5222628843295
339,659.596024708594
340,659.6691247639094
341,659.744095710938
342,659.8227041744342
343,659.9055256779469
344,659.9918102303501
345,660.0796405149604
346,660.1663224324657
347,660.2489111941444
348,660.3247596539563
349,660.3919759701048
350,660.4497020568311
351,660.4981706320815
352,660.5385458727488
353,660.572584132787
354,660.6021753210872
355,660.6288543774389
356,660.6533936863372
357,660.6755789088884
358,660.6942281444642
359,660.7074525929069
360,660.7130975367578
361,660.7092645313224
362,660.6948081147362
363,660.6697163813855
364,660.6353093482248
365,660.5942168648395
366,660.5501339743003
367,660.5073938561593
368,660.4704355088439
369,660.4432644602409
370,660.428998026429
371,660.4295463375748
372,660.4454264758966
373,660.4756735223049
374,660.5178126697627
375,660.5678825356858
376,660.6205406791677
377,660.6693166851228
378,660.7070698835284
379,660.7266466807952
380,660.7216530674053
381,660.6872084021674
382,660.6205471758603
383,660.5213765639987
384,660.3919512997182
385,660.2368682606399
386,660.0626092052264
387,659.876884667361
388,659.6878572062972
389,659.5033342865457
390,659.3300130816571
391,659.1728449316955
392,659.0345796509534
393,658.9155424484725
394,658.8136788994345
395,658.7248811842687
396,658.6435826993132
397,658.5635660294844
398,658.478874625961
399,658.3846821504641
400,658.2779818275956
401,658.1580068330111
402,658.0263565309561
403,657.8868566900818
404,657.7452068262728
405,657.6084627888158
406,657.484387719625
407,657.3807047485827
408,657.3043062248253
409,657.2605004498096
410,657.252386046383
411,657.2804297942594
412,657.3422971822624
413,657.4329572430083
414,657.5450568302117
415,657.6695348008379
416,657.7964221237705
417,657.9157462370799
418,658.0184338128296
419,658.0971028666955
420,658.1466603987412
421,658.1646639106092
422,658.151445081131
423,658.1100174978858
424,658.0457956454301
425,657.9661492170209
426,657.8798163288683
427,657.7962047714955
428,657.7246218800002
429,657.673492211078
430,657.6496424633851
431,657.6577384729085
432,657.6999395717653
433,657.7758008070581
434,657.8824201954633
435,658.0148041962096
436,658.1664080547018
437,658.3297923325849
438,658.4973209222611
439,658.6618199793757
440,658.8171345948651
441,658.9585528247621
442,659.0830875987207
443,659.1896031239045
444,659.2787651716121
445,659.3528116083083
446,659.4151749365316
447,659.4700122966796
448,659.5216985832121
449,659.5743317605812
450,659.6312997846229
451,659.6949582820455
452,659.7664553573113
453,659.845715039166
454,659.9315636653298
455,660.021964361702
456,660.1143200104693
457,660.2058108281223
458,660.2937358756385
459,660.3758238537508
460,660.4504795724473
461,660.5169460284517
462,660.5753762135271
463,660.6268134502591
464,660.6730816902068
465,660.716596474932
466,660.7601204252834
467,660.8064978165169
468,660.8584051652446
469,660.9181422268746
470,660.9874611815416
471,661.0674079211955
472,661.1581501320951
473,661.2587957206621
474,661.3672424963884
475,661.4801226490544
476,661.5929007876599
477,661.7001497105185
478,661.7959748483535
479,661.8745160212401
480,661.9304508841818
481,661.9594505922761
482,661.9585615728544
483,661.926493075135
484,661.8637926974363
485,661.7729005619676
486,661.6580761969929
487,661.5251856905103
488,661.3813362241541
489,661.2343653133623
490,661.0922280871929
491,660.9623596736534
492,660.8511027167876
493,660.7632752310266
494,660.7019209401489
495,660.6682477550469
496,660.6617304306225
497,660.680338827566
498,660.7208542449722
499,660.7792399421767
500,660.8510271768492
501,660.9316723903537
502,661.0168484837368
503,661.1026520793602
504,661.1857259228658
505,661.263304918378
506,661.3331989981812
507,661.3937290278135
508,661.4436371134765
509,661.482004875262
510,661.5082233178192
511,661.5220436462915
512,661.5236955789503
513,661.5140173406674
514,661.4945312305517
515,661.4674218101044
516,661.4354092339898
517,661.4015405343322
518,661.3689406279606
519,661.3405713540561
520,661.3190408131744
521,661.3064878896573
522,661.3045435474813
523,661.3143510515555
524,661.3366192223407
525,661.3716849767511
526,661.419565646454
527,661.4799820878512
528,661.5523344047336
529,661.6356231042911
530,661.728331523799
531,661.8283074783349
532,661.932688813912
533,662.0379096284488
534,662.1398125444437
535,662.2338817984543
536,662.3155974589249
537,662.3808893749198
538,662.4266398721204
539,662.4511511861782
540,662.4544755760137
541,662.4385259552105
542,662.4069424159704
543,662.3647555168376
544,662.3179277185588
545,662.2728567667938
546,662.2358972257409
547,662.2129226838334
548,662.2089393167516
549,662.2277764978232
550,662.2718951486781
551,662.342345049675
552,662.4388728423452
553,662.5601477596869
554,662.7040402346227
555,662.8678715437719
556,663.0485657283571
557,663.2426774563722
558,663.4463234511525
559,663.655089478507
560,663.8640017504046
561,664.0676336677134
562,664.2603780732658
563,664.4368716959767
564,664.5925192926663
565,664.7240279713182
566,664.8298373834514
567,664.910340433063
568,664.9678396797706
569,665.0062560035147
570,665.0306625867362
571,665.0467349181478
572,665.0601886951309
573,665.0762454744868
574,665.0991489063402
575,665.1317638874963
576,665.1753096608331
577,665.2292780505661
578,665.2915618014041
579,665.3587814214192
580,665.4267704625873
581,665.4911628551613
582,665.5480148528327
583,665.5943818796324
584,665.6287578724828
585,665.6512847777935
586,665.6636725284418
587,665.6688352564298
588,665.6703154538241
589,665.6716016961506
590,665.6754485728991
591,665.6832998828261
592,665.6949050955503
593,665.7081976843949
594,665.7194660039537
595,665.7237939471594
596,665.7156925656909
597,665.6898066872716
598,665.6415771568257
599,665.5677672075849
600,665.4668021570432
601,665.3389042175995
602,665.1860233891783
603,665.0115800501575
604,664.8200506363238
605,664.6164439287412
606,664.4057328337751
607,664.1923221109279
608,663.9796329026332
609,663.7698616006616
610,663.5639343573749
611,663.361646988992
612,663.1619572418819
613,662.9633745045958
614,662.7643686194252
615,662.5637060854974
616,662.3606349604992
617,662.1548831727781
618,661.9464918952099
619,661.7355496134536
620,661.5219092590938
621,661.3049659314585
622,661.0835575230979
623,660.8560266598556
624,660.6204470959605
625,660.3749776135237
626,660.118274242265
627,659.8498732769601
628,659.5704551679675
629,659.28192080165
630,658.9872601211619
631,658.6902490679944
632,658.3950443458418
633,658.1057457893281
634,657.8259767044871
635,657.5585108020055
636,657.3049614432595
637,657.0655542897791
638,656.8390290421389
639,656.6227385064019
640,656.41299988802
641,656.2056895180476
642,655.9969832050963
643,655.784080723386
644,655.565751037677
645,655.3425878934544
646,655.1169384723702
647,654.8925353979205
648,654.6739178865113
649,654.4657661713403
650,654.272282704728
651,654.096725231168
652,653.9411389468729
653,653.8062769761743
654,653.6916686521602
655,653.5957917385243
656,653.5163056121381
657,653.4503040856108
658,653.3945656386918
659,653.3458106718857
660,653.3009855761733
661,653.2575631771799
662,653.2138038818032
663,653.1689052833103
664,653.1229997061919
665,653.0770185865309
666,653.0324886831792
667,652.9913298882643
668,652.9556878283295
669,652.9277805662047
670,652.909704812632
671,652.9031609002842
672,652.9091122498747
673,652.9274588734751
674,652.9568349816484
675,652.9946174174557
676,653.037167828125
677,653.0802644463745
678,653.1196378483313
679,653.1515100675559
680,653.1730381586659
681,653.1825832463136
682,653.1797686952397
683,653.1653449334377
684,653.1409228646111
685,653.1086604679468
686,653.0709855194766
687,653.0304123370788
688,652.9894700299193
689,652.9507202169558
690,652.9168180569145
691,652.8905674179993
692,652.8749364384686
693,652.8730207191196
694,652.8879504044759
695,652.922729724286
696,652.9799892706943
697,653.0616464546874
698,653.1685145499249
699,653.2999500636301
700,653.4536480713956
701,653.625675172998
702,653.8107793011027
703,654.0029501299973
704,654.1961461318671
705,654.3850738095529
706,654.5658980874892
707,654.7367664160565
708,654.898044799047
709,655.0522056596778
710,655.2033763640692
711,655.3566336326077
712,655.517186129848
713,655.6896055380653
714,655.8772395259887
715,656.0818803475852
716,656.3036959326832
717,656.5413780342361
718,656.7924328171246
719,657.0535336218605
720,657.3208662310311
721,657.5904118502284
722,657.8581314189177
723,658.1200459667117
724,658.372247715941
725,658.6109057884274
726,658.8323340349431
727,659.0331651298429
728,659.2106284604951
729,659.3628704268767
730,659.4892119351863
731,659.5902433106143
732,659.6677196112283
733,659.7243018486254
734,659.7632376131619
735,659.7880652152253
736,659.8023777127714
737,659.8096335861762
738,659.8129794406713
739,659.8150630040392
740,659.8178415503793
741,659.8224104700886
742,659.8288863782636
743,659.8363804788092
744,659.8430826298221
745,659.8464434044532
746,659.8434120283488
747,659.830686959291
748,659.8049615392283
749,659.7631755447921
750,659.7027913548067
751,659.6220929980573
752,659.5204712587907
753,659.3986362518467
754,659.2587067250022
755,659.1041529683201
756,658.9395972717941
757,658.7704907377973
758,658.6026895579341
759,658.4419594983159
760,658.2934547959322
761,658.1612410005226
762,658.0479404400041
763,657.9545599593262
764,657.8805204907984
765,657.8238671583073
766,657.781608903385
767,657.7501158899066
768,657.7254908497597
769,657.703838087073
770,657.6813907484202
771,657.6545140474755
772,657.6196541816967
773,657.5733269022875
774,657.5122263396357
775,657.4334897376582
776,657.3350990752245
777,657.2163576726836
778,657.078350884217
779,656.9242814243039
780,656.7595778037838
781,656.5917252948102
782,656.4298407874763
783,656.2840598731466
784,656.1648106165907
785,656.0820374494657
786,656.0444316368155
787,656.0587192200026
788,656.1290491280047
789,656.25652465401
790,656.4389387020365
791,656.670789376319
792,656.9436375312176
793,657.2468116048578
794,657.5683866351638
795,657.8962956006268
796,658.2193974803898
797,658.5283395641192
798,658.8161083067578
799,659.0782403125183
800,659.3127297015072
801,659.5197065122119
802,659.7009831570127
803,659.8595747977865
804,659.9992803575889
805,660.1243605712292
806,660.239292288322
807,660.3485479103666
808,660.4563586570516
809,660.5664502401032
810,660.6817564039225
811,660.8041110445814
812,660.9339208558708
813,661.0698560169144
814,661.2086510594764
815,661.3451313297536
816,661.472540772563
817,661.5831596940737
818,661.6691092045229
819,661.7231840582501
820,661.739563161521
821,661.7143107162319
822,661.6456596403337
823,661.5341160001695
824,661.3824227019891
825,661.1953920098011
826,660.9795920599104
827,660.7428740352702
828,660.4937552472937
829,660.2407169103318
830,659.9915155566082
831,659.7526186232479
832,659.528840207013
833,659.3231890596085
834,659.1368896362607
835,658.9695220459026
836,658.8192367489145
837,658.6830146186531
838,658.556956655526
839,658.436604308778
840,658.3173062433262
841,658.1946409437393
842,658.0648693791255
843,657.9253555827546
844,657.7748869604159
845,657.6138470060549
846,657.4442195719838
847,657.2694288608515
848,657.0940436688988
849,656.9233912237663
850,656.7631272389648
851,656.61879651859
852,656.49540535521
853,656.3970279950349
854,656.3264845678547
855,656.2851354393757
856,656.2728170348041
857,656.2879074197934
858,656.327489013592
859,656.3875867657197
860,656.4634835447353
861,656.5501185551783
862,656.6425488303491
863,656.7364169999128
864,656.8283471694575
865,656.9161960447439
866,656.999113905227
867,657.0774108925275
868,657.152266718777
869,657.2253510009899
870,657.2984276144422
871,657.3730057303009
872,657.4500863356462
873,657.5300381417026
874,657.6126091161385
875,657.6970384653027
876,657.782203338409
877,657.8667425375255
878,657.9491441984003
879,658.0278319065395
880,658.1012992659901
881,658.1683185358883
882,658.2281999520239
883,658.2810287436416
884,658.327783360822
885,658.3702584914258
886,658.4107736822448
887,658.451718642641
888,658.4950420792898
889,658.5418093894552
890,658.5919301893234
891,658.6441064380368
892,658.6959982304384
893,658.7445608986751
894,658.786483148741
895,658.8186560191089
896,658.838616347597
897,658.8449160692094
898,658.8373610872098
899,658.8170567487049
900,658.7862204175375
901,658.7477832592949
902,658.7048706310501
903,658.66027994146
904,658.6160551881496
905,658.5732109380365
906,658.5316111251303
907,658.4899730863062
908,658.4459533778188
909,658.3962860558129
910,658.3369790700666
911,658.2636055545598
912,658.1717301706379
913,658.0574795361885
914,657.9182089698342
915,657.7531538905633
916,657.5639113709813
917,657.3546039480634
