acceleration,velocity,displacement
-0.06397226054908825,0.0,0.0
-0.05537279441399736,-5.967252748154281e-05,-2.9836263740771404e-08
-0.047085534345374276,-0.00011090169186122863,-1.1512337341215712e-07
-0.0393892927973883,-0.00015413910543260993,-2.476437720590764e-07
-0.03250128306204658,-0.0001900843933623274,-4.1975552145654504e-07
-0.02655807262389123,-0.0002196140712052963,-6.246047537403569e-07
-0.02160783341406153,-0.00024369702422427267,-8.562603014551413e-07
-0.017614170329096807,-0.00026330802609585185,-1.1097628266152036e-06
-0.01447012470240003,-0.0002793501736116003,-1.3810919264689297e-06
-0.012019508443107193,-0.0002925949901843539,-1.6670645083669068e-06
-0.010081765643524605,-0.0003036456272276698,-1.9651848170729187e-06
-0.008476327468956083,-0.0003129246737839102,-2.2734699675787085e-06
-0.00704296455598283,-0.00032068431979637965,-2.5902744643688533e-06
-0.005655776339673662,-0.0003270336902442079,-2.914133469389147e-06
-0.004229888663700029,-0.00033197652274589474,-3.2436385758841987e-06
-0.0027213478820682503,-0.0003354521410187789,-3.5773529077665354e-06
-0.001121789665299202,-0.0003373737097924626,-3.913765833172156e-06
0.0005500645608139419,-0.00033765957234470524,-4.2512824742407395e-06
0.002258170903708478,-0.00033625545461244403,-4.588239987719314e-06
0.003958672472461298,-0.00033314703292435915,-4.922941231487716e-06
0.005608032629818774,-0.0003283636803732191,-5.2536965881365045e-06
0.007169108439930872,-0.00032197510983834426,-5.578865983242286e-06
0.008615000409446507,-0.0003140830554136556,-5.896895065868286e-06
0.00993093652451633,-0.0003048100869466742,-6.2063416370484515e-06
0.011114635531141092,-0.00029428730091884546,-6.5058903309812116e-06
0.012175582131461747,-0.00028264219208754405,-6.794355077484406e-06
0.013133495084512265,-0.00026998765347955705,-7.070670000267957e-06
0.014016034455347437,-0.0002564128887096272,-7.333870271362548e-06
0.014855654008382518,-0.0002419770444777622,-7.583065237956243e-06
0.015685649537352034,-0.00022670639270489494,-7.817406956547572e-06
0.016535818861140583,-0.00021059565850564864,-8.036057982152844e-06
0.01742844616754104,-0.00019361352599130783,-8.238162574401322e-06
0.018375307009493715,-0.00017571164940279047,-8.42282516209837e-06
0.01937603641738765,-0.00015683597768934978,-8.589098975644441e-06
0.02041777725903147,-0.0001369390708511402,-8.735986499914686e-06
0.021475880550463008,-0.00011599224194639297,-8.862452156313453e-06
0.02251556275604917,-9.399652029313687e-05,-8.967446537433217e-06
0.023494493335151672,-7.099149224753645e-05,-9.049940543703555e-06
0.024366130789884262,-4.706118018501848e-05,-9.108966879919832e-06
0.0250834706679979,-2.23363794560774e-05,-9.14366565974038e-06
0.02560294634445092,3.0068290501470092e-06,-9.153330434943346e-06
0.025888448506651836,2.8752526475698386e-05,-9.137450757180422e-06
0.025915481158740164,5.465449130839439e-05,-9.095747248288376e-06
0.025675127702950846,8.04497957392399e-05,-9.02819510476456e-06
0.025176922201783077,0.00010587582069160686,-8.935032296549136e-06
0.024449411623997917,0.00013068898760449735,-8.816749892401084e-06
0.023537582166757824,0.00015468248449987523,-8.674064156348898e-06
0.0224973092962433,0.00017769993023137578,-8.507872948983271e-06
0.021387978730911004,0.00019964257424495292,-8.319201696745107e-06
0.02026487847430123,0.00022046900284755904,-8.109145908198851e-06
0.01917284091197846,0.00024018786254069888,-7.878817475504723e-06
0.01814218285889186,0.00025884537442613404,-7.629300857021306e-06
0.017187460244718275,0.0002765101959779391,-7.36162307181927e-06
0.016309037709867327,0.0002932584449552319,-7.076738751352684e-06
0.015497027806770472,0.0003091614777135508,-6.775528790018293e-06
0.01473674816015519,0.00032427836569701363,-6.45880886831301e-06
0.014014461905390593,0.00033865397072978655,-6.12734270009961e-06
0.013321948071205634,0.0003523221757180847,-5.7818546268756745e-06
0.01265863900725351,0.0003653124692573143,-5.423037304387975e-06
0.012030784871150538,0.0003776571811965163,-5.05155247916106e-06
0.011448142833127114,0.0003893966450486551,-4.668025566038475e-06
0.010919531538643905,0.0004005804822345406,-4.273037002396877e-06
0.010448830733851501,0.0004112646633707883,-3.867114429594213e-06
0.010032657719118081,0.0004215054075972731,-3.450729394110182e-06
0.009660345246693477,0.0004313519090801789,-3.024300735771456e-06
0.009316254312275283,0.00044084020885966325,-2.5882046768015346e-06
0.008983907517476524,0.00044999028977453915,-2.1427894274844333e-06
0.008650914623159435,0.0004588077008448571,-1.688390432174735e-06
0.00831341872353898,0.0004672898675182063,-1.2253416479932032e-06
0.00797906335751525,0.00047543610855873343,-7.539786599547334e-07
0.0076680306159059314,0.00048325965554544403,-2.746307779026446e-07
0.007412002420602716,0.0004907996720636984,2.1239888590192667e-07
0.007250858689530948,0.0004981311026187652,7.068642732431584e-07
0.007227005777722872,0.0005053700348523921,1.208614841978737e-06
0.007377758060971685,0.0005126724167717394,1.7176360677908026e-06
0.007726904419880237,0.0005202247480121655,2.234084650182755e-06
0.008276957346243454,0.0005282266788952273,2.758310363636451e-06
0.009003455330600181,0.0005368668852336491,3.2908571457008893e-06
0.009852361679512419,0.0005462947937387054,3.832437985187066e-06
0.01074133634725878,0.000556591642752091,4.383881203432465e-06
0.011565353161593295,0.000567744987506517,4.946049518561768e-06
0.012206506901198419,0.0005796309175379129,5.519737471083983e-06
0.012546846966767935,0.000592007594471896,6.1055567270888875e-06
0.012482106000960462,0.0006045220709557603,6.703821559802715e-06
0.011933876960945425,0.0006167300624367133,7.314447626498952e-06
0.010858315768686518,0.0006281261588015292,7.936875737118073e-06
0.00925043202407004,0.0006381805326979075,8.570029082867792e-06
0.0071440296643404365,0.0006463777635421127,9.2123082309878e-06
0.004608120221569209,0.0006522538384850676,9.86162403200139e-06
0.0017409915925250521,0.0006554283943921148,1.0515465148439982e-05
-0.0013369562271207695,0.0006556304120748169,1.1170994551673448e-05
-0.004490831296739241,0.0006527165183128869,1.18251680168673e-05
-0.007578926238310826,0.0006466816395453618,1.2474867095796424e-05
-0.010460351256746502,0.0006376620007978331,1.3117038915968021e-05
-0.013002712162608102,0.0006259304690881558,1.3748835150911015e-05
-0.015089953989627213,0.0006118841360120382,1.4367742453461112e-05
-0.01663030469075419,0.0005960240066718474,1.4971696524803056e-05
-0.017563912595931482,0.0005789268980285046,1.5559171977153233e-05
-0.017869442964133123,0.0005612102202484724,1.6129240536291722e-05
-0.017568638653959634,0.000543491179439426,1.668159123613567e-05
-0.016727648099256393,0.000526343036062818,1.7216508343886793e-05
-0.015453939879190696,0.0005102522420735945,1.7734805982954998e-05
-0.01388811232318936,0.0004955812159724044,1.8237722711978e-05
-0.012190921600031247,0.0004825416990107941,1.87267841694696e-05
-0.010527090535141344,0.0004711826929432078,1.92036463654466e-05
-0.009048378012853268,0.0004613949586692105,1.966993519125281e-05
-0.007878566867453257,0.00045293148622905724,2.0127098413701944e-05
-0.007102498241087346,0.00044544095367478695,2.0576284633653867e-05
-0.00676041798060536,0.0004385094955639406,2.101825985827323e-05
-0.006848071793406926,0.00043170525067693445,2.1453367231393667e-05
-0.007322332859978734,0.0004246200483502416,2.1881529880907255e-05
-0.008111568981984873,0.0004169030974292598,2.2302291453797004e-05
-0.009129278259213391,0.00040828267380866066,2.2714884339415963e-05
-0.010288787686499504,0.00039857364083580423,2.3118312496738194e-05
-0.011516409470632002,0.0003876710422572385,2.3511434838284716e-05
-0.012760793132892726,0.0003755324409554761,2.3893036579891073e-05
-0.01399725426101252,0.0003621534172585235,2.4261879508998075e-05
-0.015227112479203888,0.0003475412338884153,2.4616726834571543e-05
-0.016473037411616074,0.0003316911589430053,2.4956343030987255e-05
-0.017771869929258458,0.00031456870527256804,2.5279472963095042e-05
-0.01916637367591385,0.0002960995834699819,2.5584807107466318e-05
-0.020697041751788308,0.0002761678757561308,2.5870940837079374e-05
-0.022394692860216305,0.00025462200845012854,2.6136335779182503e-05
-0.024274328147939832,0.00023128749794605046,2.6379290532380593e-05
-0.02633061207576728,0.00020598502783419692,2.6597926795270716e-05
-0.02853536175121228,0.00017855204092070712,2.6790195329648167e-05
-0.03083749121686417,0.0001488656144366689,2.6953904157326853e-05
-0.033165719375319556,0.00011686400914057703,2.7086768969115476e-05
-0.03543385897940226,8.256421996321613e-05,2.718648308366737e-05
-0.037547907006087566,4.607333697047121e-05,2.7250801862134216e-05
-0.03941390792567215,7.592429504591355e-06,2.727763474537175e-05
-0.04094581068067779,-3.2587429798583617e-05,2.726513724522475e-05
-0.04207294216918574,-7.409680622351539e-05,2.7211795127213702e-05
-0.04274679327012163,-0.00011650667394316908,2.711649338713036e-05
-0.042946477449008605,-0.00015935330930273419,2.6978563395507406e-05
-0.04268188115781689,-0.00020216748860614692,2.6797802996552967e-05
-0.04199358523634058,-0.00024450522180322564,2.657446664134828e-05
-0.040949097351670384,-0.00028597656309723113,2.630922574889805e-05
-0.0396355358264092,-0.00032626887968627093,2.60031030275063e-05
-0.03814948840372797,-0.0003651613918013395,2.5657387891762494e-05
-0.03658534042181117,-0.00040252880621410907,2.527354279275477e-05
-0.03502384288480744,-0.0004383333978674184,2.4853111690714007e-05
-0.03352283359466606,-0.00047260673610715514,2.439764162372672e-05
-0.03211171570605639,-0.0005054240107575164,2.3908626250294385e-05
-0.030790648666289066,-0.0005368751929436892,2.3387476648443783e-05
-0.029534516031690092,-0.0005670377752926787,2.2835520164325598e-05
-0.028300668449185672,-0.0005959553675331166,2.22540235929127e-05
-0.027038513791024368,-0.0006236249586532216,2.164423342981953e-05
-0.025698728087572193,-0.0006499935795925199,2.100742416069666e-05
-0.024240349772049526,-0.0006749631185223307,2.0344945811639234e-05
-0.02263495620122293,-0.0006984007715089669,1.9658263866623586e-05
-0.02086803986818885,-0.0007201522695436728,1.8948987346097265e-05
-0.018938341675555456,-0.000740055460315545,1.8218883481167656e-05
-0.016856172489934068,-0.0007579527173982897,1.746987939231074e-05
-0.014641615941686984,-0.0007737016116141003,1.6704052227804544e-05
-0.012323001459783402,-0.0007871839203148355,1.5923609461840075e-05
-0.009935432185598558,-0.0007983131371375265,1.5130860933113894e-05
-0.00751881292560341,-0.0008070402596931275,1.4328184234698566e-05
-0.005114909773796513,-0.0008133571210428275,1.351798554433059e-05
-0.0027633924279592964,-0.0008172962721437054,1.2702658847737323e-05
-0.0004974013908187956,-0.0008189266690530944,1.1884547377138922e-05
0.0016602733427206321,-0.0008183452330771435,1.1065911426073804e-05
0.0036991378133245053,-0.0008156655274991209,1.0248906045785672e-05
0.0056201922838895356,-0.0008110058624505138,9.435570350810855e-06
0.007432354263810799,-0.0008044795891766637,8.627827624997266e-06
0.00914700323532688,-0.0007961899104270949,7.827492875195387e-06
0.010772124036044774,-0.0007862303467914091,7.0362827465861355e-06
0.012307525994905118,-0.0007746905217759342,6.2558223123024635e-06
0.013742158462382453,-0.0007616656795472904,5.487644211640851e-06
0.015053927821683178,-0.0007472676364052576,4.733177553664577e-06
0.01621183588777479,-0.0007316347545505286,3.993726358186684e-06
0.017179826292675712,-0.0007149389234603034,3.270439519181268e-06
0.017921581221129176,-0.0006973882197034009,2.564275947599416e-06
0.01840563509626901,-0.0006792246115447019,1.8759695319753644e-06
0.01861033464597906,-0.0006607166266735778,1.2059989128662244e-06
0.018528199741150882,-0.0006421473594800128,5.545669197894291e-07
0.018169143358293345,-0.0006237986879302907,-7.840610391572263e-08
0.017561904021007844,-0.0006059331642406401,-6.93272030001188e-07
0.016753106045126354,-0.000588775659207573,-1.2906264417252945e-06
0.015803753648975682,-0.000572497229360522,-1.871262886009342e-06
0.014783587204989389,-0.0005572035589335395,-2.4361132801563726e-06
0.013764238309832172,-0.0005429296461761287,-2.9861798827112065e-06
0.012812264253880361,-0.0005296413948942724,-3.522465403246407e-06
0.011982942207653011,-0.0005172437916635057,-4.045907996525296e-06
0.011315361922304985,-0.0005055946395985268,-4.557327212156313e-06
0.01082911626892545,-0.0004945224005029115,-5.057385732207032e-06
0.010522827105983448,-0.00048384642881545706,-5.546570146866217e-06
0.010374684445091409,-0.00047339767303991966,-6.025192197793905e-06
0.010344964957523408,-0.00046303784833861227,-6.493409958483172e-06
0.010380214527792137,-0.0004526752585959545,-6.951266511950455e-06
0.01041856458307745,-0.00044227586904051967,-7.398742075768692e-06
0.010395500806728387,-0.00043186883634561675,-7.83581442846176e-06
0.01024928130564908,-0.000421546445289428,-8.262522069279283e-06
0.009925194517458866,-0.000411459207377874,-8.679024895612935e-06
0.00937812979772297,-0.0004018075452202831,-9.085658271912013e-06
0.008573556379747575,-0.00039283170213154784,-9.48297789558793e-06
0.007487673479396694,-0.0003848010872019757,-9.87179429025469e-06
0.006107712016907607,-0.0003780033944538236,-1.025319653108259e-05
0.004432954269569152,-0.0003727330613105852,-1.0628564758964794e-05
0.0024763340476459967,-0.0003692784171519776,-1.0999570498196075e-05
0.00026597804378838524,-0.00036790726110626036,-1.1368163337325194e-05
-0.0021540376828384587,-0.0003688512909257854,-1.1736542613341218e-05
-0.00472422294129493,-0.0003722904212378521,-1.2107113469423037e-05
-0.00737173534836546,-0.0003783384003826823,-1.2482427880233305e-05
-0.010014078034276803,-0.0003870313070740034,-1.2865112733961648e-05
-0.012564524468584411,-0.000398320608325434,-1.3257788691661366e-05
-0.014939178356716879,-0.00041207245973808466,-1.3662985225693125e-05
-0.01706502949174613,-0.00042807456366231617,-1.4083058737393325e-05
-0.01888764372425702,-0.00044605090027031774,-1.4520121469359643e-05
-0.020376705857101145,-0.0004656830750609968,-1.49759884570253e-05
-0.021527886580575264,-0.000486635371279835,-1.5452147680195716e-05
-0.022360392550861308,-0.0005085795108455534,-1.594975512125841e-05
-0.0229106995877182,-0.0005312150569148431,-1.6469652405138608e-05
-0.02322391642072505,-0.0005542823649190647,-1.701240111605556e-05
-0.023344680896398615,-0.0005775666635776265,-1.7578325630303907e-05
-0.023309379861328618,-0.0006008936939564902,-1.8167555809070966e-05
-0.023140986214199556,-0.0006241188769942542,-1.878006209454634e-05
-0.022847198508474047,-0.0006471129693555911,-1.9415678017721262e-05
-0.022421972252101373,-0.0006697475547358788,-2.0074108279766997e-05
-0.021849915888710075,-0.0006918834988062845,-2.0754923806538077e-05
-0.02111243591152869,-0.0007133646747064039,-2.1457547893294422e-05
-0.02019417959789453,-0.0007340179824611155,-2.218123922187818e-05
-0.019088452651057318,-0.0007536592985855914,-2.2925077862401532e-05
-0.017800800350590118,-0.0007721039250864151,-2.3687959474237537e-05
-0.01635048893109027,-0.0007891795697272554,-2.4468601221644373e-05
-0.014769982321412254,-0.0008047398053535066,-2.5265560909184754e-05
-0.013102728648125615,-0.0008186761608382755,-2.6077268892280645e-05
-0.011399730178580241,-0.0008309273902516284,-2.6902070667825596e-05
-0.009715444539131111,-0.0008414849776104841,-2.7738276851756653e-05
-0.008103549477907581,-0.0008503944746190035,-2.8584216577871396e-05
-0.0066130479883511825,-0.0008577527733521328,-2.9438290201856965e-05
-0.005285088823651,-0.0008637018417581339,-3.0299017509412098e-05
-0.004150649559133261,-0.0008684197109495261,-3.116507828576593e-05
-0.003228905242543119,-0.0008721094883503643,-3.2035342885415876e-05
-0.0025259713573934418,-0.0008749869266503325,-3.290889109291622e-05
-0.002034021340580117,-0.0008772669229993194,-3.378501801774105e-05
-0.0017312670856385786,-0.0008791495672124287,-3.466322626284692e-05
-0.001583337967957643,-0.0008808068697392267,-3.554320448132275e-05
-0.001546065263366954,-0.000882371571354889,-3.642479370186981e-05
-0.0015691477737315304,-0.0008839291778734383,-3.7307944076483974e-05
-0.001600138037140462,-0.0008855138207788743,-3.819266557581013e-05
-0.0015884712034825738,-0.0008871081253991859,-3.907897654889917e-05
-0.0014894001759578161,-0.0008886470610889061,-3.9966854142143214e-05
-0.0012676050706783616,-0.0008900255637122242,-4.085619045454378e-05
-0.0009001714305291289,-0.0008911094519628279,-4.1746757962381305e-05
-0.00037871955466022564,-0.0008917488974554226,-4.263818713709043e-05
0.00028944032637937044,-0.0008917935370695631,-4.352995835435292e-05
0.001081342748587106,-0.0008911081455320798,-4.442140919565375e-05
0.001960017733658087,-0.0008895874652909572,-4.531175700106527e-05
0.002878216691108855,-0.0008871683480785737,-4.6200134907750036e-05
0.0037842924438975267,-0.0008838370935110705,-4.708563762854486e-05
0.004629616277214965,-0.0008796301391505142,-4.796737124487565e-05
0.005376247873862153,-0.0008746272070749757,-4.8844499917988396e-05
0.006003209510965971,-0.0008689374783825616,-4.971628226071716e-05
0.006509727471260853,-0.0008626810098914482,-5.058209150485417e-05
0.006914221979551135,-0.0008559690351660422,-5.1441416527382915e-05
0.007248753235409122,-0.0008488875475585621,-5.2293844818745216e-05
0.007549989682976902,-0.0008414881760993691,-5.313903268057418e-05
0.007848975618375416,-0.0008337886934486929,-5.397667111534822e-05
0.008162267682628774,-0.0008257830717981908,-5.480645699797166e-05
0.008486253927578121,-0.0008174588109930874,-5.56280779393673e-05
0.008795375921867252,-0.0008088179960683647,-5.644121634289803e-05
0.009044276346558655,-0.0007998981699341518,-5.724557442589929e-05
0.009173597349867104,-0.0007907892330859389,-5.804091812740933e-05
0.009118801127066901,-0.0007816430338474719,-5.8827134260876035e-05
0.00882079822109915,-0.0007726732341733889,-5.960429239488647e-05
0.00823662504381846,-0.00076414452254093,-6.037270127324363e-05
0.007348243483559157,-0.0007563520882772413,-6.113294957865271e-05
0.006167866410825766,-0.0007495940333300488,-6.188592263945635e-05
0.00473892052847966,-0.0007441406398603961,-6.263278997605158e-05
0.003132548039716983,-0.0007402049055762978,-6.337496274876993e-05
0.0014402026472500936,-0.0007379185302328143,-6.411402446667448e-05
-0.00023658046031393726,-0.0007373167191393463,-6.485164209136057e-05
-0.0017977250709299202,-0.0007383338719049682,-6.558946738688272e-05
-0.0031557011702466192,-0.0007408105850255565,-6.632903961534798e-05
-0.004244467955768088,-0.0007445106695885638,-6.707170024265505e-05
-0.005024987859398485,-0.0007491453974961471,-6.78185282761974e-05
-0.005486675741881705,-0.0007544012292967872,-6.857030158959386e-05
-0.005644934426099878,-0.000759967034380778,-6.932748572143265e-05
-0.005535714271703247,-0.0007655573587296796,-7.009024791798787e-05
-0.005208559980285639,-0.0007709294958556741,-7.085849134528055e-05
-0.004719589710476984,-0.0007758935707010554,-7.163190287855891e-05
-0.004125304815332425,-0.00078031601796396,-7.241000767289142e-05
-0.0034774834621573805,-0.0007841174121027049,-7.319222438792476e-05
-0.00281912707492457,-0.0007872657173712458,-7.397791595266174e-05
-0.002181547695151922,-0.000789766054756284,-7.47664318387255e-05
-0.0015829252889621634,-0.0007916482912483411,-7.555713901172781e-05
-0.0010287711548506437,-0.0007929541394702475,-7.634944022708711e-05
-0.0005145409619377967,-0.0007937257955286418,-7.714278019458655e-05
-3.0066961419093442e-05,-0.0007939980994903202,-7.793664214209603e-05
0.00043527066263321254,-0.0007937954976397132,-7.873053894066105e-05
0.0008881483075123497,-0.0007931337881546404,-7.952400358355822e-05
0.001328978909405349,-0.0007920252245461816,-8.031658308990863e-05
0.0017522432426393716,-0.0007904846134701593,-8.11078380089168e-05
0.0021492200896867787,-0.0007885338818039961,-8.189734725655388e-05
0.0025122178945044017,-0.0007862031628119005,-8.268471577886182e-05
0.0028390610798400876,-0.0007835275233247283,-8.346958112193014e-05
