frame_number,force
0,732.7946779929723
1,732.7923607764037
2,732.7898834706112
3,732.7870881177012
4,732.7838209732167
5,732.7799344940088
6,732.7752891936098
7,732.7697553339818
8,732.7632144288325
9,732.7555605391882
10,732.7467013466484
11,732.7365589940093
12,732.7250706877057
13,732.7121890621959
14,732.6978823119902
15,732.6821341011374
16,732.6649432623685
17,732.6463232993158
18,732.626301705971
19,732.6049191185759
20,732.5822283170202
21,732.558293095496
22,732.5331870252213
23,732.5069921350349
24,732.4797975375377
25,732.4516980278845
26,732.4227926794559
27,732.3931834574764
28,732.3629738698446
29,732.3322676734305
30,732.301167652115
31,732.2697744795121
32,732.2381856762702
33,732.2064946704179
34,732.1747899684423
35,732.1431544433112
36,732.1116647438472
37,732.08039082865
38,732.0493956265574
39,732.0187348230335
40,731.9884567677994
41,731.9586024951301
42,731.9292058464376
43,731.9002936855654
44,731.8718861998799
45,731.8439972838131
46,731.8166350047497
47,731.7898021524649
48,731.7634968717539
49,731.7377133740456
50,731.7124427192496
51,731.6876736553385
52,731.6633935005794
53,731.639589051111
54,731.6162474939017
55,731.5933573024199
56,731.5709090906327
57,731.5488964008397
58,731.5273164023789
59,731.5061704813031
60,731.4854647055951
61,731.4652101562966
62,731.4454231215443
63,731.4261251563828
64,731.4073430147137
65,731.3891084607111
66,731.3714579670295
67,731.3544323077041
68,731.3380760550998
69,731.3224369919998
70,731.3075654514568
71,731.2935135982993
72,731.2803346672324
73,731.2680821731384
74,731.2568091092423
75,731.246567148246
76,731.237405860427
77,731.2293719610842
78,731.2225085976114
79,731.2168546839758
80,731.2124442876518
81,731.2093060715504
82,731.2074627915615
83,731.2069308488061
84,731.2077198943396
85,731.2098324833722
86,731.2132637769602
87,731.218001291657
88,731.224024700894
89,731.2313056947452
90,731.2398079065782
91,731.2494869156191
92,731.260290333575
93,731.2721579817451
94,731.2850221634902
95,731.2988080357962
96,731.3134340823316
97,731.3288126883214
98,731.3448508143323
99,731.3614507614876
100,731.3785110153605
101,731.3959271514942
102,731.4135927835104
103,731.4314005350584
104,731.4492430183789
105,731.4670138039469
106,731.484608367036
107,731.5019249980659
108,731.5188656645126
109,731.535336813183
110,731.5512501029236
111,731.5665230592438
112,731.581079643711
113,731.5948507325681
114,731.6077745010382
115,731.6197967120592
116,731.6308709107734
117,731.6409585291144
118,731.650028907282
119,731.6580592394903
120,731.6650344507422
121,731.6709470114267
122,731.6757966979643
123,731.6795903096257
124,731.6823413527445
125,731.6840697029262
126,731.6848012535447
127,731.6845675558617
128,731.6834054539963
129,731.6813567172899
130,731.6784676723216
131,731.6747888356251
132,731.6703745459085
133,731.6652825923225
134,731.6595738340758
135,731.6533118071077
136,731.6465623156819
137,731.6393930099321
138,731.6318729532155
139,731.624072184539
140,731.6160612812702
141,731.6079109268569
142,731.5996914885924
143,731.5914726117114
144,731.583322836954
145,731.5753092476959
146,731.5674971498779
147,731.5599497847504
148,731.5527280725714
149,731.545890385525
150,731.5394923495246
151,731.5335866754813
152,731.528223019468
153,731.5234478682496
154,731.5193044440857
155,731.5158326223325
156,731.5130688565946
157,731.511046107467
158,731.5097937718837
159,731.5093376113302
160,731.5096996789198
161,731.5108982474017
162,731.5129477423136
163,731.5158586863897
164,731.5196376625919
165,731.5242873032316
166,731.5298063110431
167,731.5361895146652
168,731.543427956744
169,731.5515090095548
170,731.5604165118884
171,731.5701309213329
172,731.5806294763503
173,731.5918863621022
174,731.6038728738491
175,731.616557572578
176,731.6299064284602
177,731.6438829482561
178,731.6584482837133
179,731.6735613202258
180,731.6891787481464
181,731.7052551221814
182,731.721742916433
183,731.7385925835405
184,731.755752626297
185,731.7731696898403
186,731.7907886822398
187,731.80855293011
188,731.8264043724389
189,731.8442837901009
190,731.8621310624158
191,731.8798854378913
192,731.8974858049341
193,731.9148709496153
194,731.9319797909169
195,731.9487515884251
196,731.9651261220525
197,731.9810438469532
198,731.9964460286736
199,732.0112748636894
200,732.0254735895287
201,732.0389865878115
202,732.0517594833808
203,732.0637392432748
204,732.0748742804902
205,732.0851145690891
206,732.0944117785342
207,732.1027194354546
208,732.1099931198278
209,732.1161906997554
210,732.1212726050624
211,732.1252021356736
212,732.1279457970627
213,732.1294736531016
214,732.1297596868955
215,732.1287821619486
216,732.1265239775944
217,732.1229730125516
218,732.1181224485408
219,732.1119710632952
220,732.1045234807942
221,732.095790367342
222,732.0857885651005
223,732.074541158458
224,732.0620774715054
225,732.0484329963892
226,732.0336492534038
227,732.0177735857518
228,732.0008588950062
229,731.9829633258361
230,731.9641499090365
231,731.9444861705456
232,731.92404371232
233,731.9028977697859
234,731.881126750561
235,731.8588117601712
236,731.8360361217699
237,731.8128848972814
238,731.7894444166845
239,731.7658018211279
240,731.7420446250472
241,731.718260302292
242,731.6945359008008
243,731.6709576894289
244,731.6476108395202
245,731.6245791429992
246,731.6019447679965
247,731.5797880519897
248,731.5581873308279
249,731.5372187996846
250,731.5169563990388
251,731.4974717156282
252,731.4788338858946
253,731.4611094889979
254,731.4443624181379
255,731.4286537210547
256,731.4140414016947
257,731.4005801756267
258,731.3883211736551
259,731.3773115922105
260,731.3675942946903
261,731.3592073729977
262,731.3521836819588
263,731.3465503617284
264,731.3423283654961
265,731.3395320110108
266,731.3381685734603
267,731.3382379343119
268,731.3397322974229
269,731.3426359815614
270,731.3469252978388
271,731.3525685204404
272,731.3595259580039
273,731.3677501303097
274,731.3771860510442
275,731.3877716130735
276,731.3994380684779
277,731.4121105918624
278,731.4257089125966
279,731.4401480003543
280,731.45533878894
281,731.4711889251607
282,731.4876035309793
283,731.5044859675277
284,731.5217385892047
285,731.5392634765038
286,731.556963138603
287,731.5747411806424
288,731.5925029341632
289,731.610156051268
290,731.6276110644213
291,731.6447819154499
292,731.6615864589384
293,731.6779469458721
294,731.69379049265
295,731.7090495389701
296,731.7236622962794
297,731.7375731867471
298,731.7507332708346
299,731.7631006592849
300,731.7746409032096
301,731.7853273550097
302,731.7951414938367
303,731.8040732116687
304,731.812121058674
305,731.819292448721
306,731.8256038272863
307,731.8310808038278
308,731.8357582482548
309,731.8396803470412
310,731.8429006103026
311,731.8454818179122
312,731.84749589055
313,731.8490236703482
314,731.8501545958238
315,731.850986257541
316,731.8516238245404
317,731.8521793369245
318,731.8527708665404
319,731.8535215544828
320,731.8545585402117
321,731.8560118020986
322,731.8580129331405
323,731.8606938783445
324,731.8641856614162
325,731.8686171270147
326,731.8741137207828
327,731.880796323984
328,731.8887801548523
329,731.8981737454368
330,731.9090780002506
331,731.921585340834
332,731.9357789381656
333,731.9517320328914
334,731.9695073422532
335,731.9891565530482
336,732.0107199016153
337,732.034225843702
338,732.0596908182266
339,732.0871191088587
340,732.1165028056679
341,732.1478218660089
342,732.181044270159
343,732.2161262639664
344,732.2530126786003
345,732.2916373168636
346,732.3319233964583
347,732.37378404237
348,732.4171228223975
349,732.4618343216928
350,732.5078047543723
351,732.5549126124638
352,732.6030293533304
353,732.6520201252582
354,732.7017445275914
355,732.752057398065
356,732.8028096170291
357,732.8538489167827
358,732.9050206844729
359,732.9561687485487
360,733.0071361408437
361,733.0577658288815
362,733.1079014164793
363,733.1573878149123
364,733.2060718900248
365,733.2538030908854
366,733.3004340630328
367,733.3458212460017
368,733.389825452913
369,733.4323124305785
370,733.4731534010788
371,733.5122255877669
372,733.549412728698
373,733.5846055793922
374,733.6177024058222
375,733.6486094671661
376,733.677241485079
377,733.7035220923433
378,733.7273842505093
379,733.7487706245981
380,733.767633902682
381,733.7839370485232
382,733.797653476451
383,733.8087671391839
384,733.8172725209448
385,733.8231745300506
386,733.8264882874198
387,733.8272388099526
388,733.8254605900378
389,733.8211970740217
390,733.814500042922
391,733.8054288985957
392,733.7940498596549
393,733.7804350748786
394,733.7646616672993
395,733.7468107280249
396,733.7269662835271
397,733.7052142624916
398,733.6816414880885
399,733.6563347189942
400,733.6293797582833
401,733.6008606440207
402,733.5708589296777
403,733.539453057136
404,733.5067178210336
405,733.4727239214689
406,733.4375376027034
407,733.4012203772253
408,733.3638288355479
409,733.3254145414628
410,733.2860240105526
411,733.2456987677724
412,733.2044754789074
413,733.1623861508184
414,733.1194583957032
415,733.0757157542854
416,733.0311780721368
417,732.9858619232525
418,732.9397810760197
419,732.8929469982177
420,732.8453693987639
421,732.7970568042394
422,732.748017168046
423,732.6982585098331
424,732.6477895829363
425,732.5966205677423
426,732.5447637884323
427,732.4922344488981
428,732.4390513812093
429,732.3852377980245
430,732.3308220394977
431,732.2758383048039
432,732.220327356804
433,732.1643371850388
434,732.1079236086113
435,732.051150798461
436,731.9940916985279
437,731.9368283267462
438,731.879451939029
439,731.8220630417917
440,731.7647712411185
441,731.70769492041
442,731.6509607442838
443,731.594702994149
444,731.5390627488074
445,731.4841869305948
446,731.4302272431338
447,731.3773390294922
448,731.3256800788496
449,731.2754094071685
450,731.2266860351434
451,731.179667785555
452,731.1345101209273
453,731.0913650395379
454,731.0503800426422
455,731.0116971791075
456,730.9754521673773
457,730.9417735901784
458,730.9107821547287
459,730.8825900100366
460,730.8573001132694
461,730.8350056392655
462,730.8157894302865
463,730.7997234857382
464,730.7868684933964
465,730.7772734053209
466,730.770975063585
467,730.7679978826611
468,730.7683535960342
469,730.7720410743325
470,730.7790462219568
471,730.7893419595863
472,730.802888300526
473,730.8196325284983
474,730.8395094829895
475,730.8624419566047
476,730.8883412077498
477,730.9171075906492
478,730.9486313019742
479,730.9827932392989
480,731.0194659629749
481,731.0585147508207
482,731.0997987331581
483,731.1431720931065
484,731.1884853144735
485,731.2355864583378
486,731.2843224493321
487,731.3345403527849
488,731.3860886240451
489,731.4388183116553
490,731.4925841963086
491,731.5472458470933
492,731.6026685754335
493,731.6587242666908
494,731.7152920714356
495,731.7722589435245
496,731.8295200189075
497,731.8869788355953
498,731.9445474003916
499,732.0021461116961
500,732.0597035504557
501,732.117156154068
502,732.1744477911402
503,732.2315292576571
504,732.2883577162637
505,732.3448960996841
506,732.4011124969564
507,732.4569795372217
508,732.5124737808296
509,732.5675751228629
510,732.6222662109751
511,732.6765318778283
512,732.7303585880951
513,732.7837339009376
514,732.8366459512027
515,732.8890829558175
516,732.9410327547558
517,732.9924823971332
518,733.0434177820757
519,733.0938233618604
520,733.143681912394
521,733.1929743734813
522,733.2416797580132
523,733.289775125264
524,733.337235609992
525,733.3840344970207
526,733.4301433306576
527,733.4755320491653
528,733.52016913551
529,733.5640217757626
530,733.607056015531
531,733.6492369036189
532,733.6905286122412
533,733.7308945253656
534,733.7702972902869
535,733.8086988309151
536,733.8460603238179
537,733.8823421400439
538,733.9175037575114
539,733.9515036509316
540,733.9842991693905
541,734.0158464151983
542,734.0461001398263
543,734.0750136732478
544,734.1025389026082
545,734.1286263149149
546,734.1532251152399
547,734.1762834266559
548,734.1977485724761
549,734.2175674370739
550,734.2356868990144
551,734.2520543290271
552,734.26661814457
553,734.279328411092
554,734.29013747686
555,734.2990006241653
556,734.3058767168974
557,734.3107288246741
558,734.313524807251
559,734.3142378480825
560,734.3128469302333
561,734.3093372500564
562,734.3037005645635
563,734.2959354682088
564,734.2860475943847
565,734.274049736801
566,734.2599618870724
567,734.243811187756
568,734.2256318036751
569,734.205464717098
570,734.1833574538493
571,734.1593637487687
572,734.1335431610461
573,734.1059606523884
574,734.0766861418971
575,734.045794049657
576,734.0133628369889
577,733.9794745469683
578,733.9442143455681
579,733.9076700620946
580,733.8699317271257
581,733.831091106095
582,733.7912412265914
583,733.7504758976195
584,733.7088892192522
585,733.6665750804283
586,733.6236266409024
587,733.580135791851
588,733.536192590229
589,733.4918846657599
590,733.4472966055748
591,733.4025093276787
592,733.3575994584827
593,733.3126387307736
594,733.2676934170003
595,733.2228238096454
596,733.178083757101
597,733.1335202610713
598,733.0891731404711
599,733.0450747664044
600,733.0012498720873
601,732.9577154404129
602,732.914480671474
603,732.8715470338218
604,732.828908406098
605,732.7865513181712
606,732.7444553012105
607,732.702593353543
608,732.6609325244757
609,732.6194346130208
610,732.57805697373
611,732.536753417983
612,732.4954751960173
613,732.4541720424618
614,732.4127932660937
615,732.3712888630697
616,732.3296106317861
617,732.2877132664345
618,732.2455554053995
619,732.2031006103615
620,732.1603182527322
621,732.1171842862032
622,732.0736818878361
623,732.0298019547515
624,731.985543448381
625,731.9409135829452
626,731.8959278590035
627,731.8506099460789
628,731.8049914200806
629,731.7591113618532
630,731.7130158240169
631,731.6667571757949
632,731.6203933401038
633,731.5739869425342
634,731.5276043957047
635,731.4813149431106
636,731.435189684182
637,731.3893005985014
638,731.3437195838862
639,731.2985175210808
640,731.2537633770531
641,731.2095233590899
642,731.1658601327268
643,731.1228321171064
644,731.0804928705344
645,731.0388905763958
646,730.9980676357043
647,730.9580603683139
648,730.9188988211874
649,730.8806066798995
650,730.8432012788282
651,730.8066937052245
652,730.7710889914874
653,730.7363863886801
654,730.702579713472
655,730.6696577605577
656,730.6376047727474
657,730.6064009610494
658,730.5760230670622
659,730.5464449597096
660,730.5176382576024
661,730.4895729669995
662,730.4622181236631
663,730.4355424257179
664,730.4095148450815
665,730.38410520729
666,730.3592847322946
667,730.3350265305852
668,730.3113060497441
669,730.2881014672828
670,730.265394026991
671,730.2431683176014
672,730.2214124936868
673,730.200118439306
674,730.1792818755334
675,730.1589024141679
676,730.1389835618609
677,730.1195326812083
678,730.1005609169276
679,730.0820830950544
680,730.064117601272
681,730.0466862423517
682,730.0298140936335
683,730.0135293360207
684,729.9978630872885
685,729.9828492332236
686,729.968524263352
687,729.9549271137952
688,729.9420990171631
689,729.9300833579791
690,729.9189255328572
691,729.9086728163775
692,729.8993742341888
693,729.8910804432305
694,729.8838436156595
695,729.8777173191957
696,729.8727563831083
697,729.8690167368533
698,729.8665552080963
699,729.8654292687029
700,729.8656967208626
701,729.8674153202481
702,729.8706423382365
703,729.8754340697217
704,729.8818452958052
705,729.8899287110679
706,729.8997343234731
707,729.9113088322208
708,729.9246949864232
709,729.9399309266016
710,729.9570495122955
711,729.9760776419641
712,729.9970355744744
713,730.019936263695
714,730.0447847190135
715,730.0715774054361
716,730.1003016973572
717,730.1309353997815
718,730.1634463499443
719,730.1977921113738
720,730.2339197710082
721,730.2717658471004
722,730.3112563114582
723,730.3523067253582
724,730.3948224855282
725,730.4386991752584
726,730.4838230155638
727,730.5300714120164
728,730.5773135942115
729,730.6254113461885
730,730.6742198262596
731,730.7235884728553
732,730.7733619897621
733,730.8233814009484
734,730.8734851629641
735,730.9235103213914
736,730.9732936962105
737,731.0226730793172
738,731.071488427063
739,731.1195830323062
740,731.1668046632788
741,731.2130066589601
742,731.2580489712229
743,731.3017991423659
744,731.3441332039325
745,731.3849364808361
746,731.4241042850583
747,731.4615424858634
748,731.497167948114
749,731.5309088354691
750,731.5627047792065
751,731.5925069154624
752,731.6202777949344
753,731.6459911711315
754,731.6696316762838
755,731.6911943966742
756,731.7106843604579
757,731.7281159513736
758,731.7435122620547
759,731.7569044012462
760,731.7683307699565
761,731.777836322035
762,731.7854718246546
763,731.7912931336294
764,731.7953604970319
765,731.7977378976021
766,731.798492440182
767,731.7976937861182
768,731.7954136336807
769,731.7917252426981
770,731.7867030024787
771,731.780422043441
772,731.7729578934022
773,731.764386178884
774,731.7547823708929
775,731.7442215739204
776,731.7327783558896
777,731.7205266150671
778,731.7075394779281
779,731.6938892199227
780,731.6796471993528
781,731.66488379432
782,731.6496683349155
783,731.6340690265955
784,731.6181528640092
785,731.6019855361869
786,731.5856313242938
787,731.5691529935567
788,731.5526116825428
789,731.5360667950337
790,731.5195759004966
791,731.5031946478422
792,731.486976695061
793,731.4709736561466
794,731.4552350668748
795,731.4398083717078
796,731.4247389340699
797,731.4100700709184
798,731.3958431108013
799,731.3820974738891
800,731.3688707729299
801,731.3561989344176
802,731.3441163384077
803,731.3326559732488
804,731.3218495989637
805,731.311727911397
806,731.3023206990728
807,731.2936569854774
808,731.2857651509004
809,731.2786730299337
810,731.2724079824543
811,731.266996936472
812,731.2624664009854
813,731.2588424471721
814,731.2561506570805
815,731.2544160392833
816,731.253662909669
817,731.2539147337263
818,731.2551939262963
819,731.2575216062885
820,731.2609173064527
821,731.2653986415329
822,731.2709809420139
823,731.2776768644
824,731.2854959911384
825,731.2944444333672
826,731.3045244482742
827,731.3157340808381
828,731.3280668373359
829,731.3415113957038
830,731.3560513566367
831,731.371665039593
832,731.3883253284079
833,731.4059995705239
834,731.4246495321999
835,731.4442314112096
836,731.464695909454
837,731.4859883695149
838,731.5080489799343
839,731.5308130534229
840,731.5542113803377
841,731.5781706564368
842,731.6026139796256
843,731.6274614069885
844,731.6526305625325
845,731.6780372876149
846,731.7035963280566
847,731.7292220524221
848,731.7548291942655
849,731.7803336081375
850,731.8056530256817
851,731.8307077945942
852,731.8554215802096
853,731.8797220084615
854,731.9035412311127
855,731.9268163990714
856,731.949490035291
857,731.9715103033119
858,731.9928311707808
859,732.0134124704226
860,732.03321986453
861,732.0522247226362
862,732.0704039247927
863,732.0877396039043
864,732.1042188397049
865,732.1198333156005
866,732.134578949793
867,732.1484555143438
868,732.1614662585354
869,732.1736175533339
870,732.1849185701766
871,732.195381000577
872,732.2050188164183
873,732.2138480668627
874,732.2218867062576
875,732.2291544465138
876,732.2356726264754
877,732.2414640904633
878,732.2465530693804
879,732.2509650605865
880,732.2547267061454
881,732.257865671613
882,732.2604105284573
883,732.262390642362
884,732.2638360672406
885,732.264777441663
886,732.2652458822129
887,732.2652728684533
888,732.2648901164937
889,732.2641294410408
890,732.263022608016
891,732.2616011814629
892,732.2598963701198
893,732.2579388803805
894,732.2557587825028
895,732.2533853954556
896,732.2508471936623
897,732.2481717376775
898,732.245385631221
899,732.2425145081572
900,732.2395830537783
901,732.2366150646887
902,732.2336335507074
903,732.2306608804793
904,732.2277189700869
905,732.2248295110575
906,732.222014230633
907,732.2192951730104
908,732.2166949860645
909,732.2142371945496
910,732.2119464384443
911,732.2098486547727
912,732.2079711838259
913,732.2063427860224
914,732.2049935621106
915,732.2039547753757
916,732.2032585792015
917,732.202937656586
918,732.2030247803821
