acceleration,velocity,displacement
0.011290647602023786,0.0,0.0
0.011259591075418022,5.637559669360452e-06,1.409389917340113e-09
0.011226388950810007,1.1259054675917458e-05,5.63354350365959e-09
0.011188924195378445,1.6862882962464573e-05,1.2664027913255099e-08
0.011145136246949103,2.2446398073046458e-05,2.2491348172132855e-08
0.011093047656456504,2.800594404889786e-05,3.5104433702618935e-08
0.011030788954620287,3.3536903201667054e-05,5.049014551526017e-08
0.010956621325622678,3.90337557717278e-05,6.863281025860888e-08
0.010868956755314973,4.449015029196221e-05,8.951378677453138e-08
0.010766375395162018,4.989898332958145e-05,1.1311107017991729e-07
0.01064763994654352,5.525248716500784e-05,1.3939893780356462e-07
0.01051170692722729,6.054232388345054e-05,1.683476405656792e-07
0.010357734745598916,6.575968430165709e-05,1.9992314261195613e-07
0.010185088584340715,7.0895390134142e-05,2.340869112209059e-07
0.009993342169945555,7.593999782271357e-05,2.707957582101198e-07
0.009782276559605639,8.088390250510136e-05,3.100017332920735e-07
0.009551876108980336,8.571744067224786e-05,3.516520690864108e-07
0.009302321800685605,9.043099014966434e-05,3.9568917679188887e-07
0.009033982123320185,9.501506613066579e-05,4.420506908619714e-07
0.008747401704669602,9.946041208766323e-05,4.906695604165537e-07
0.00844328792792026,0.00010375808449581069,5.414741845624221e-07
0.008122495795603299,0.00010789953042669157,5.943885882930476e-07
0.007786011346969077,0.00011187665721233467,6.493326352028042e-07
0.007434933974645406,0.00011568189354273829,7.062222728915725e-07
0.007070458011479021,0.0001193082415392694,7.649698066620744e-07
0.006693853950823102,0.00012274931952984493,8.25484196929353e-07
0.006306449625010197,0.00012599939542380325,8.876713756677651e-07
0.005909611624348639,0.00012905341073614297,9.514345772077516e-07
0.005504727214859087,0.0001319069954459449,1.0166746787532736e-06
0.005093186999403873,0.00013455647399951065,1.0832905461146375e-06
0.0046763685403481536,0.00013699886288444867,1.1511793803356273e-06
0.0042556211171700725,0.00013923186029882824,1.2202370611314467e-06
0.003832251751690575,0.0001412538285160434,1.2903584833351646e-06
0.003407512614334161,0.0001430637696075496,1.3614378828660628e-06
0.0029825899144981438,0.00014466129523975767,1.4333691490778897e-06
0.0025585943582634796,0.00014604659130794807,1.506046120714816e-06
0.0021365532325160253,0.00014722037820564295,1.5793628630932138e-06
0.0017174041583426674,0.00014818386755335763,1.653213924532964e-06
0.0013019905403470655,0.00014893871622803005,1.7274945704783108e-06
0.0008910587037210926,0.0001494869785390471,1.80210099417008e-06
0.00048525665626091816,0.0001498310573790426,1.8769305031496025e-06
8.513436039279859e-05,0.00014997365513320603,1.951881681277665e-06
-0.0003088546238951245,0.00014991772506733046,2.026854526327799e-06
-0.0006963502535767074,0.0001496664238479625,2.101750563556622e-06
-0.0010770819671985412,0.00014922306579276867,2.1764729359668047e-06
-0.001450863544445625,0.00014859107941485764,2.2509264722687113e-06
-0.0018175868620851,0.00014777396681322496,2.325017733825732e-06
-0.002177214530118653,0.000146775266465174,2.3986550421453316e-06
-0.0025297714129508303,0.00014559851997940663,2.4717484887564768e-06
-0.002875335091986336,0.00014424724335317235,2.5442099295896214e-06
-0.003214025386908789,0.00014272490323344856,2.6159529662362768e-06
-0.0035459931031675304,0.0001410348986109295,2.6868929166973713e-06
-0.00387140820785998,0.0001391805482831726,2.756946778420897e-06
-0.004190447665919631,0.00013716508431472772,2.826033186570372e-06
-0.004503283204174112,0.00013499165159720428,2.894072370548355e-06
-0.0048100693071213615,0.0001326633134693804,2.9609861118150014e-06
-0.005110931771195861,0.0001301830631998011,3.0266977059822967e-06
-0.0054059571458129575,0.0001275538409705489,3.0911319320248843e-06
-0.005695183368959758,0.00012477855584185573,3.1542150312279855e-06
-0.0059785918640452955,0.00012186011203360447,3.2158746981968504e-06
-0.006256101304847738,0.00011880143874138121,3.276040085890597e-06
-0.006527563177552684,0.00011560552262078111,3.334641826231137e-06
-0.0067927591801886684,0.00011227544203134578,3.391612067394169e-06
-0.0070514004209760875,0.00010881440213105459,3.446884528434769e-06
-0.007303128330384814,0.00010522576994321437,3.500394571453336e-06
-0.007547517188637769,0.00010151310856345872,3.5520792910800046e-06
-0.007784078170487643,9.768020972367736e-05,3.6018776206517888e-06
-0.008012264801373372,9.37311239807121e-05,3.649730454077886e-06
-0.0082314796995659,8.967018785547728e-05,3.6955807820369334e-06
-0.008441082455664254,8.550204731666974e-05,3.73937384082997e-06
-0.008640398480243873,8.123167708269271e-05,3.7810572719298107e-06
-0.008828728633479084,7.686439530426197e-05,3.820581290026549e-06
-0.009005359436513235,7.240587328676389e-05,3.857898857174306e-06
-0.009169573655405926,6.78621400137841e-05,3.892965860499443e-06
-0.009320661047737142,6.323958133799834e-05,3.925741290837389e-06
-0.009457929069418699,5.854493380870938e-05,3.956187419624066e-06
-0.009580713354128578,5.378527320282256e-05,3.984269971376949e-06
-0.009688387799438362,4.8967997914430825e-05,4.009958289156262e-06
-0.009780374121816076,4.4100807434117215e-05,4.033225490493399e-06
-0.009856150776285584,3.91916762095918e-05,4.054048611404326e-06
-0.009915261173058772,3.424882322225571e-05,4.072408736262288e-06
-0.009957321157079915,2.928067763972104e-05,4.0882911114777816e-06
-0.009982025742223875,2.4295840914895094e-05,4.101685241116436e-06
-0.009989155112244671,1.9303045701277958e-05,4.1125849627704795e-06
-0.009978579918741019,1.4311111943531536e-05,4.120988502181682e-06
-0.009950265915471308,9.328900484978455e-06,4.12689850528881e-06
-0.009904277956447532,4.365264516998745e-06,4.130322046539304e-06
-0.009840783351230353,-5.710008099207265e-07,4.131270612466073e-06
-0.0097600545269318,-5.4712102794612644e-06,4.1297600596937275e-06
-0.009662470907722693,-1.0326841638124888e-05,4.125810546714331e-06
-0.009548519897886567,-1.5129589339527202e-05,4.119446438969918e-06
-0.009418796847452861,-1.987141852586206e-05,4.11069618700357e-06
-0.009274003891227874,-2.4544618710532244e-05,4.099592177694472e-06
-0.00911494757506954,-2.91418565771066e-05,4.086170558872562e-06
-0.008942535204105262,-3.36562272719003e-05,4.07047103791031e-06
-0.008757769862851771,-3.808130353863956e-05,4.052536655207675e-06
-0.008561744075052162,-4.2411182023115545e-05,4.0324135338172364e-06
-0.008355632098919548,-4.6640526066608475e-05,4.010150606794806e-06
-0.008140680896725252,-5.0764604315519674e-05,3.9857993241992735e-06
-0.007918199878994836,-5.47793245094497e-05,3.9594133419930315e-06
-0.007689549594216617,-5.868126187775256e-05,3.931048195396231e-06
-0.0074561295925916725,-6.246768167445463e-05,3.900760959508179e-06
-0.0072193657190067605,-6.613655550235424e-05,3.868609900213976e-06
-0.006980697086460629,-6.968657120372109e-05,3.834654118537457e-06
-0.006741562960861871,-7.311713621555172e-05,3.798953191682639e-06
-0.006503389765366322,-7.642837439710877e-05,3.761566814029474e-06
-0.006267578394043197,-7.962111643696115e-05,3.7225544413209564e-06
-0.006035492010927735,-8.269688403820388e-05,3.6819749412021653e-06
-0.005808444498255409,-8.565786816549966e-05,3.6398862531512395e-06
-0.0055876897039733135,-8.850690171605684e-05,3.5963450606808503e-06
-0.005374411621590996,-9.124742704744792e-05,3.5514064784899742e-06
-0.005169715616594103,-9.388345885699419e-05,3.5051237570138636e-06
-0.004974620795108543,-9.641954295991985e-05,3.457548006559635e-06
-0.004790053589229101,-9.886071155600426e-05,3.4087279429306537e-06
-0.004616842606373341,-0.00010121243560490487,3.3587096561404266e-06
-0.004455714759502148,-0.00010348057494637375,3.307536403502607e-06
-0.004307292660477244,-0.0001056713268013686,3.2552484280656714e-06
-0.004172093218335515,-0.00010779117327107179,3.2018828030475615e-06
-0.0040505273514656066,-0.00010984682841352207,3.147473302626413e-06
-0.003942900714724694,-0.00011184518543006965,3.092050299165515e-06
-0.003849415350965413,-0.00011379326444649218,3.0356406866963748e-06
-0.003770172175900508,-0.00011569816132820866,2.9782678302526995e-06
-0.0037051741860601984,-0.00011756699791869884,2.9199515404409725e-06
-0.003654330254124172,-0.00011940687402874493,2.8607080724541118e-06
-0.0036174593612736086,-0.00012122482143259438,2.8005501485887768e-06
-0.003594295124434992,-0.00012302776005402154,2.7394870032171227e-06
-0.003584490507311345,-0.00012482245646195812,2.6775244490881277e-06
-0.003587622643689557,-0.00012661548474970834,2.614664963785211e-06
-0.003603197729760179,-0.00012841318984307078,2.5509077951370165e-06
-0.003630655951358657,-0.00013022165326335048,2.486249084360411e-06
-0.0036693764158751453,-0.00013204666135515893,2.4206820057057837e-06
-0.0037186820747814446,-0.00013389367597782306,2.3541969213725382e-06
-0.0037778446528012226,-0.00013576780765971872,2.2867815504631526e-06
-0.003846089630057395,-0.00013767379123043338,2.2184211507406148e-06
-0.003922601340173788,-0.00013961596397299116,2.1490987119397585e-06
-0.004006528241861032,-0.00014159824636849987,2.0787951593543857e-06
-0.004096988392578708,-0.0001436241255271098,2.0074895663804833e-06
-0.004193075110488942,-0.00014569664140287673,1.9351593746479865e-06
-0.004293862773005696,-0.0001478183758737504,1.8617806203288297e-06
-0.00439841268138686,-0.00014999144473734852,1.787328165176055e-06
-0.004505778921503405,-0.00015221749263807108,1.7117759308322001e-06
-0.004615014157480872,-0.00015449769090781715,1.6350971349457282e-06
-0.004725175290715291,-0.0001568327382698662,1.5572645276513074e-06
-0.004835328899998928,-0.00015922286431754474,1.4782506270044546e-06
-0.004944556367130634,-0.00016166783563432714,1.3980279520164866e-06
-0.0050519586062542105,-0.00016416696437767335,1.3165692520134865e-06
-0.005156660353609325,-0.00016671911911763924,1.2338477311396583e-06
-0.005257814017475588,-0.00016932273771041046,1.1498372669326458e-06
-0.005354603113266291,-0.00017197584199309593,1.0645126220067693e-06
-0.005446245306989775,-0.00017467605409815994,9.778496479839554e-07
-0.005531995071584004,-0.00017742061419280338,8.898254809112146e-07
-0.0056111459483458755,-0.00018020639944778586,8.004187275010673e-07
-0.005683032421081363,-0.00018302994404014266,7.096096416290851e-07
-0.005747031450291606,-0.0001858874600079859,6.17380290617053e-07
-0.005802563749054024,-0.0001887748588078223,5.237147109131009e-07
-0.005849094887364962,-0.00019168777346692705,4.285990528444136e-07
-0.005886136295291074,-0.00019462158126259106,3.3202171416203407e-07
-0.005913246218010216,-0.00019757142689091637,2.339734621236572e-07
-0.00593003066271431,-0.0002005322461110975,1.3444754387315375e-07
-0.005936144360741486,-0.00020349878986696145,3.3439784878639e-08
-0.005931291744943597,-0.00020646564889338273,-6.905132481144705e-08
-0.005915227914548808,-0.00020942727880825585,-1.7302455673685668e-07
-0.005887759531090959,-0.0002123780256696658,-2.784758828563371e-07
-0.005848745563483013,-0.00021531215194330928,-3.853984272595809e-07
-0.005798097783488844,-0.00021822386278005224,-4.937824309404212e-07
-0.005735780911517462,-0.0002211073324538038,-6.036152297488852e-07
-0.005661812334191943,-0.00022395673076523116,-7.14881245553644e-07
-0.005576261360749391,-0.0002267662491889665,-8.275619905421934e-07
-0.005479248042248706,-0.00022953012653971602,-9.41636084474364e-07
-0.005370941621941902,-0.00023224267395576366,-1.057079284598234e-06
-0.005251558700654568,-0.00023489829903641278,-1.173864527846278e-06
-0.00512136119582983,-0.00023749152901053389,-1.2919619848580148e-06
-0.004980654169288192,-0.0002400170328518134,-1.4113391253236016e-06
-0.0048297836047543835,-0.00024246964229532404,-1.531960794110386e-06
-0.004669134217889071,-0.0002448443717509849,-1.6537892976219631e-06
-0.0044991273704936925,-0.0002471364371480806,-1.7767844998467296e-06
-0.00432021914780948,-0.0002493412737776564,-1.9009039275781638e-06
-0.004132898650978182,-0.00025145455322735333,-2.026102884329416e-06
-0.003937686544230133,-0.0002534721995261554,-2.152334572517793e-06
-0.0037351338666320377,-0.0002553904046288709,-2.2795502235565495e-06
-0.0035258210763192744,-0.00025720564336460875,-2.4076992355549194e-06
-0.003310357254462664,-0.0002589146879473042,-2.5367293183828975e-06
-0.0030893793675513905,-0.00026051462210280774,-2.6665866458954254e-06
-0.0028635514747621664,-0.00026200285481338615,-2.797216015124474e-06
-0.002633563768112621,-0.00026337713362410486,-2.9285610122338466e-06
-0.0024001313368680562,-0.00026463555740035004,-3.06056418498996e-06
-0.0021639925513793445,-0.0002657765883724119,-3.1931672214331504e-06
-0.0019259069774690831,-0.000266799063254624,-3.3263111343399094e-06
-0.0016866527786371748,-0.0002677022031936506,-3.459936450951978e-06
-0.0014470236400229738,-0.00026848562229831564,-3.5939834073249696e-06
-0.001207825329861919,-0.0002691493345407869,-3.7283921465347453e-06
-0.0009698720708542943,-0.00026969375889096596,-3.863102919892683e-06
-0.0007339829119621483,-0.00027011972263667005,-3.998056290274592e-06
-0.0005009782737026288,-0.00027042846293308625,-4.133193336667032e-06
-0.00027167679524914165,-0.0002706216267003242,-4.268455859075384e-06
-4.689255082453445e-05,-0.00027070126903684264,-4.403786583009676e-06
0.00017256735902937003,-0.0002706698503347914,-4.539129362852584e-06
0.0003859048837040744,-0.00027053023227410804,-4.674429383504809e-06
0.0005923328338878771,-0.00027028567284471006,-4.8096333597845135e-06
0.0007910764970575491,-0.0002699398205119737,-4.944689733123685e-06
0.0009813751134107266,-0.0002694967076093566,-5.079548865154018e-06
0.0011624832568526485,-0.0002689607430167908,-5.214163227810554e-06
0.0013336721636030223,-0.00026833670416167687,-5.3484875896051715e-06
0.0014942310586666789,-0.00026762972835610944,-5.482479197734618e-06
0.0016434685465323046,-0.0002668453034548097,-5.616097955687348e-06
0.0017807141538835705,-0.00026598925777970573,-5.749306595995977e-06
0.0019053201300377495,-0.0002650677492087254,-5.882070847743085e-06
0.002016663615007921,-0.00026408725327246396,-6.014359598363382e-06
0.0021141492688392842,-0.00026305455005150215,-6.1461450491943735e-06
0.002197212418189257,-0.000261976709629745,-6.277402864114685e-06
0.002265322723247508,-0.0002608610758443858,-6.408112310483218e-06
0.0023179883107586623,-0.0002597152480858843,-6.5382563914657856e-06
0.0023547602698765933,-0.0002585470609407255,-6.667821968722438e-06
0.0023752373812376587,-0.0002573645615279469,-6.796799874339606e-06
0.0023790709530533117,-0.0002561759844443742,-6.925185010832687e-06
0.0023659696616457836,-0.0002549897242906994,-7.052976438016455e-06
0.002335704315096884,-0.00025381430579651375,-7.180177445538258e-06
0.002288112457770293,-0.00025265835160329694,-7.30679560988821e-06
0.00222310270758331,-0.00025153054781195853,-7.432842834742024e-06
0.002140658683087702,-0.00025043960746429076,-7.558335373561086e-06
0.0020408423572319478,-0.00024939423220421083,-7.683293833478212e-06
0.0019237966853018508,-0.0002484030724435774,-7.807743159640158e-06
0.0017897473946019082,-0.00024747468642360147,-7.931712599356953e-06
0.0016390038739607991,-0.0002466174986064608,-8.055235645614468e-06
0.0014719591399054801,-0.0002458397578529942,-8.178349959729332e-06
0.001289088876413847,-0.00024514949584891434,-8.30109727315481e-06
0.0010909495597955282,-0.000244554486239862,-8.423523268677004e-06
0.0008781757079678118,-0.00024406220492292113,-8.5456774414677e-06
0.0006514763349843254,-0.00024367979191218308,-8.667612940676476e-06
0.0004116307255624757,-0.0002434140151470464,-8.789386392441284e-06
0.00015948365079170723,-0.00024327123655295784,-8.911057705366284e-06
-0.00010405987202172345,-0.00024325738060826534,-9.03268985965659e-06
-0.0003780401966809994,-0.000243377905625441,-9.154348681215017e-06
-0.0006614489793613852,-0.00024363777791945162,-9.27610260210124e-06
-0.0009532353609006956,-0.00024404144900451715,-9.398022408832233e-06
-0.0012523123233815468,-0.0002445928359255877,-9.52018098006476e-06
-0.0015575631271080308,-0.0002452953047882101,-9.64265301524321e-06
-0.001867847728481419,-0.00024615165750210746,-9.76551475581579e-06
-0.0021820090887842776,-0.0002471641217064239,-9.888843700617922e-06
-0.0024988792975879593,-0.00024833434380301694,-1.0012718316995283e-05
-0.002817285441473891,-0.0002496633849877824,-1.0137217749192983e-05
-0.0031360551509851836,-0.00025115172013589717,-1.0262421525473903e-05
-0.0034540217649402186,-0.0002527992393648785,-1.0388409265349097e-05
-0.003770029063831638,-0.0002546052520720715,-1.0515260388208333e-05
-0.004082935537561482,-0.00025656849322241976,-1.0643053824531957e-05
-0.004391618163723098,-0.0002586871316477409,-1.0771867730749497e-05
-0.004694975682826347,-0.00026095878010937824,-1.0901779208688776e-05
-0.0049919313707357665,-0.00026338050687276876,-1.1032864030434313e-05
-0.005281435330165333,-0.00026594884854799403,-1.1165196369289504e-05
-0.005562466354264862,-0.0002686598239691016,-1.1298848537418779e-05
-0.005834033454760097,-0.00027150894892135784,-1.1433890730641393e-05
-0.006095177189422901,-0.0002744912515824036,-1.1570390780767333e-05
-0.006344970956151324,-0.00027760128861879714,-1.1708413915817633e-05
-0.006582522426848165,-0.000280833161964547,-1.1848022528463469e-05
-0.0068069752720331935,-0.00028418053638926735,-1.1989275953051923e-05
-0.00701751129853822,-0.0002876366580319102,-1.2132230251657218e-05
-0.007213353107683802,-0.0002911943741334657,-1.2276938009698563e-05
-0.0073937673733126,-0.00029484615425371476,-1.2423448141795358e-05
-0.007558068814123806,-0.00029858411330057385,-1.2571805708683931e-05
-0.0077056248793120835,-0.00030240003672393285,-1.2722051746190059e-05
-0.00783586109161145,-0.0003062854082166637,-1.2874223107425208e-05
-0.007948266923770618,-0.00031023144022050925,-1.3028352319534502e-05
-0.008042402038536437,-0.000314229107461086,-1.31844674564549e-05
-0.008117902689612077,-0.00031826918364312315,-1.3342592029230953e-05
-0.008174488051591475,-0.00032234228132842403,-1.3502744895473839e-05
-0.008211966230648857,-0.0003264388948989841,-1.3664940189530691e-05
-0.008230239720980147,-0.00033054944638689134,-1.382918727485216e-05
-0.008229310111221999,-0.00033466433384494185,-1.3995490719910118e-05
-0.008209281889283986,-0.00033877398184506836,-1.416385029883262e-05
-0.008170365223087847,-0.00034286889362316133,-1.4334261017699678e-05
-0.008112877603289005,-0.00034693970432975554,-1.4506713167187907e-05
-0.008037244235547357,-0.0003509772347894646,-1.4681192401967712e-05
-0.007943997083888033,-0.00035497254511932344,-1.485767984694491e-05
-0.007833772502601628,-0.00035891698751594584,-1.5036152230103726e-05
-0.007707307446502622,-0.0003628022575032219,-1.5216582041358518e-05
-0.007565434307299928,-0.0003666204429416725,-1.539893771646974e-05
-0.007409074479922049,-0.000370364070138478,-1.558318384473978e-05
-0.007239230812745861,-0.000374026146461645,-1.576928139888981e-05
-0.007056979133986607,-0.00037760019894832815,-1.5957187985242305e-05
-0.006863459063750309,-0.0003810803084977624,-1.614685811210383e-05
-0.006659864312931977,-0.00038446113934193296,-1.6338243474063754e-05
-0.006447432646460277,-0.000387737963581781,-1.653129324979468e-05
-0.006227435668518905,-0.00039090668066052583,-1.672595441085526e-05
-0.006001168582852589,-0.0003939638317233687,-1.6922172038951232e-05
-0.005769940085960144,-0.0003969066088905719,-1.7119889649104717e-05
-0.005535062545360657,-0.0003997328595484021,-1.731904951621446e-05
-0.005297842583124497,-0.00040244108583052337,-1.7519593002559193e-05
-0.005059572132672906,-0.0004050304395094727,-1.772146088389419e-05
-0.004821519989312374,-0.00040750071253996907,-1.7924593671906553e-05
-0.004584923846998116,-0.0004098523234990467,-1.8128931930916307e-05
-0.0043509827955884725,-0.00041208630015969336,-1.833441658683099e-05
-0.004120850230924666,-0.00041420425841632165,-1.8540989226474995e-05
-0.0038956271080545584,-0.0004162083777510664,-1.874859238551684e-05
-0.0036763554592035208,-0.00041810137339288095,-1.895716982330283e-05
