acceleration,velocity,displacement
0.011288834200663659,0.0,0.0
0.011268720147344794,5.639388587002113e-06,1.4098471467505283e-09
0.011246303004012881,1.1268144374841532e-05,5.63673038721144e-09
0.011219311020558318,1.688454788098433e-05,1.2674903451167905e-08
0.011185534394145042,2.2485759234660173e-05,2.2517480230079033e-08
0.011142854474001948,2.806785645169692e-05,3.515588415166831e-08
0.011089270995037514,3.3625887818956784e-05,5.057932021933173e-08
0.011022926878279863,3.9153937287286124e-05,6.877427649589246e-08
0.010942130230646713,4.4645201564517766e-05,8.972406120884344e-08
0.010845373258649144,5.009207743684173e-05,1.134083809591833e-07
0.010731347881243825,5.5486257721814976e-05,1.3980296474884748e-07
0.010598957890648728,6.081883416478811e-05,1.6887923772049824e-07
0.0104473275808178,6.608040553265474e-05,2.0060404764485897e-07
0.010275806848025306,7.126118913986552e-05,2.3493944631298904e-07
0.010083972851033289,7.635113406463017e-05,2.7184252711411295e-07
0.00987162837957708,8.134003437228276e-05,3.1126531922334117e-07
0.009638797115180214,8.621764074597209e-05,3.531547380029049e-07
0.00938571598614945,9.09737690213045e-05,3.9745259044472404e-07
0.009112824829295417,9.559840422516573e-05,4.440956337563416e-07
0.008820753585950976,0.00010008179882897732,4.930156845198774e-07
0.008510307287607289,0.00010441456404736689,5.441397752389634e-07
0.00818244912618891,0.00010858775315081593,5.973903545385092e-07
0.007838281949425503,0.00011259293591971954,6.526855268061431e-07
0.007479028566280278,0.00011642226354864599,7.099393266732345e-07
0.007106011275085184,0.00012006852350898736,7.690620234376428e-07
0.006720631018180289,0.00012352518408230372,8.299604503354656e-07
0.006324346523569803,0.00012678642846774123,8.925383534729769e-07
0.005918653746488871,0.0001298471785352559,9.566967552237262e-07
0.005505065896601814,0.00013270310844602857,1.0223343269690473e-06
0.005085094321330785,0.0001353506485005117,1.0893477662056824e-06
0.004660230486021191,0.0001377869797023497,1.1576321732563978e-06
0.004231929241633542,0.00014001001963426338,1.2270814230905511e-06
0.0038015935251114173,0.00014201840032594963,1.2975885280806045e-06
0.003370560616050059,0.00014381143886124,1.3690459878774018e-06
0.002940090061818246,0.00014538910153070707,1.4413461229753886e-06
0.0025113533612292015,0.00014675196238646894,1.5143813889546827e-06
0.002085425469954001,0.00014790115709426474,1.588044668824866e-06
0.0016632781729280085,0.00014883833300498525,1.6622295413496786e-06
0.0012457753510792253,0.00014956559638598706,1.7368305236974216e-06
0.000833670131004214,0.0001500854577565079,1.8117432872330454e-06
0.00042760384536873257,0.00015040077625060115,1.8868648457348226e-06
2.810667376984966e-05,0.00015051470388038578,1.9620937157675694e-06
-0.0003644001928895787,0.00015043063050060586,2.0373300493628173e-06
-0.0007496010092797739,0.00015015213020006353,2.112475739537985e-06
-0.0011272806582677927,0.00014968290978317663,2.187434499533795e-06
-0.0014973186101895834,0.0001490267599660623,2.2621119169711046e-06
-0.0018596816608486533,0.00014818750989830274,2.3364154844371957e-06
-0.0022144154303958994,0.0001471689856254916,2.4102546083181444e-06
-0.0025616346284753214,0.00014597497311077381,2.483540598002211e-06
-0.002901512148518263,0.00014460918641652542,2.5561866378840355e-06
-0.0032342671218135778,0.00014307524159894245,2.6281077448879023e-06
-0.003560152118080291,0.000141376636788969,2.69922071448488e-06
-0.0038794397178049584,0.00013951673882999768,2.7694440583896217e-06
-0.004192408714744636,0.00013749877672186028,2.8386979372775863e-06
-0.004499330246741793,0.00013532584198148868,2.9069040919534234e-06
-0.004800454193529185,0.00013300089587142095,2.9739857764166507e-06
-0.005095996205730546,0.00013052678327160603,3.0398676962024074e-06
-0.005386125731025914,0.0001279062527874169,3.1044759552171634e-06
-0.00567095538049142,0.00012514198250953757,3.167738014041402e-06
-0.005950531932318252,0.00012223661068133516,3.22958266233912e-06
-0.006224829203259064,0.00011919277039744083,3.2899400076088143e-06
-0.006493742931237343,0.00011601312736381673,3.3487414820491285e-06
-0.0067570877135794735,0.00011270041970261252,3.405919868815736e-06
-0.007014595957387976,0.00010925749878487067,3.4614093484376065e-06
-0.007265918746462709,0.00010568737010890799,3.5151455656610512e-06
-0.007510628514860244,0.00010199323329357726,3.5670657165116725e-06
-0.007748223417366002,9.81785203105207e-05,3.617108654912697e-06
-0.007978133278706381,9.42469311365026e-05,3.6652150177744526e-06
-0.008199726981792301,9.020246607137793e-05,3.711327367076423e-06
-0.008412321129411827,8.60494540435769e-05,3.7553903471051616e-06
-0.0086151897910058,8.179257631347248e-05,3.797350854694424e-06
-0.008807575127348947,7.74368850838838e-05,3.837158220043763e-06
-0.0089886986704554,7.298781663443271e-05,3.874764395473342e-06
-0.009157773026118997,6.845119871028911e-05,3.910124149309522e-06
-0.009314013765784163,6.383325201231332e-05,3.9431952619901725e-06
-0.009456651282965097,5.9140585750126e-05,3.973938721430783e-06
-0.009584942406068223,5.438018732786767e-05,4.0023189147002815e-06
-0.00969818158375889,4.955940633041089e-05,4.028303813114851e-06
-0.009795711490501898,4.468593306184569e-05,4.0518651479629155e-06
-0.009876932937433882,3.976777195486175e-05,4.072978574217092e-06
-0.009941314014539092,3.48132102168685e-05,4.091623819760025e-06
-0.009988398427698737,2.9830782106309045e-05,4.107784817840819e-06
-0.010017813022931386,2.4829229243651516e-05,4.12144982067831e-06
-0.010029274512753593,1.981745735973027e-05,4.132611492329155e-06
-0.01002259543986707,1.4804489871575105e-05,4.1412669791369816e-06
-0.009997689423316284,9.799418655779266e-06,4.14741795626882e-06
-0.00995457571882748,4.811352370243325e-06,4.151070649025326e-06
-0.009893383086813866,-1.506373311670119e-07,4.152235827785095e-06
-0.009814352912287522,-5.077571330942359e-06,4.1509287756195676e-06
-0.009717841477440179,-9.960619928374285e-06,4.147169227804738e-06
-0.009604321259701409,-1.4791160612659682e-05,4.14098128266948e-06
-0.009474381120046773,-1.9560836207596726e-05,4.132393283464416e-06
-0.009328725259282987,-2.4261612802429166e-05,4.12143767121191e-06
-0.009168170845470466,-2.888583682861753e-05,4.108150808804148e-06
-0.008993644238722998,-3.3426290599665894e-05,4.092572776947077e-06
-0.008806175756450405,-3.787624559845924e-05,4.074747142897545e-06
-0.008606892941742713,-4.222951277300752e-05,4.054720703304678e-06
-0.00839701232857713,-4.6480489090587477e-05,4.032543202838779e-06
-0.00817782974560756,-5.062419960913365e-05,4.008267030663849e-06
-0.007950709268643006,-5.465633436269629e-05,3.9819468971708916e-06
-0.007717071010618227,-5.85732794325116e-05,3.953639493722089e-06
-0.007478378002142927,-6.237214168570189e-05,3.923403138442536e-06
-0.00723612244529667,-6.605076679756179e-05,3.89129741132172e-06
-0.00699181161879306,-6.960775031358423e-05,3.857382782043934e-06
-0.006746953689789011,-7.304244164072975e-05,3.821720234055356e-06
-0.006503043662131239,-7.635494097870981e-05,3.784370888400496e-06
-0.006261549670195248,-7.954608931179143e-05,3.7453956308278703e-06
-0.00602389981207217,-8.261745168235829e-05,3.7048547455793328e-06
-0.005791469702165417,-8.557129406091769e-05,3.662807559143514e-06
-0.005565570907917078,-8.841055421343831e-05,3.619312097074925e-06
-0.005347440416412556,-9.113880704452072e-05,3.5744247567604353e-06
-0.005138231255630699,-9.376022496253154e-05,3.5281999987586723e-06
-0.004939004374428759,-9.62795338700464e-05,3.4806900590505277e-06
-0.0047507218617342676,-9.870196542908715e-05,3.4319446842257445e-06
-0.004574241555284999,-0.00010103320628334198,3.382010891297637e-06
-0.004410313056330216,-0.00010327934493624578,3.33093275349274e-06
-0.004259575128214914,-0.00010544681698238206,3.278751213013083e-06
-0.004122554411736212,-0.00010754234936736984,3.225503921425645e-06
-0.003999665353683845,-0.00010957290430872485,3.1712251080066215e-06
-0.003891211236349672,-0.00011154562345623323,3.115945476065382e-06
-0.003797386205443595,-0.00011346777281668154,3.059692126997153e-06
-0.0037182781934541544,-0.00011534668891640598,3.0024885115638813e-06
-0.0036538726143767264,-0.0001171897266183637,2.9443544076801887e-06
-0.003604056677416049,-0.00011900420894131189,2.8853059237902696e-06
-0.0035686241512938957,-0.00012079737914848937,2.825355526767819e-06
-0.0035472804201466574,-0.0001225763552913495,2.7645120931578595e-06
-0.003539647706909879,-0.00012434808732311365,2.702780982504244e-06
-0.0035452703846958443,-0.00012611931684601509,2.6401641314619618e-06
-0.0035636203283736945,-0.00012789653952428247,2.5766601673693875e-06
-0.0035941022690994117,-0.00012968597017365074,2.512264539944904e-06
-0.00363605911903025,-0.00013149351052068315,2.4469696697713205e-06
-0.0036887772517836233,-0.00013332471961338663,2.380765112237803e-06
-0.0037514917580293784,-0.00013518478686583987,2.3136377356179965e-06
-0.00382339172964058,-0.00013707850773775736,2.2455719119670973e-06
-0.0039036256446210904,-0.00013901026208132278,2.1765497195123273e-06
-0.003991306919021857,-0.00014098399522223352,2.106551155186438e-06
-0.0040855196599673994,-0.00014300320186698084,2.0355543559141346e-06
-0.004185324606553171,-0.00014507091293361097,1.9635358272139867e-06
-0.0042897652031545445,-0.0001471896853860379,1.8904706776340744e-06
-0.004397873728690232,-0.0001493615951189991,1.8163328575078153e-06
-0.004508677406210317,-0.00015158823290272423,1.7410954005023843e-06
-0.004621204424558268,-0.00015387070336041637,1.664730666436599e-06
-0.004734489799198439,-0.00015620962691635553,1.5872105838674062e-06
-0.004847580980543896,-0.00015860514461129113,1.5085068909854945e-06
-0.004959543105491111,-0.00016105692563279987,1.4285913734244718e-06
-0.0050694638032771164,-0.00016356417735999192,1.3474360976762738e-06
-0.005176457509722933,-0.00016612565768824193,1.2650136389142155e-06
-0.0052796692920772095,-0.00016873968938869196,1.181297302144982e-06
-0.005378278214691565,-0.00017140417626538415,1.096261335731463e-06
-0.005471500273817993,-0.00017411662088751155,1.009881136443239e-06
-0.005558590908752126,-0.0001768741436831541,9.221334453005726e-07
-0.005638847082744587,-0.00017967350318102827,8.32996533584527e-07
-0.005711608944250282,-0.00018251111718777698,7.424503784923257e-07
-0.005776261123269375,-0.0001853830847046569,6.504768280192172e-07
-0.005832233755872802,-0.00018828520842444245,5.570597547369424e-07
-0.005879003335543749,-0.0001912130176972966,4.621851982065077e-07
-0.00591609347148268,-0.0001941617918990532,3.658414958074202e-07
-0.005943075614652811,-0.0001971265841705871,2.6801940179001014e-07
-0.005959569797486992,-0.00020010224552362204,1.6871219436645784e-07
-0.005965245414540674,-0.00020308344932662894,6.79157706538951e-08
-0.005959822045092045,-0.00020606471619153712,-3.437127072564641e-08
-0.005943070287562946,-0.00020904043927470086,-1.3814755959220593e-07
-0.005914812543449296,-0.00021200490998245393,-2.434088969064946e-07
-0.005874923659821176,-0.00021495234403327154,-3.5014821041042596e-07
-0.005823331320485818,-0.0002178769077783483,-4.583555233633309e-07
-0.005760016074357174,-0.00022077274462705903,-5.680179364646828e-07
-0.00568501091347479,-0.00022363400137401704,-6.791196229649518e-07
-0.005598400363972404,-0.00022645485419337883,-7.916418368568008e-07
-0.005500319116836062,-0.00022922953406358094,-9.055629339210407e-07
-0.005390950274732191,-0.000231952351411473,-1.0208584052898043e-06
-0.005270523308466245,-0.0002346177198072726,-1.1375009230944907e-06
-0.005139311810668788,-0.00023722017858705637,-1.255460397693073e-06
-0.004997631130228551,-0.0002397544143222807,-1.3747040459204073e-06
-0.004845835977578814,-0.00024221528109923254,-1.4951964697757855e-06
-0.004684318092785697,-0.0002445978196168237,-1.6168997449547995e-06
-0.004513504055906352,-0.0002468972751539967,-1.7397735186475045e-06
-0.004333853304785226,-0.0002491091144941696,-1.8637751160595462e-06
-0.004145856417713209,-0.0002512290419247942,-1.988859655164287e-06
-0.003950033704321476,-0.0002532530144553029,-2.1149801692593115e-06
-0.003746934114818157,-0.0002551772564100878,-2.2420877369756592e-06
-0.003537134430814956,-0.0002569982735464961,-2.370131619464805e-06
-0.003321238655356308,-0.0002587128668180389,-2.4990594045559387e-06
-0.0030998774878119232,-0.00026031814585383096,-2.628817157723906e-06
-0.002873707755946052,-0.00026181154216477047,-2.7593495797285563e-06
-0.002643411678491573,-0.00026319082202337987,-2.8906001707755937e-06
-0.0024096958357471524,-0.00026445409890193955,-3.0225114010069237e-06
-0.0021732897298235997,-0.0002655998452933322,-3.1550248870557416e-06
-0.001934943833896697,-0.0002666269036842623,-3.2880815743001404e-06
-0.001695427081431147,-0.00026753449641309427,-3.4216219243244796e-06
-0.001455523831933507,-0.00026832223414143544,-3.555586106963112e-06
-0.0012160304412514237,-0.0002689901227097317,-3.689914196175904e-06
-0.000977751627666531,-0.0002695385682269612,-3.824546368910078e-06
-0.0007414968452827687,-0.0002699683803451985,-3.959423106053118e-06
-0.0005080768566705751,-0.00027028077377068687,-4.094485394582089e-06
-0.0002783006466909735,-0.00027047736814652724,-4.229674930061393e-06
-5.2972751352764145e-05,-0.00027056018649603816,-4.364934318722034e-06
0.0001671089935965983,-0.0002705316524354772,-4.5002072784549135e-06
0.0003811553333543768,-0.00027039458635373946,-4.635438838152218e-06
0.0005883871811493174,-0.0002701522007251135,-4.770575534921931e-06
0.0007880369905202478,-0.00026980809468219613,-4.9055656087737585e-06
0.0009793499773817847,-0.0002693662479402206,-5.040359194429363e-06
0.0011615852434083166,-0.0002688310141350231,-5.174908509948173e-06
0.0013340168499757987,-0.00026820711361167705,-5.309168041884848e-06
0.0014959349004884076,-0.000267499625674061,-5.4430947267062825e-06
0.0016466467069773958,-0.00026671398027219455,-5.576648128192847e-06
0.0017854781407539695,-0.0002658559490602617,-5.7097906105259604e-06
0.001911775286902537,-0.0002649316357033476,-5.842487506716862e-06
0.002024906527122581,-0.0002639474652498413,-5.9747072819551594e-06
0.0021242651572299914,-0.00026291017232875314,-6.106421691349808e-06
0.00220927260343165,-0.00026182678788858776,-6.237605931404144e-06
0.002279382242398393,-0.00026070462417713023,-6.368238784420573e-06
0.002334083766029403,-0.0002595512576750233,-6.498302754883612e-06
0.002372907976913232,-0.00025837450973928763,-6.62778419673719e-06
0.002395431871007265,-0.0002571824247773075,-6.756673430366339e-06
0.0024012838677843935,-0.0002559832458426096,-6.884964848021318e-06
0.0023901490744082285,-0.00025478538760706146,-7.0126570063837355e-06
0.0023617744941778697,-0.00025359740671491494,-7.1397527049642295e-06
0.002315974088313021,-0.0002524279695692922,-7.266259049035281e-06
0.0022526335711529383,-0.00025128581765442574,-7.392187495841211e-06
0.0021717147797951034,-0.00025017973056668875,-7.5175538828964895e-06
0.00207325943645389,-0.0002491184870126265,-7.642378437291318e-06
0.001957392133635698,-0.0002481108241201041,-7.7666857650745e-06
0.0018243224168086488,-0.000247165395482493,-7.89050481997515e-06
0.0016743458955437243,-0.0002462907284044049,-8.013868850946875e-06
0.0015078443573069194,-0.00024549518084119226,-8.136815328258275e-06
0.001325284880314112,-0.000244786898531787,-8.25938584810152e-06
0.0011272179580328046,-0.00024417377282220026,-8.381626015940017e-06
0.000914274678790922,-0.00024366339966299432,-8.503585309061316e-06
0.0006871630501465271,-0.00024326304023075996,-8.625316919034755e-06
0.0004466635954872451,-0.00024297958356935153,-8.746877574984784e-06
0.00019362435725181742,-0.00024281951158116677,-8.868327348772413e-06
-7.104457935330575e-05,-0.00024278886663669214,-8.989729443326877e-06
-0.0003463769555434655,-0.00024289322202041634,-9.111149965491154e-06
-0.0006313565319536088,-0.0002431376553922906,-9.232657684844332e-06
-0.0009249235368250789,-0.0002435267254094853,-9.354323780044777e-06
-0.0012259812854931535,-0.00024406445161506484,-9.476221574300913e-06
-0.0015334028683247924,-0.0002447542976535193,-9.59842626161806e-06
-0.0018460377980378815,-0.00024559915782011,-9.721014625486466e-06
-0.0021627185182032565,-0.0002466013468991703,-9.844064751666286e-06
-0.0024822666901109076,-0.0002477625932012488,-9.967655736691391e-06
-0.00280349918314,-0.00024908403466956155,-1.0091867393659095e-05
-0.0031252336963580336,-0.00025056621788943607,-1.0216779956798843e-05
-0.003446293946145922,-0.0002522090998000621,-1.0342473786221217e-05
-0.003765514368753594,-0.00025401205187878693,-1.046902907414093e-05
-0.004081744301935238,-0.00025597386654645915,-1.0596525553747241e-05
-0.004393851622082058,-0.0002580927655274635,-1.0725042211765723e-05
-0.004700725824748344,-0.0002603664098891711,-1.0854657005619881e-05
-0.005001280551976319,-0.00026279191148335224,-1.0985446585963011e-05
-0.005294455593917756,-0.00026536584551982575,-1.1117486025213806e-05
-0.005579218427182505,-0.0002680842640251008,-1.1250848552600038e-05
-0.005854565396320738,-0.0002709427099809766,-1.1385605296101558e-05
-0.006119522692141067,-0.00027393623200309205,-1.1521825031597575e-05
-0.006373147316874644,-0.000277059399505346,-1.1659573939474685e-05
-0.006614528232643639,-0.00028030631839272556,-1.1798915368949203e-05
-0.006842787864789295,-0.0002836706474170838,-1.1939909610401654e-05
-0.0070570840995593815,-0.00028714561540817097,-1.2082613676107967e-05
-0.007256612898781566,-0.0002907240396577562,-1.222708108987445e-05
-0.0074406116450664705,-0.0002943983457937182,-1.2373361686237318e-05
-0.007608363303072724,-0.00029816058953075305,-1.2521501420068436e-05
-0.007759201420179951,-0.0003020024807115662,-1.2671542187629016e-05
-0.007892515906010696,-0.00030591541004311386,-1.2823521660317686e-05
-0.00800775945396941,-0.0003098904788831089,-1.2977473132549242e-05
-0.008104454416324272,-0.0003139185323506823,-1.3133425385357689e-05
-0.008182199907755514,-0.00031799019593170227,-1.3291402567428284e-05
-0.00824067887899374,-0.00032209591562838957,-1.3451424095318307e-05
-0.008279664883821898,-0.0003262260015690935,-1.3613504574617677e-05
-0.008299028277218597,-0.0003303706748593536,-1.3777653743724789e-05
-0.008298741625923273,-0.00033452011733513904,-1.3943876441773411e-05
-0.00827888416185949,-0.00033866452378208473,-1.4112172602052718e-05
-0.008239645140958247,-0.0003427941561077892,-1.4282537272025187e-05
-0.008181325979266508,-0.00034689939888784535,-1.4454960660774095e-05
-0.008104341039513607,-0.00035097081564254036,-1.4629428214406691e-05
-0.008009216956650264,-0.00035499920514158134,-1.4805920719602722e-05
-0.00789659043066454,-0.00035897565698841006,-1.498441443513522e-05
-0.007767204473188561,-0.00036289160571437336,-1.5164881250810915e-05
-0.007621903158878635,-0.00036673888262239013,-1.5347288872895104e-05
-0.0074616249949251605,-0.0003705097646608411,-1.553160103471591e-05
-0.007287395077776085,-0.0003741970196790164,-1.5717777730800875e-05
-0.007100316248680824,-0.00037779394751063063,-1.5905775472598287e-05
-0.006901559478690878,-0.00038129441644247356,-1.6095547563586562e-05
-0.00669235370422274,-0.00038469289473820194,-1.628704439138173e-05
-0.006473975307581413,-0.000387984476991153,-1.648021373431407e-05
-0.006247737414434037,-0.0003911649051716568,-1.667500107985477e-05
-0.006014979175036398,-0.0003942305843190244,-1.6871349952227442e-05
-0.0057770552010631485,-0.00039717859291304926,-1.706920224653546e-05
-0.005535325323550943,-0.0004000066880442028,-1.7268498566774773e-05
-0.005291144801562511,-0.00040271330557548117,-1.7469178565179693e-05
-0.0050458550528437755,-0.0004052975555390827,-1.7671181280458334e-05
-0.004800774924570855,-0.0004077592130334364,-1.7874445472601463e-05
-0.004557192491003995,-0.0004100987048873301,-1.8078909952081653e-05
-0.004316357344563845,-0.0004123170923462221,-1.8284513901390043e-05
-0.00407947332238569,-0.00041441605001295946,-1.8491197186979838e-05
-0.0038476915859322718,-0.00041639784124003894,-1.8698900659793087e-05
-0.003622103961619108,-0.0004182652901269268,-1.890756644263483e-05
