frame_number,force
0,720.4815100075492
1,720.4226189644833
2,720.3639529144887
3,720.3057354370085
4,720.2481872957325
5,720.1915250582981
6,720.1359597467665
7,720.0816955271545
8,720.028928446437
9,719.9778452261307
10,719.9286221223977
11,719.881423863077
12,719.8364026717561
13,719.793697387687
14,719.7534326881047
15,719.7157184169222
16,719.6806490217929
17,719.6483031008573
18,719.6187430611271
19,719.5920148916964
20,719.5681480556633
21,719.5471555039335
22,719.5290338118266
23,719.5137634360386
24,719.5013090857035
25,719.4916201980378
26,719.4846315072964
27,719.4802636956593
28,719.4784241153737
29,719.4790075720579
30,719.4818971591889
31,719.4869651335988
32,719.4940738217214
33,719.5030765468789
34,719.5138185694182
35,719.5261380339322
36,719.539866920635
37,719.5548320003302
38,719.5708557935632
39,719.5877575342419
40,719.6053541365488
41,719.6234611618578
42,719.641893780182
43,719.6604677190246
44,719.6790001919705
45,719.6973108002738
46,719.7152224026499
47,719.7325619504231
48,719.7491612861784
49,719.7648579041072
50,719.7794956699408
51,719.7929254982668
52,719.8050059852955
53,719.8156039956953
54,719.8245952027207
55,719.8318645812408
56,719.8373068532064
57,719.840826884473
58,719.8423400308636
59,719.8417724302788
60,719.8390612368664
61,719.8341547930637
62,719.8270127358305
63,719.8176060343699
64,719.8059169576451
65,719.7919389710246
66,719.7756765628013
67,719.7571450032772
68,719.7363700412672
69,719.7133875447031
70,719.6882430930194
71,719.6609915289406
72,719.631696476277
73,719.6004298287978
74,719.5672712136297
75,719.5323074312624
76,719.495631873426
77,719.4573439202013
78,719.4175483188214
79,719.3763545482659
80,719.3338761751168
81,719.290230206777
82,719.2455364480719
83,719.199916866666
84,719.1534949718471
85,719.1063952103676
86,719.0587423825125
87,719.0106610816671
88,718.9622751610849
89,718.9137072312878
90,718.8650781898177
91,718.8165067826321
92,718.7681091947823
93,718.7199986677228
94,718.6722851412566
95,718.625074919332
96,718.5784703606181
97,718.532569596746
98,718.4874662827882
99,718.4432493851709
100,718.400003011464
101,718.3578062850117
102,718.3167332660983
103,718.2768529205289
104,718.2382291358956
105,718.2009207852603
106,718.164981837431
107,718.1304615121296
108,718.0974044767634
109,718.0658510791865
110,718.0358376081186
111,718.0073965703806
112,717.9805569727583
113,717.9553445969078
114,717.9317822579397
115,717.9098900401148
116,717.8896855058647
117,717.8711838770388
118,717.8543981894094
119,717.8393394225898
120,717.82601660784
121,717.8144369163897
122,717.8046057312806
123,717.7965267063485
124,717.7902018165298
125,717.7856314036928
126,717.7828142214447
127,717.7817474810018
128,717.782426898455
129,717.784846742048
130,717.7889998771229
131,717.7948778065612
132,717.8024707054249
133,717.8117674492414
134,717.8227556354517
135,717.8354215972163
136,717.8497504086237
137,717.8657258806775
138,717.88333054835
139,717.9025456506122
140,717.92335110751
141,717.9457255001889
142,717.9696460602551
143,717.9950886737433
144,718.0220279027607
145,718.0504370253665
146,718.080288091927
147,718.1115519942492
148,718.1441985424898
149,718.1781965443066
150,718.2135138808981
151,718.250117575055
152,718.2879738469867
153,718.3270481547294
154,718.3673052177325
155,718.4087090246009
156,718.4512228283849
157,718.4948091347337
158,718.5394296895906
159,718.5850454738139
160,718.6316167118489
161,718.6791029001149
162,718.7274628583672
163,718.7766548044503
164,718.826636450048
165,718.8773651128063
166,718.9287978391924
167,718.9808915329533
168,719.0336030856595
169,719.0868895076297
170,719.1407080586665
171,719.1950163780465
172,719.249772612127
173,719.304935536407
174,719.360464667871
175,719.416320363491
176,719.4724639015333
177,719.5288575432141
178,719.5854645728382
179,719.6422493146057
180,719.6991771237965
181,719.7562143495248
182,719.8133282662783
183,719.8704869720451
184,719.9276592516136
185,719.9848144045361
186,720.0419220384815
187,720.0989518302705
188,720.1558732586567
189,720.2126553146082
190,720.2692661960549
191,720.325672994747
192,720.3818413836063
193,720.4377353141106
194,720.4933167342319
195,720.5485453372455
196,720.6033783500101
197,720.6577703666167
198,720.7116732304878
199,720.7650359658862
200,720.8178047589116
201,720.8699229883914
202,720.9213313078694
203,720.9719677802676
204,721.021768066512
205,721.0706656688508
206,721.1185922290235
207,721.165477880702
208,721.2112516544739
209,721.2558419320915
210,721.2991769448925
211,721.3411853094074
212,721.3817965914469
213,721.4209418886481
214,721.4585544207482
215,721.4945701170088
216,721.5289281912418
217,721.5615716962903
218,721.5924480510623
219,721.6215095341751
220,721.6487137389681
221,721.6740239848905
222,721.6974096800393
223,721.7188466291714
224,721.7383172810978
225,721.7558109092533
226,721.7713237197671
227,721.7848588828131
228,721.796426485209
229,721.806043404719
230,721.8137331088119
231,721.819525382329
232,721.8234559895209
233,721.8255662765995
234,721.8259027217722
235,721.8245164406671
236,721.8214626557105
237,721.8168001382306
238,721.8105906321045
239,721.802898267767
240,721.7937889749597
241,721.7833299014031
242,721.7715888429622
243,721.758633689569
244,721.7445318904894
245,721.7293499422902
246,721.7131529027805
247,721.6960039340515
248,721.6779638774904
249,721.6590908633607
250,721.6394399574913
251,721.6190628479992
252,721.5980075757581
253,721.5763183131104
254,721.5540351956765
255,721.5311942118365
256,721.5078271536936
257,721.4839616321416
258,721.459621156907
259,721.434825280241
260,721.4095898008546
261,721.3839270232988
262,721.357846067218
263,721.3313532200713
264,721.3044523254091
265,721.2771451969995
266,721.2494320478523
267,721.2213119228384
268,721.1927831240898
269,721.1638436198724
270,721.1344914300314
271,721.1047249835507
272,721.0745434454725
273,721.0439470116082
274,721.0129371707068
275,720.9815169351021
276,720.9496910419724
277,720.9174661278691
278,720.8848508789407
279,720.8518561582948
280,720.8184951106572
281,720.7847832437404
282,720.7507384861767
283,720.7163812233441
284,720.6817343141374
285,720.6468230927319
286,720.6116753590511
287,720.5763213600222
288,720.5407937614953
289,720.5051276088121
290,720.4693602730827
291,720.4335313803994
292,720.3976827221734
293,720.3618581460291
294,720.3261034278229
295,720.2904661259313
296,720.2549954186885
297,720.2197419248446
298,720.1847575056975
299,720.1500950466852
300,720.1158082159676
301,720.0819511975845
302,720.0485783968776
303,720.0157441163523
304,719.9835022016246
305,719.95190565942
306,719.9210062519954
307,719.890854074001
308,719.861497118545
309,719.8329808395392
310,719.8053477178709
311,719.7786368395525
312,719.7528834942755
313,719.7281188023702
314,719.7043693771878
315,719.6816570287059
316,719.6599985129294
317,719.6394053304882
318,719.6198835769948
319,719.6014338476681
320,719.5840511993888
321,719.5677251738936
322,719.552439885278
323,719.5381741732322
324,719.524901821103
325,719.5125918357205
326,719.5012087845078
327,719.4907131848021
328,719.4810619400827
329,719.4722088172135
330,719.4641049577007
331,719.4566994147433
332,719.4499397070143
333,719.4437723796507
334,719.4381435625978
335,719.4329995163162
336,719.4282871553867
337,719.4239545418441
338,719.419951341454
339,719.4162292369748
340,719.412742292724
341,719.4094472651861
342,719.4063038555728
343,719.4032749021912
344,719.4003265126355
345,719.3974281375749
346,719.3945525890911
347,719.3916760071467
348,719.3887777780078
349,719.3858404086511
350,719.3828493619128
351,719.3797928584668
352,719.3766616529515
353,719.3734487918547
354,719.3701493602258
355,719.3667602239275
356,719.3632797746596
357,719.3597076860523
358,719.356044689826
359,719.352292380812
360,719.3484530586378
361,719.3445296124753
362,719.3405254533154
363,719.3364444954651
364,719.3322911853339
365,719.3280705717382
366,719.3237884089352
367,719.3194512825186
368,719.3150667494745
369,719.3106434862756
370,719.3061914414817
371,719.3017219910656
372,719.2972480955178
373,719.2927844579273
374,719.2883476819696
375,719.2839564281674
376,719.2796315658555
377,719.2753963170244
378,719.2712763870553
379,719.2673000766786
380,719.263498369048
381,719.2599049853454
382,719.2565564019656
383,719.2534918224935
384,719.2507530984233
385,719.2483845936954
386,719.2464329896655
387,719.2449470290824
388,719.2439771996045
389,719.2435753585354
390,719.2437943006925
391,719.2446872714964
392,719.2463074282516
393,719.2487072542211
394,719.251937932235
395,719.2560486872553
396,719.2610861106208
397,719.2670934819668
398,719.2741101066848
399,719.2821706863232
400,719.2913047371021
401,719.3015360690986
402,719.3128823361693
403,719.3253546637599
404,719.3389573580305
405,719.353687695749
406,719.3695357908916
407,719.386484531246
408,719.4045095767581
409,719.4235794110486
410,719.4436554383258
411,719.4646921195762
412,719.4866371441702
413,719.5094316354056
414,719.5330103902389
415,719.5573021538676
416,719.5822299290447
417,719.607711318835
418,719.6336589004899
419,719.6599806271709
420,719.6865802533382
421,719.7133577792243
422,719.7402099104356
423,719.767030530227
424,719.7937111834655
425,719.8201415719501
426,719.8462100606222
427,719.871804193822
428,719.8968112205256
429,719.9211186275653
430,719.9446146801389
431,719.9671889691998
432,719.9887329653526
433,720.0091405783816
434,720.0283087202577
435,720.0461378676629
436,720.062532618566
437,720.0774022366696
438,720.0906611773624
439,720.1022295888489
440,720.1120337825919
441,720.1200066681722
442,720.1260881485227
443,720.1302254714918
444,720.1323735329478
445,720.1324951260624
446,720.1305611317094
447,720.1265506459754
448,720.1204510421135
449,720.1122579656543
450,720.1019752627602
451,720.0896148431242
452,720.0751964795721
453,720.0587475472729
454,720.0403027066359
455,720.0199035355289
456,719.9975981175103
457,719.9734405927735
458,719.9474906777671
459,719.9198131584931
460,719.890477361592
461,719.8595566068252
462,719.8271276447641
463,719.7932700842583
464,719.7580658151079
465,719.7215984318758
466,719.6839526647658
467,719.6452138229085
468,719.6054672544419
469,719.5647978269226
470,719.5232894310752
471,719.4810245101926
472,719.438083616445
473,719.3945449947072
474,719.3504841949813
475,719.3059737155859
476,719.2610826799503
477,719.215876549754
478,719.1704168765809
479,719.1247610935203
480,719.0789623472482
481,719.033069370102
482,718.9871263907685
483,718.9411730817791
484,718.8952445421713
485,718.8493713143081
486,718.8035794344997
487,718.7578905173646
488,718.7123218738906
489,718.6668866631138
490,718.621594077096
491,718.5764495586728
492,718.531455051826
493,718.4866092854019
494,718.4419080913368
495,718.3973447579449
496,718.3529104173535
497,718.3085944644458
498,718.2643850032429
499,718.2202693159079
500,718.1762343495132
501,718.1322672161925
502,718.0883557029714
503,718.0444887879589
504,718.0006571592827
505,717.9568537320114
506,717.9130741566911
507,717.8693173117422
508,717.8255857713261
509,717.781886240232
510,717.7382299473331
511,717.694632989068
512,717.6511166146081
513,717.6077074454688
514,717.5644376243349
515,717.5213448900608
516,717.4784725772814
517,717.4358695396256
518,717.3935899956477
519,717.3516932967207
520,717.3102436163591
521,717.2693095609444
522,717.2289637028678
523,717.189282038651
524,717.1503433763742
525,717.1122286585935
526,717.0750202287065
527,717.0388010500321
528,717.0036538875286
529,716.9696604624135
530,716.9369005904719
531,716.9054513156846
532,716.8753860516101
533,716.8467737431636
534,716.8196780608301
535,716.794156638274
536,716.7702603632697
537,716.7480327310191
538,716.7275092679308
539,716.7087170325484
540,716.6916741984525
541,716.6763897217716
542,716.6628630937951
543,716.6510841777878
544,716.6410331289281
545,716.6326803969349
546,716.625986811516
547,716.6209037508976
548,716.6173733938585
549,716.6153290563741
550,716.6146956147609
551,716.6153900171862
552,716.6173218843466
553,716.6203941986686
554,716.624504079885
555,716.6295436425404
556,716.6354009271511
557,716.6419608923088
558,716.6491064520868
559,716.6567195426475
560,716.6646822029583
561,716.6728776556033
562,716.6811913744303
563,716.6895121261753
564,716.6977329731307
565,716.7057522237335
566,716.7134743185047
567,716.7208106404958
568,716.7276802417589
569,716.734010479353
570,716.7397375553988
571,716.7448069561099
572,716.7491737857674
573,716.752802994176
574,716.7556694997248
575,716.7577582133596
576,716.7590639705071
577,716.7595913783082
578,716.7593545849354
579,716.7583769769328
580,716.7566908101547
581,716.7543367804594
582,716.751363541259
583,716.747827175242
584,716.7437906269677
585,716.7393231027669
586,716.7344994454068
587,716.7293994927667
588,716.7241074310493
589,716.7187111530783
590,716.7133016312918
591,716.7079723136654
592,716.702818549007
593,716.6979370456668
594,716.6934253648727
595,716.6893814474582
596,716.6859031715733
597,716.6830879389987
598,716.6810322879701
599,716.6798315304959
600,716.6795794125746
601,716.6803677968961
602,716.6822863690015
603,716.6854223687385
604,716.6898603491286
605,716.6956819647369
606,716.7029657911659
607,716.7117871760462
608,716.7222181198717
609,716.7343271827505
610,716.7481794112139
611,716.7638362781164
612,716.7813556285644
613,716.8007916256579
614,716.8221946912602
615,716.8456114385913
616,716.8710845948432
617,716.8986529132229
618,716.928351074896
619,716.9602095821201
620,716.9942546443326
621,717.0305080592535
622,717.0689870913473
623,717.1097043502734
624,717.1526676723546
625,717.1978800087052
626,717.2453393242021
627,717.2950385112845
628,717.3469653213939
629,717.4011023151995
630,717.4574268312714
631,717.5159109719675
632,717.5765216052223
633,717.6392203816401
634,717.7039637674183
635,717.7707030945759
636,717.8393846303464
637,717.9099496673449
638,717.982334635547
639,718.056471236608
640,718.1322866006581
641,718.209703465243
642,718.2886403755218
643,718.3690119043996
644,718.4507288909552
645,718.5336986949133
646,718.6178254636404
647,718.7030104064106
648,718.7891520692258
649,718.8761466031228
650,718.9638880196828
651,719.0522684286778
652,719.1411782537476
653,719.2305064227183
654,719.3201405301841
655,719.4099669717593
656,719.4998710518877
657,719.58973706942
658,719.6794483866158
659,719.768887487853
660,719.8579360347775
661,719.9464749250911
662,720.0343843621845
663,720.1215439418611
664,720.2078327607015
665,720.2931295488877
666,720.3773128289951
667,720.4602611012523
668,720.5418530546632
669,720.6219678018941
670,720.7004851341683
671,720.7772857912458
672,720.8522517415228
673,720.925266468466
674,720.9962152614719
675,721.0649855109103
676,721.1314670080652
677,721.1955522508669
678,721.2571367558883
679,721.3161193762222
680,721.3724026240801
681,721.425892996861
682,721.4765013060163
683,721.5241430084163
684,721.5687385394357
685,721.6102136460463
686,721.6484997176301
687,721.683534111951
688,721.7152604730517
689,721.7436290365657
690,721.7685969166643
691,721.7901283682655
692,721.8081950183064
693,721.8227760604074
694,721.8338584078923
695,721.8414368010681
696,721.8455138661753
697,721.846100125122
698,721.8432139564659
699,721.8368815091787
700,721.8271365718997
701,721.8140204014609
702,721.7975815147639
703,721.777875447489
704,721.7549644823943
705,721.7289173499104
706,721.6998089043344
707,721.6677197796379
708,721.6327360295454
709,721.5949487573002
710,721.5544537414651
711,721.5113510648845
712,721.4657447540131
713,721.4177424346233
714,721.3674550075553
715,721.3149963455835
716,721.2604830103977
717,721.20403398725
718,721.1457704338503
719,721.0858154396857
720,721.0242937920742
721,720.9613317459967
722,720.897056796066
723,720.8315974501517
724,720.7650830040533
725,720.6976433150138
726,720.629408570004
727,720.5605090438685
728,720.4910748429614
729,720.4212356313802
730,720.3511203386535
731,720.2808568492011
732,720.2105716749672
733,720.1403896135347
734,720.0704333949202
735,720.0008233212026
736,719.9316769041172
737,719.8631085063265
738,719.7952289915601
739,719.7281453870478
740,719.6619605594717
741,719.5967729043848
742,719.5326760493814
743,719.4697585727107
744,719.4081037401553
745,719.3477892629793
746,719.288887078984
747,719.2314631583146
748,719.1755773361065
749,719.121283174621
750,719.0686278572608
751,719.0176521157248
752,718.9683901902766
753,718.9208698223638
754,718.875112278805
755,718.8311324070262
756,718.7889387206784
757,718.7485335140788
758,718.7099130025044
759,718.6730674838732
760,718.6379815161039
761,718.6046341040158
762,718.5729988907179
763,718.5430443509828
764,718.5147339869292
765,718.488026528351
766,718.4628761412426
767,718.4392326489897
768,718.4170417712901
769,718.3962453856899
770,718.3767818154266
771,718.3585861454229
772,718.3415905666451
773,718.3257247482961
774,718.3109162371491
775,718.2970908827372
776,718.2841732855709
777,718.2720872635208
778,718.2607563298261
779,718.2501041752636
780,718.2400551470196
781,718.2305347180065
782,718.2214699427208
783,718.2127898985461
784,718.2044261137261
785,718.1963129846935
786,718.1883881861515
787,718.180593077035
788,718.1728731039557
789,718.165178201281
790,718.1574631843719
791,718.1496881301628
792,718.1418187373374
793,718.1338266570665
794,718.1256897850855
795,718.1173925068692
796,718.1089258891426
797,718.100287811978
798,718.0914830359467
799,718.0825231989578
800,718.0734267386163
801,718.0642187382804
802,718.0549306973454
803,718.0456002275848
804,718.036270678125
805,718.0269906930736
806,718.0178137082328
807,718.0087973956471
808,718.0000030659047
809,717.9914950379844
810,717.9833399856503
811,717.9756062686466
812,717.9683632565934
813,717.9616806535446
814,717.9556278312564
815,717.950273178791
816,717.9456834748075
817,717.9419232871187
818,717.9390544026779
819,717.9371352908154
820,717.9362206033027
821,717.9363607159723
822,717.9376013171845
823,717.9399830479713
824,717.9435411974548
825,717.9483054555772
826,717.9542997235377
827,717.9615419808049
828,717.9700442063491
829,717.9798123509121
830,717.9908463565813
831,718.0031402194726
832,718.0166820906846
833,718.0314544098387
834,718.0474340647378
835,718.0645925702642
836,718.0828962595596
837,718.1023064806883
838,718.1227797925648
839,718.1442681551364
840,718.1667191105495
841,718.1900759541
842,718.2142778960714
843,718.2392602177205
844,718.2649544261716
845,718.2912884138618
846,718.3181866290345
847,718.3455702645971
848,718.3733574727515
849,718.4014636118014
850,718.4298015298816
851,718.4582818885948
852,718.4868135277778
853,718.5153038706775
854,718.5436593668001
855,718.5717859680077
856,718.5995896322546
857,718.6269768483054
858,718.6538551734752
859,718.6801337750163
860,718.7057239647752
861,718.7305397166089
862,718.7544981566722
863,718.7775200174971
864,718.7995300472971
865,718.8204573665528
866,718.8402357653622
867,718.8588039371288
868,718.8761056460777
869,718.892089827628
870,718.9067106222911
871,718.9199273457652
872,718.9317043998594
873,718.9420111303157
874,718.950821638347
875,718.9581145531336
876,718.9638727731653
877,718.9680831851518
878,718.9707363693726
879,718.9718262990993
880,718.9713500394782
881,718.9693074489696
882,718.9657008845666
883,718.9605349104239
884,718.9538160083998
885,718.9455522892649
886,718.9357532054635
887,718.9244292691177
888,718.9115917805753
889,718.8972525727152
890,718.8814237755121
891,718.864117605027
892,718.8453461809256
893,718.8251213763056
894,718.8034547029218
895,718.7803572342406
896,718.7558395684912
897,718.729911834007
898,718.7025837391591
899,718.67386466845
900,718.6437638244769
901,718.6122904128966
902,718.5794538652007
903,718.5452640929093
904,718.5097317667824
905,718.4728686152431
906,718.4346877368654
907,718.3952039222472
908,718.3544339810157
909,718.3123970701844
910,718.2691150204106
911,718.2246126564207
912,718.1789181070369
913,718.1320630996495
914,718.0840832341694
915,718.0350182319379
916,717.9849121550268
917,717.9338135910709
