frame_number,force
0,682.8957000000776
1,682.895343141881
2,682.8920195402517
3,682.8833581025978
4,682.8680391241678
5,682.8460153834316
6,682.818480864553
7,682.7876380277424
8,682.7563381474015
9,682.7276544489766
10,682.7044288951734
11,682.6888325526121
12,682.681996809043
13,682.6837945664665
14,682.6928510506281
15,682.7068181459919
16,682.7228603606331
17,682.7382211042541
18,682.7507140129399
19,682.7590223587056
20,682.7627588451298
21,682.7623077713909
22,682.7585268860461
23,682.7524149350777
24,682.7448411216303
25,682.7363889798293
26,682.7273140105115
27,682.7175772637235
28,682.7069070672508
29,682.6948564681925
30,682.6808508623845
31,682.6642378737114
32,682.6443501131633
33,682.6205802888862
34,682.5924635023244
35,682.5597707518992
36,682.5226266269984
37,682.4816472168606
38,682.4380515975416
39,682.3936702231521
40,682.3507894933648
41,682.3118255727694
42,682.2788808060458
43,682.2532787058437
44,682.2351871384345
45,682.2234244078504
46,682.2155092986548
47,682.2079714292648
48,682.1968860543865
49,682.1785483320474
50,682.1501703057394
51,682.1104726764227
52,682.0600508737634
53,682.0014296554804
54,681.9387868982285
55,681.8774000781036
56,681.8229141247396
57,681.7805451055947
58,681.7543406592027
59,681.7466167012955
60,681.7576630129582
61,681.7857550747349
62,681.8274502920779
63,681.878108006747
64,681.9325514325378
65,681.9857696554606
66,682.033542709657
67,682.0728829869429
68,682.1022291218422
69,682.12139044796
70,682.1312997495643
71,682.1336652755012
72,682.1306041732227
73,682.1243041715649
74,682.1167351218043
75,682.1094318724552
76,682.10337780713
77,682.0990122516585
78,682.0963561775159
79,682.0952115299514
80,682.0953710496826
81,682.0967939261449
82,682.0997346887345
83,682.1048271431649
84,682.113121596694
85,682.1260698241894
86,682.1454557751952
87,682.1732786281768
88,682.2116045083469
89,682.2624084600272
90,682.3274244466422
91,682.4080072225752
92,682.5049915236408
93,682.6185266485577
94,682.7478796584796
95,682.8912280072257
96,683.0454835538726
97,683.2061991759825
98,683.3676085772231
99,683.5228347240363
100,683.664269833542
101,683.7840931360379
102,683.8748722916305
103,683.9301960610658
104,683.9452960333035
105,683.9176181517522
106,683.8472956992667
107,683.7374579289254
108,683.5942924437625
109,683.4267843802406
110,683.2460987915733
111,683.0646451775542
112,682.8949324270653
113,682.7483636361088
114,682.634129564367
115,682.5583417447201
116,682.5235085088754
117,682.5284112883562
118,682.5683910643928
119,682.6360003642806
120,682.7219166035198
121,682.8159690392862
122,682.9081242047414
123,682.9893061332925
124,683.0519880582319
125,683.0905593867539
126,683.1015149412812
127,683.0835187224885
128,683.0373776598078
129,682.965942873403
130,682.873938060011
131,682.7676928554173
132,682.6547476398279
133,682.5433130238121
134,682.4416059238437
135,682.357122162073
136,682.2959304891575
137,682.2620851455649
138,682.2572515803134
139,682.2806153833309
140,682.3290968630401
141,682.3978365048215
142,682.4808693764447
143,682.5718808803044
144,682.6649342406138
145,682.755078516322
146,682.8387733099704
147,682.9140906611467
148,682.9806796297534
149,683.0395153541759
150,683.0924926056632
151,683.1419396231738
152,683.190116605712
153,683.2387472259793
154,683.2886299499955
155,683.3393870771554
156,683.3894179860977
157,683.4361057665789
158,683.4762705603443
159,683.5067905589048
160,683.5252600095044
161,683.5305401013679
162,683.5230836965867
163,683.5049724736939
164,683.4796753790652
165,683.4515947542656
166,683.425499176382
167,683.4059501302756
168,683.3968143572203
169,683.4009198537666
170,683.4198757654357
171,683.4540514045474
172,683.502699265904
173,683.564198036241
174,683.6363731467851
175,683.716827634167
176,683.8032024989498
177,683.8933033930371
178,683.9850775455594
179,684.0764731400855
180,684.1652400175476
181,684.2487377637092
182,684.3238138223109
183,684.3868010244867
184,684.433662096668
185,684.4602850439109
186,684.4629121667866
187,684.4386641138713
188,684.3860934462017
189,684.3056721522341
190,684.2001011937836
191,684.074346408433
192,683.9353548228322
193,683.7914710282238
194,683.6516338980622
195,683.5244747673729
196,683.417453387469
197,683.3361600431111
198,683.2838820538407
199,683.2614758705399
200,683.267511766461
201,683.2986025914652
202,683.3498226348577
203,683.4151571308712
204,683.4879576057801
205,683.5613886305547
206,683.6288473620879
207,683.68433974592
208,683.7228100052328
209,683.7404281451592
210,683.7348314910657
211,683.7052953531903
212,683.6527936273383
213,683.579921803322
214,683.4906895108136
215,683.3902167583464
216,683.2843652857792
217,683.1793213253461
218,683.0811478363912
219,682.9953427977133
220,682.9264533188102
221,682.8777891190596
222,682.8512555579333
223,682.8472999655272
224,682.8649530685773
225,682.9019529155844
226,682.9549465867061
227,683.0197630795983
228,683.091741914014
229,683.1660923613324
230,683.2382498328927
231,683.3041901377663
232,683.3606620416963
233,683.4053098633841
234,683.4366849630793
235,683.4541773031013
236,683.4579135095858
237,683.4486571277777
238,683.4277244082334
239,683.3969149562525
240,683.358457788035
241,683.3149784423811
242,683.2694839421355
243,683.2253359961273
244,683.1861552524285
245,683.1555943740436
246,683.1369500260823
247,683.1326466568848
248,683.1436919819287
249,683.1692465439551
250,683.206448202195
251,683.2505828976413
252,683.2956125048999
253,683.3349894475123
254,683.3626284989176
255,683.3738731184789
256,683.3662862981708
257,683.3401209027909
258,683.2983868131378
259,683.2465214248468
260,683.1917561561667
261,683.1423147860133
262,683.1065618784398
263,683.0921696259555
264,683.1053391664749
265,683.1501208107345
266,683.2279059607234
267,683.3371733129353
268,683.4735448833542
269,683.6301588745549
270,683.7983238038986
271,683.9683920076814
272,684.1307696507146
273,684.2769512589217
274,684.4004357805934
275,684.4973764367575
276,684.5668595568175
277,684.6107860660037
278,684.6334078712958
279,684.6406191583793
280,684.6391105022046
281,684.6354760990848
282,684.6353447777057
283,684.6426019855323
284,684.6587883753726
285,684.6827822593907
286,684.710862735698
287,684.7371934860715
288,684.7546826619842
289,684.7560871732798
290,684.7351654324991
291,684.6876729930904
292,684.6120500987231
293,684.5097313155565
294,684.3850672678219
295,684.2448805734939
296,684.0977105737321
297,683.9528502053688
298,683.8193232933938
299,683.7049597313447
300,683.6156956980533
301,683.5551799193155
302,683.5247162527165
303,683.5235082960666
304,683.5491015471198
305,683.5978800062128
306,683.6654934817744
307,683.7471559052143
308,683.837826699662
309,683.932333531512
310,684.0254994804544
311,684.1123088333946
312,684.1881096818008
313,684.2488294051993
314,684.2911754508432
315,684.312804752881
316,684.3124609751866
317,684.2900850124528
318,684.2468952540374
319,684.1854182286038
320,684.1094367188495
321,684.023816950906
322,683.9341884556699
323,683.8464878402631
324,683.7664298775727
325,683.6990045689068
326,683.6480920867513
327,683.6162434274627
328,683.6046197942568
329,683.6130438770593
330,683.6401051871358
331,683.6832800167563
332,683.739059957129
333,683.8031075617724
334,683.8704591706758
335,683.9357811537838
336,683.9936755799632
337,684.0390299976256
338,684.0674034747713
339,684.075428863895
340,684.061190389167
341,684.0245133298415
342,683.9670930074027
343,683.8924090300425
344,683.8054171915143
345,683.7120652434194
346,683.6187174350318
347,683.5315828903742
348,683.4562217510016
349,683.3971644935764
350,683.3576498560664
351,683.3394771854122
352,683.3429673887737
353,683.3670190860072
354,683.4092332918913
355,683.4660701538743
356,683.5330077353088
357,683.6047014904534
358,683.6751778442834
359,683.7381083333784
360,683.7871901686757
361,683.816615802641
362,683.8215708031829
363,683.7986825805427
364,683.7463675118275
365,683.6650701541333
366,683.5574088644128
367,683.4282183890582
368,683.2844449755587
369,683.1348450632984
370,682.9894693486209
371,682.8589536094604
372,682.7536647348251
373,682.6827690483104
374,682.6533126127943
375,682.6694248146855
376,682.7317622664583
377,682.8372941123696
378,682.9794893302624
379,683.1488974345157
380,683.3340325359566
381,683.5224184078667
382,683.7016562188687
383,683.8604187391862
384,683.9893128438115
385,684.0815630156815
386,684.1334628637716
387,684.1445453813021
388,684.1174508927636
389,684.0575112234881
390,683.9720923182794
391,683.8697438996319
392,683.7592219564025
393,683.6484914090356
394,683.543859133115
395,683.4493963880141
396,683.3667657917838
397,683.2954793554272
398,683.2335111241157
399,683.1781097287636
400,683.1266323438107
401,683.0772546578212
402,683.0294740162686
403,682.9843772933026
404,682.9446693321756
405,682.9144593196453
406,682.8988090591661
407,682.9030792435157
408,682.9321591294586
409,682.989700477589
410,683.0774745747716
411,683.1949387468835
412,683.3390597857631
413,683.5044066483497
414,683.68349228268
415,683.867320165026
416,684.0460815636926
417,684.2099453569615
418,684.3498683031837
419,684.4583341776341
420,684.5299297610885
421,684.561699038846
422,684.5532671921695
423,684.5067636568234
424,684.4265877451254
425,684.3190589414521
426,684.1919867767091
427,684.0541865468537
428,683.9149559658495
429,683.7835141129806
430,683.6683998411603
431,683.5768482542339
432,683.5142046070297
433,683.4834643458474
434,683.4850239879102
435,683.5166960503162
436,683.5739982585231
437,683.6506823095979
438,683.73942931784
439,683.8326173534249
440,683.923062053371
441,684.0046390392938
442,684.072718674647
443,684.1243848639239
444,684.1584607592644
445,684.1753989052198
446,684.1770919656198
447,684.1666314130023
448,684.1480118165612
449,684.1257671889229
450,684.1045392363943
451,684.0886098362564
452,684.0814616867475
453,684.0854371788364
454,684.1015409043249
455,684.1293967243656
456,684.1673503342618
457,684.2127049156643
458,684.2620708799423
459,684.3117868636962
460,684.3583425051331
461,684.3987291146966
462,684.4306619229397
463,684.4526380999654
464,684.4638189269081
465,684.463769692905
466,684.4521485372143
467,684.4284661292837
468,684.392013420331
469,684.3419877030589
470,684.2777795705024
471,684.1993457035293
472,684.1075827145687
473,684.004621661465
474,683.8939786516582
475,683.7805236354309
476,683.6702581051101
477,683.5699168354251
478,683.4864312416074
479,683.4263112194359
480,683.3950110738012
481,683.3963430984292
482,683.4319991980184
483,683.501238728353
484,683.6007870007215
485,683.7249590788173
486,683.8659973934588
487,684.014608512618
488,684.1606895665956
489,684.2942149039958
490,684.406202078513
491,684.489623989496
492,684.540115200477
493,684.5563468396028
494,684.5400080887628
495,684.4954143351986
496,684.4288378054393
497,684.3477043272586
498,684.2598070341885
499,684.1726492707593
500,684.0929570248607
501,684.0263327995383
502,683.9769937197975
503,683.9475519703586
504,683.9388366845824
505,683.9498000510771
506,683.9775742073493
507,684.0177332843937
508,684.0647660238349
509,684.1126959949553
510,684.155732872787
511,684.1888336904282
512,684.2080985853214
513,684.2109859219261
514,684.1963723622788
515,684.1644996488538
516,684.1168541084047
517,684.0560178692355
518,683.9855041662041
519,683.909557429387
520,683.8328930557028
521,683.7603736423372
522,683.6966398616457
523,683.6457233811736
524,683.6106813919072
525,683.5933127930654
526,683.5940238669903
527,683.6118865596426
528,683.6448839821381
529,683.6902924194271
530,683.7451240584336
531,683.8065486953187
532,683.8722201254267
533,683.9404540639745
534,684.0102406736964
535,684.0811192546739
536,684.1529795158217
537,684.2258660756012
538,684.2998433945412
539,684.3749374847025
540,684.4511305870411
541,684.5283632553017
542,684.6064986299868
543,684.6852202897581
544,684.7638606043382
545,684.8411877093135
546,684.9152141696394
547,684.98311489521
548,685.0413310424628
549,685.0858852609182
550,685.1128686974706
551,685.119010969099
552,685.1022224346706
553,685.0620076685609
554,684.999685250171
555,684.9183904357129
556,684.8228657382012
557,684.7190630541179
558,684.6135997064605
559,684.5131281814921
560,684.4236880766385
561,684.350109072532
562,684.295532065346
563,684.2611113318403
564,684.2459438123382
565,684.2472388606212
566,684.2607038647075
567,684.2810894141543
568,684.302813768584
569,684.3205696320715
570,684.3298149648476
571,684.3270772081082
572,684.3100568014578
573,684.2775782848598
574,684.2294761784476
575,684.1665032557128
576,684.0903129506323
577,684.0035105254866
578,683.9097143108328
579,683.8135415942386
580,683.7204412233152
581,683.636332162693
582,683.5670643802015
583,683.5177792419315
584,683.4922888749296
585,683.4925983507303
586,683.5186553347461
587,683.5683458580972
588,683.637697985366
589,683.7212367550619
590,683.8124504968016
591,683.9043485264584
592,683.9900824772881
593,684.0635667677026
594,684.1200000363456
595,684.1561937718409
596,684.1706577720906
597,684.1634455154085
598,684.1358046678534
599,684.0897101239954
600,684.0273802663818
601,683.9508783087856
602,683.8618723955747
603,683.7615840727518
604,683.6509130459192
605,683.5306938530063
606,683.4020165828829
607,683.2665301783366
608,683.126650307546
609,682.9856186782497
610,682.8473963444065
611,682.7164040928596
612,682.5971454316852
613,682.4937660394617
614,682.4096152884736
615,682.3468764424908
616,682.3063237677544
617,682.287249394959
618,682.287579025917
619,682.3041639201712
620,682.333204670394
621,682.370739141867
622,682.4131165024347
623,682.4573850567646
624,682.5015478655662
625,682.5446772390734
626,682.5868998116056
627,682.6292538874723
628,682.673406162154
629,682.7212331774971
630,682.7743237463425
631,682.8335066725521
632,682.8985230122886
633,682.9679377294236
634,683.0393312714646
635,683.109741811537
636,683.1762602215443
637,683.2366308409709
638,683.2896995191352
639,683.335584950686
640,683.3755244599633
641,683.4114414617972
642,683.4453642733557
643,683.4788582539845
644,683.5126068052765
645,683.5462173807686
646,683.5782692520185
647,683.6065776412606
648,683.6286210073639
649,683.6420501473184
650,683.6451672905366
651,683.6372561143422
652,683.6186871528029
653,683.5908053028867
654,683.5556784616624
655,683.5158131080016
656,683.4739263029076
657,683.432821074071
658,683.3953575485364
659,683.3644652382047
660,683.3431251576271
661,683.3342689296184
662,683.3405777181919
663,683.364197462378
664,683.4064171756067
665,683.4673881736762
666,683.5459794800369
667,683.639841178058
668,683.7456761193787
669,683.8596344608078
670,683.9777017662534
671,684.0959829906636
672,684.2108667194925
673,684.3191261364872
674,684.4180329904304
675,684.5055284406582
676,684.5804394194471
677,684.642684792099
678,684.6934002215596
679,684.734924990587
680,684.7706320619194
681,684.8046286911754
682,684.8413781191377
683,684.8852747086714
684,684.940173400169
685,685.0088791055414
686,685.0926512534874
687,685.1908336083889
688,685.3007391076106
689,685.4178856999753
690,685.5365957395006
691,685.6508688484837
692,685.7553573448636
693,685.8462369939353
694,685.9217813057336
695,685.9825154540589
696,686.0309265978461
697,686.0708086316985
698,686.106401818119
699,686.1415357350487
700,686.1789700838426
701,686.2200451137462
702,686.2646463306526
703,686.3114171397957
704,686.3581349567144
705,686.4021740659746
706,686.4409871916976
707,686.472544612429
708,686.4956785879164
709,686.510292528324
710,686.5174113927274
711,686.5190775611258
712,686.5181309822456
713,686.5179356176315
714,686.5221128720824
715,686.5343235894758
716,686.5581153350057
717,686.5968237253721
718,686.6534867318024
719,686.7307115255575
720,686.8304454442431
721,686.9536536511611
722,687.0999722860748
723,687.26744643163
724,687.4524536222566
725,687.6498671710469
726,687.8534574788151
727,688.0564796554775
728,688.2523541780562
729,688.4353234030112
730,688.6009771461735
731,688.7465817051263
732,688.8711913513172
733,688.9755515100429
734,689.0618275904444
735,689.1332255073584
736,689.1935991686065
737,689.2471385708178
738,689.2981847522939
739,689.3511460910034
740,689.4104378336237
741,689.4803601993403
742,689.564864973874
743,689.6672187441403
744,689.7896327716114
745,689.932965612051
746,690.0965943792935
747,690.2785067733579
748,690.4756166887212
749,690.6842625049062
750,690.9008038660446
751,691.1221905900825
752,691.3463576773623
753,691.5723341673366
754,691.8000467815384
755,692.0299123913475
756,692.2623839663961
757,692.4976038252047
758,692.7352412126817
759,692.9745061446915
760,693.2142851326636
761,693.4533331858865
762,693.6904505365551
763,693.9245677991838
764,694.1546828174199
765,694.3796464732877
766,694.5978641977139
767,694.8070297685159
768,695.0040084246549
769,695.1849372693982
770,695.345544383896
771,695.4816374761726
772,695.5896874507027
773,695.6674201901733
774,695.7143186734484
775,695.7319337273331
776,695.7239252846447
777,695.6958110653062
778,695.6544632687807
779,695.6074404689347
780,695.5622620643883
781,695.5257277144701
782,695.5033613898722
783,695.4990334851752
784,695.5147932827294
785,695.5509179202536
786,695.6061442269022
787,695.6780121615036
788,695.7632371428028
789,695.8580459456969
790,695.9584419030588
791,696.0603995854426
792,696.1600208265904
793,696.2536961585563
794,696.3382938965404
795,696.4113576802405
796,696.4712641972944
797,696.5172906436796
798,696.5495594563919
799,696.5688576989926
800,696.5763640010365
801,696.5733443586146
802,696.5608850934835
803,696.5397157296
804,696.5101474128546
805,696.4721246338898
806,696.4253694680846
807,696.3695928035733
808,696.3047412721382
809,696.23122602872
810,696.1500589424239
811,696.0628391299845
812,695.9715875336102
813,695.8784777717981
814,695.7855237011028
815,695.6942631617551
816,695.6054542816502
817,695.5188007460933
818,695.4327433625971
819,695.3443729479283
820,695.2495157543729
821,695.1430202343968
822,695.0192415304713
823,694.8726755010151
824,694.6986384556516
825,694.4938487150818
826,694.2567814117798
827,693.9877485682294
828,693.6887590895269
829,693.3632729172061
830,693.0159494037136
831,692.6524233395372
832,692.2790717657065
833,691.9027066799785
834,691.5301610029129
835,691.1678027632174
836,690.8210656304531
837,690.4940909375907
838,690.1895427747803
839,689.9086055849987
840,689.6511229528078
841,689.4158095938911
842,689.200481946329
843,689.0022919486789
844,688.8179772212695
845,688.6441363040135
846,688.4775092278732
847,688.3152191266871
848,688.1549287016893
849,687.9948837580848
850,687.8338420826847
851,687.6709123305548
852,687.5053528965149
853,687.336397425697
854,687.1631675639618
855,686.9847029241716
856,686.800099865655
857,686.608720710316
858,686.4104178583659
859,686.2057129812974
860,685.9958773096714
861,685.7828695059333
862,685.5691060072985
863,685.357076400354
864,685.1488692485254
865,684.9457142169325
866,684.7476495326017
867,684.553389893184
868,684.3604173574751
869,684.1652697017977
870,683.9639729798079
871,683.7525529400657
872,683.5275477489805
873,683.2864348007408
874,683.0278991763354
875,682.7519141939031
876,682.4596467163228
877,682.1532200197316
878,681.8353796447086
879,681.509129009687
880,681.1774152606031
881,680.8429293946082
882,680.5080432148102
883,680.1748614273394
884,679.8453377561385
885,679.5213925142891
886,679.2049658957404
887,678.8979451528102
888,678.6019341237105
889,678.3178977607562
890,678.045782575303
891,677.7842513183173
892,677.5306679663423
893,677.2814254708105
894,677.0326186704381
895,676.7809485313059
896,676.524652820844
897,676.264237005362
898,676.0028331207619
899,675.7461119792919
900,675.5017734106918
901,675.2787133842388
902,675.0860072526691
903,674.9318570217364
904,674.8226352312172
905,674.7621256011283
906,674.7510144037268
907,674.7866375470257
908,674.8629609985763
909,674.9707839727174
910,675.0981908324885
911,675.2312973542055
912,675.3553045219737
913,675.455793109226
914,675.5201119705922
915,675.5386769849739
916,675.5060058246462
917,675.4213412392445
