frame_number,force
0,723.3807370027803
1,723.3735772604127
2,723.3663353085325
3,723.3589296799805
4,723.3512803822618
5,723.3433096101616
6,723.334942429807
7,723.3261074266427
8,723.3167373116326
9,723.3067694817894
10,723.2961465322472
11,723.2848167177515
12,723.2727343623495
13,723.2598602173414
14,723.2461617685128
15,723.2316134938931
16,723.2161970731905
17,723.1999015502122
18,723.1827234498952
19,723.1646668516795
20,723.1457434206999
21,723.1259723979266
22,723.1053805502008
23,723.0840020810389
24,723.0618785028847
25,723.0390584711611
26,723.0155975800667
27,722.9915581194509
28,722.9670087910381
29,722.942024380754
30,722.9166853822774
31,722.8910775660056
32,722.8652914882468
33,722.8394219376513
34,722.813567318567
35,722.7878289730221
36,722.7623104444756
37,722.7371166883729
38,722.712353237477
39,722.6881253333366
40,722.6645370379225
41,722.6416903407386
42,722.6196842767941
43,722.5986140701458
44,722.5785703163426
45,722.5596382150907
46,722.5418968623402
47,722.5254186093215
48,722.5102684947233
49,722.4965037548359
50,722.4841734151113
51,722.473317965554
52,722.4639691216131
53,722.4561496712612
54,722.4498734073783
55,722.4451451427726
56,722.4419608037095
57,722.4403075967363
58,722.4401642424338
59,722.4415012682055
60,722.4442813507766
61,722.4484596986932
62,722.4539844661048
63,722.4607971905752
64,722.4688332483963
65,722.4780223206365
66,722.4882888626489
67,722.4995525696639
68,722.5117288316666
69,722.524729172087
70,722.5384616668393
71,722.5528313425763
72,722.5677405551971
73,722.5830893514221
74,722.5987758176196
75,722.6146964210633
76,722.6307463493301
77,722.6468198534781
78,722.6628105997862
79,722.6786120333311
80,722.6941177550157
81,722.7092219122536
82,722.7238196022523
83,722.7378072856676
84,722.751083207597
85,722.7635478226541
86,722.7751042210531
87,722.7856585528496
88,722.7951204474302
89,722.8034034251366
90,722.8104252979615
91,722.8161085567762
92,722.820380743243
93,722.8231748049344
94,722.8244294319411
95,722.8240893726155
96,722.822105725442
97,722.8184362035267
98,722.8130453677337
99,722.8059048241432
100,722.7969933814709
101,722.7862971643652
102,722.7738096789692
103,722.759531827694
104,722.7434718708084
105,722.725645333447
106,722.7060748584695
107,722.6847900082256
108,722.661827020871
109,722.6372285285057
110,722.6110432449157
111,722.5833256306029
112,722.5541355424156
113,722.5235378743162
114,722.4916021947774
115,722.458402385586
116,722.4240162867785
117,722.3885253524805
118,722.3520143217886
119,722.3145709074105
120,722.2762855032207
121,722.2372509108617
122,722.1975620850188
123,722.1573158964022
124,722.1166109104596
125,722.0755471787533
126,722.0342260391722
127,721.9927499207486
128,721.951222148688
129,721.9097467455289
130,721.8684282253828
131,721.8273713796724
132,721.7866810538595
133,721.7464619148154
134,721.7068182080318
135,721.667853503429
136,721.6296704283174
137,721.5923703860074
138,721.5560532587265
139,721.5208170940023
140,721.4867577743865
141,721.4539686711421
142,721.4225402832769
143,721.3925598640731
144,721.3641110378655
145,721.3372734101579
146,721.3121221742919
147,721.2887277180905
148,721.2671552342725
149,721.2474643386104
150,721.2297086993926
151,721.2139356812573
152,721.2001860068007
153,721.1884934403594
154,721.1788844987441
155,721.171378192812
156,721.1659858024601
157,721.1627106871302
158,721.1615481344508
159,721.1624852504186
160,721.1655008948258
161,721.1705656653575
162,721.1776419330287
163,721.1866839303543
164,721.197637891986
165,721.2104422460152
166,721.2250278534357
167,721.2413182936655
168,721.2592301950533
169,721.2786736099973
170,721.2995524342043
171,721.3217648691761
172,721.3452039269264
173,721.3697579762426
174,721.3953113298965
175,721.4217448716446
176,721.4489367208687
177,721.4767629316912
178,721.5050982223016
179,721.5338167287557
180,721.5627927759436
181,721.591901657521
182,721.6210204164714
183,721.6500286178446
184,721.6788091045344
185,721.7072487261406
186,721.7352390307212
187,721.7626769097426
188,721.7894651874791
189,721.8155131473178
190,721.8407369888133
191,721.8650602107402
192,721.8884139165974
193,721.9107370400828
194,721.9319764892601
195,721.9520872096698
196,721.9710321684759
197,721.9887822638696
198,722.0053161662453
199,722.0206200995283
200,722.0346875716607
201,722.0475190623449
202,722.0591216742458
203,722.069508751968
204,722.0786994720513
205,722.0867184071042
206,722.0935950677057
207,722.0993634265046
208,722.1040614297334
209,722.1077305019985
210,722.110415050806
211,722.1121619780307
212,722.1130202062764
213,722.113040228179
214,722.1122736857811
215,722.1107729853367
216,722.1085909506321
217,722.1057805153401
218,722.1023944525782
219,722.0984851381595
220,722.0941043426741
221,722.0893030461077
222,722.0841312677079
223,722.0786379041441
224,722.0728705707487
225,722.0668754429813
226,722.0606970973583
227,722.0543783524521
228,722.0479601112339
229,722.0414812064776
230,722.0349782515881
231,722.0284855000866
232,722.0220347175356
233,722.0156550692593
234,722.0093730258789
235,722.0032122872907
236,721.997193724807
237,721.991335340553
238,721.985652242674
239,721.9801566344254
240,721.9748578147465
241,721.9697621875363
242,721.964873276875
243,721.9601917459969
244,721.9557154188584
245,721.9514393046787
246,721.9473556277311
247,721.9434538664294
248,721.9397208068219
249,721.936140615694
250,721.9326949375967
251,721.9293630186014
252,721.9261218581671
253,721.9229463898752
254,721.9198096918085
255,721.9166832272956
256,721.9135371161447
257,721.9103404356673
258,721.9070615502955
259,721.903668468536
260,721.9001292259948
261,721.896412292817
262,721.8924870031766
263,721.888324003801
264,721.8838957181367
265,721.8791768222881
266,721.8741447277746
267,721.8687800645635
268,721.8630671565708
269,721.856994481454
270,721.8505551066086
271,721.8437470931293
272,721.8365738590926
273,721.8290444933804
274,721.821174011705
275,721.8129835475302
276,721.8045004722871
277,721.795758441696
278,721.7867973676833
279,721.7776633174967
280,721.7684083424873
281,721.7590902386805
282,721.7497722403283
283,721.7405226470407
284,721.7314143853847
285,721.7225245069549
286,721.7139336264793
287,721.7057253051472
288,721.697985385767
289,721.6908012874068
290,721.6842612677143
291,721.6784536610319
292,721.6734660998935
293,721.6693847271667
294,721.6662934067198
295,721.6642729420296
296,721.6634003135367
297,721.6637479456851
298,721.665383013432
299,721.6683667965285
300,721.6727540888318
301,721.6785926692326
302,721.6859228399038
303,721.6947770361658
304,721.7051795104362
305,721.7171460907884
306,721.7306840128439
307,721.7457918223118
308,721.7624593447033
309,721.7806677188213
310,721.8003894916028
311,721.8215887733553
312,721.8442214537057
313,721.868235479199
314,721.8935711934693
315,721.9201617404805
316,721.9479335306443
317,721.9768067686437
318,722.0066960403715
319,722.0375109543348
320,722.0691568304071
321,722.1015354266337
322,722.1345456935054
323,722.16808454478
324,722.2020476343585
325,722.2363301295558
326,722.2708274719384
327,722.3054361176647
328,722.3400542503068
329,722.3745824605182
330,722.4089243880036
331,722.442987321517
332,722.4766827524583
333,722.5099268780979
334,722.542641052116
335,722.5747521823973
336,722.6061930775395
337,722.6369027436449
338,722.6668266325004
339,722.6959168424655
340,722.7241322743087
341,722.7514387448056
342,722.7778090606434
343,722.8032230546133
344,722.8276675859265
345,722.8511365067675
346,722.8736305973488
347,722.895157471232
348,722.9157314514422
349,722.9353734164088
350,722.9541106135588
351,722.9719764376262
352,722.9890101702737
353,723.005256677411
354,723.0207660607873
355,723.0355932610651
356,723.0497976104132
357,723.0634423335607
358,723.0765939975821
359,723.0893219129144
360,723.1016974911264
361,723.1137935681007
362,723.1256837039215
363,723.1374414726229
364,723.1491397560658
365,723.1608500567688
366,723.1726418447832
367,723.1845819535188
368,723.1967340381464
369,723.2091581073714
370,723.2219101353727
371,723.235041756603
372,723.248600042977
373,723.262627361062
374,723.2771613059177
375,723.2922347077545
376,723.3078757072655
377,723.3241078950085
378,723.3409505092986
379,723.358418686029
380,723.376523753269
381,723.395273563724
382,723.4146728589329
383,723.434723659937
384,723.4554256797543
385,723.4767767531928
386,723.4987732794273
387,723.5214106724895
388,723.5446838143691
389,723.5685875045796
390,723.5931168988573
391,723.6182679285297
392,723.6440376913846
393,723.6704248047466
394,723.6974297121337
395,723.725054936498
396,723.7533052751672
397,723.7821879331942
398,723.8117125924628
399,723.8418914143087
400,723.8727389746207
401,723.9042721325053
402,723.9365098359419
403,723.9694728697608
404,724.0031835526256
405,724.0376653905673
406,724.0729426950113
407,724.1090401732112
408,724.1459824987503
409,724.1837938694866
410,724.2224975601229
411,724.2621154766082
412,724.3026677199475
413,724.344172167667
414,724.3866440817729
415,724.4300957519982
416,724.4745361822016
417,724.5199708261018
418,724.5664013762803
419,724.613825607742
420,724.6622372747421
421,724.7116260578523
422,724.7619775576912
423,724.813273331774
424,724.8654909706864
425,724.918604209138
426,724.972583066888
427,725.0273940143894
428,725.0830001580376
429,725.139361439789
430,725.1964348457007
431,725.2541746180498
432,725.312532466383
433,725.3714577740507
434,725.4308977984406
435,725.4907978651204
436,725.551101557818
437,725.6117509067036
438,725.6726865764326
439,725.7338480534356
440,725.7951738299203
441,725.8566015806573
442,725.9180683281854
443,725.979510592644
444,726.0408645238289
445,726.1020660148058
446,726.1630507980798
447,726.2237545266146
448,726.2841128426909
449,726.3440614373742
450,726.4035361023377
451,726.4624727747225
452,726.5208075755181
453,726.5784768428664
454,726.6354171632206
455,726.6915654046883
456,726.7468587576043
457,726.8012347870961
458,726.8546315010304
459,726.9069874347135
460,726.9582417520149
461,727.0083343619061
462,727.057206049608
463,727.1047986218591
464,727.151055065653
465,727.1959197191923
466,727.239338453267
467,727.2812588611561
468,727.3216304554294
469,727.3604048702329
470,727.3975360671141
471,727.4329805410548
472,727.4666975215779
473,727.4986491622988
474,727.5288007116022
475,727.5571206573354
476,727.5835808392858
477,727.6081565246037
478,727.6308264433376
479,727.6515727838438
480,727.6703811504553
481,727.6872404876656
482,727.7021429757149
483,727.7150839020177
484,727.7260615121992
485,727.7350768447199
486,727.7421335544043
487,727.7472377317862
488,727.7503977260858
489,727.7516239795531
490,727.7509288799198
491,727.7483266359309
492,727.7438331787827
493,727.7374660904377
494,727.7292445586229
495,727.719189357724
496,727.7073228544081
497,727.6936690365479
498,727.6782535640823
499,727.6611038408552
500,727.6422491069654
501,727.6217205513117
502,727.5995514434776
503,727.575777282833
504,727.5504359611858
505,727.5235679340359
506,727.4952163944607
507,727.4654274427197
508,727.4342502440179
509,727.4017371669011
510,727.3679438953553
511,727.332929508482
512,727.2967565224785
513,727.259490890543
514,727.2212019572048
515,727.181962364546
516,727.1418479089352
517,727.1009373481053
518,727.0593121592385
519,727.01705624882
520,726.9742556146745
521,726.9309979605673
522,726.8873722646414
523,726.8434683047451
524,726.7993761455921
525,726.7551855936396
526,726.7109856252391
527,726.6668637924081
528,726.6229056091993
529,726.5791939208999
530,726.535808258745
531,726.4928241842773
532,726.4503126291957
533,726.4083392381643
534,726.3669637237774
535,726.3262392446488
536,726.2862118188697
537,726.2469197852686
538,726.2083933240266
539,726.1706540467162
540,726.1337146642021
541,726.0975787390045
542,726.0622405263672
543,726.0276849053662
544,725.9938873983527
545,725.9608142744166
546,725.9284227308885
547,725.8966611463657
548,725.865469398999
549,725.8347792442787
550,725.8045147470402
551,725.7745927629642
552,725.7449234655477
553,725.7154109153253
554,725.6859536687662
555,725.6564454245487
556,725.6267757046463
557,725.5968305669759
558,725.5664933458476
559,725.5356454168701
560,725.5041669842146
561,725.4719378891115
562,725.4388384381471
563,725.4047502485437
564,725.3695571062941
565,725.3331458327441
566,725.2954071560004
567,725.2562365844269
568,725.2155352794581
569,725.1732109238887
570,725.1291785803821
571,725.0833615336982
572,725.0356921091327
573,724.9861124589365
574,724.9345753084286
575,724.8810446543113
576,724.8254964089069
577,724.7679189850746
578,724.7083138170901
579,724.6466958126758
580,724.5830937309184
581,724.517550480697
582,724.4501233349154
583,724.3808840571209
584,724.3099189385771
585,724.2373287452967
586,724.1632285758617
587,724.0877476319968
588,724.0110289045742
589,723.9332287779114
590,723.854516555297
591,723.7750739092726
592,723.6950942612258
593,723.6147820955022
594,723.5343522129268
595,723.4540289276613
596,723.3740452103624
597,723.294641779847
598,723.2160661445821
599,723.1385715943171
600,723.0624161417527
601,722.98786141489
602,722.9151715022464
603,722.8446117544698
604,722.7764475464935
605,722.7109430045615
606,722.648359702753
607,722.5889553342615
608,722.5329823636986
609,722.4806866680951
610,722.4323061757549
611,722.3880695131518
612,722.3481946703614
613,722.3128876953662
614,722.282341427476
615,722.2567342802236
616,722.2362290841626
617,722.2209719997076
618,722.2110915093801
619,722.2066974978079
620,722.2078804269497
621,722.2147106134241
622,722.2272376141885
623,722.2454897258169
624,722.2694736012565
625,722.2991739867407
626,722.3345535811301
627,722.3755530201231
628,722.4220909874259
629,722.4740644534813
630,722.5313490403141
631,722.5937995094836
632,722.6612503694895
633,722.7335165990569
634,722.8103944830262
635,722.891662557363
636,722.9770826584339
637,723.0664010695319
638,723.1593497557318
639,723.2556476769362
640,723.3550021679546
641,723.457110373395
642,723.5616607244646
643,723.6683344448388
644,723.7768070734504
645,723.8867499930449
646,723.9978319543773
647,724.1097205867527
648,724.2220838863715
649,724.3345916749967
650,724.4469170227392
651,724.5587376295372
652,724.6697371597917
653,724.7796065242189
654,724.8880451030348
655,724.9947619050193
656,725.099476657345
657,725.201920821197
658,725.3018385284474
659,725.3989874351659
660,725.4931394886415
661,725.5840816058449
662,725.6716162628342
663,725.7555619965455
664,725.8357538224536
665,725.9120435730515
666,725.9843001623323
667,726.0524097809384
668,726.1162760265755
669,726.1758199751324
670,726.2309801987972
671,726.2817127373671
672,726.3279910282001
673,726.3698057996357
674,726.4071649321899
675,726.4400932906452
676,726.4686325280487
677,726.4928408601623
678,726.5127928069957
679,726.5285788972698
680,726.540305331976
681,726.5480936039526
682,726.5520800708489
683,726.5524154788571
684,726.5492644348358
685,726.542804825568
686,726.5332271846311
687,726.5207340088562
688,726.505539027247
689,726.4878664257922
690,726.4679500321515
691,726.4460324645245
692,726.4223642488892
693,726.3972029083299
694,726.3708120275787
695,726.3434602952501
696,726.3154205256873
697,726.2869686621714
698,726.2583827635649
699,726.2299419769171
700,726.2019254986308
701,726.1746115263188
702,726.1482762027912
703,726.1231925531381
704,726.0996294157144
705,726.0778503678963
706,726.0581126477726
707,726.0406660734379
708,726.0257519621691
709,726.0136020523478
710,726.0044374314068
711,725.9984674733319
712,725.9958887896858
713,725.9968841991764
714,726.0016217222465
715,726.0102536082734
716,726.0229154033859
717,726.0397250671415
718,726.0607821470396
719,726.0861670210113
720,726.1159402188824
721,726.150141833718
722,726.1887910329528
723,726.231885677766
724,726.2794020575063
725,726.3312947440918
726,726.3874965691834
727,726.4479187247922
728,726.5124509859986
729,726.5809620529399
730,726.6533000083987
731,726.7292928871201
732,726.8087493530089
733,726.8914594803427
734,726.977195634883
735,727.0657134500557
736,727.1567528923059
737,727.2500394088358
738,727.345285150397
739,727.4421902609861
740,727.5404442246015
741,727.6397272570188
742,727.7397117286572
743,727.8400636033348
744,727.9404438768593
745,728.0405099989819
746,728.1399172625484
747,728.2383201450226
748,728.3353735898429
749,728.4307342178028
750,728.5240614611894
751,728.6150186155015
752,728.7032738054919
753,728.78850086444
754,728.8703801279297
755,728.948599145607
756,729.0228533161089
757,729.0928464515022
758,729.1582912783235
759,729.2189098827714
760,729.2744341075567
761,729.3246059073791
762,729.3691776696174
763,729.4079125071727
764,729.4405845312277
765,729.4669791123307
766,729.4868931383202
767,729.5001352770578
768,729.5065262507858
769,729.5058991275268
770,729.4980996336443
771,729.4829864906217
772,729.4604317782885
773,729.4303213259774
774,729.3925551320782
775,729.3470478109155
776,729.2937290641175
777,729.2325441722144
778,729.1634545013555
779,729.0864380196819
780,729.0014898176837
781,728.9086226264615
782,728.8078673270949
783,728.6992734436283
784,728.5829096118753
785,728.458864016507
786,728.3272447894345
787,728.1881803627736
788,728.041819769315
789,727.8883328824058
790,727.7279105858181
791,727.5607648631757
792,727.3871287964771
793,727.2072564642544
794,727.0214227313962
795,726.8299229241909
796,726.6330723856483
797,726.4312059075766
798,726.2246770370864
799,726.0138572562618
800,725.799135034908
801,725.5809147575932
802,725.3596155276152
803,725.1356698524211
804,724.9095222176647
805,724.6816275600896
806,724.4524496518169
807,724.222459409767
808,723.9921331438617
809,723.7619507568121
810,723.5323939071072
811,723.3039441452321
812,723.0770810309322
813,722.8522802368041
814,722.6300116417132
815,722.4107374175302
816,722.1949101143198
817,721.9829707511052
818,721.7753469204749
819,721.572450915637
820,721.3746778889149
821,721.1824040513093
822,720.9959849229016
823,720.8157536430947
824,720.6420193484028
825,720.4750656244483
826,720.3151490385022
827,720.1624977596346
828,720.0173102751304
829,719.8797542133976
830,719.7499652843634
831,719.6280463483524
832,719.5140666243145
833,719.4080610484942
834,719.3100297950378
835,719.219937970062
836,719.1377154900657
837,719.0632571543455
838,718.9964229194535
839,718.9370383818699
840,718.8848954731017
841,718.8397533693362
842,718.8013396152329
843,718.7693514582228
844,718.7434573861449
845,718.723298857749
846,718.7084922128192
847,718.6986307462549
848,718.6932869281801
849,718.6920147503001
850,718.6943521778852
851,718.6998236873104
852,718.7079428706081
853,718.7182150898816
854,718.7301401646259
855,718.743215073867
856,718.7569366535213
857,718.7708042687458
858,718.7843224416788
859,718.7970034161302
860,718.8083696417375
861,718.8179561610336
862,718.825312884214
863,718.8300067378765
864,718.831623675003
865,718.8297705339259
866,718.8240767347085
867,718.8141958028797
868,718.7998067128242
869,718.7806150461718
870,718.7563539640278
871,718.7267849952768
872,718.6916986456735
873,718.6509148335504
874,718.6042831577873
875,718.5516830025934
876,718.4930234822672
877,718.4282432281645
878,718.3573100201921
879,718.2802202663981
880,718.1969983365558
881,718.1076957587121
882,718.0123902907538
883,717.9111848811684
884,717.8042065340651
885,717.6916050935744
886,717.5735519623526
887,717.4502387681513
888,717.3218759911814
889,717.1886915632315
890,717.0509294475319
891,716.9088482068672
892,716.7627195667761
893,716.6128269804309
894,716.4594642013341
895,716.3029338690334
896,716.1435461118614
897,715.9816171696423
898,715.8174680387294
899,715.6514231418561
900,715.4838090261387
901,715.314953093903
902,715.1451823722945
903,714.974822328425
904,714.8041957370331
905,714.6336216076014
906,714.4634141777511
907,714.2938819793208
908,714.1253269825963
909,713.9580438228514
910,713.7923191121876
911,713.6284308389116
912,713.4666478561318
913,713.3072294603917
914,713.1504250596438
915,712.9964739278706
916,712.8456050418832
