acceleration,velocity,displacement
0.0038958245240658155,0.0,0.0
0.0037986903841429245,1.923628727052185e-06,4.809071817630462e-10
0.0037004409316990735,3.7984115560126842e-06,1.9114172525292635e-09
0.0035999709255094808,5.6235145203148224e-06,4.26689877161114e-09
0.0034961951306868915,7.3975560343639155e-06,7.522166410280824e-09
0.003388057986535926,9.11861931366962e-06,1.1651210247289208e-08
0.0032745428870261575,1.078426953206014e-05,1.662693245872165e-08
0.0031546809716765938,1.2391575496735828e-05,2.2420893715920643e-08
0.0030275593497291276,1.3937135577087259e-05,2.9003071484376414e-08
0.0028923287046850026,1.541710759069079e-05,3.6341632276320925e-08
0.002748210241442782,1.6827242327222734e-05,4.440271975579931e-08
0.002594501947200395,1.8162920374383528e-05,5.3150260431200875e-08
0.002430584149608785,1.9419191898585823e-05,6.254578849944322e-08
0.0022559243729838186,2.0590819029233975e-05,7.254829123139817e-08
0.0020700815064484076,2.167232049909203e-05,8.311407611347967e-08
0.0018727093008566204,2.2658018200918287e-05,9.419666078848225e-08
0.0016635592101469988,2.3542085328669192e-05,1.0574668667087912e-07
0.0014424825948390287,2.4318595779915697e-05,1.1771185694802534e-07
0.0012094323097670285,2.498157450606721e-05,1.3003689951952106e-07
0.0009644636995045167,2.5525048508385097e-05,1.4266355527313412e-07
0.0007077350215389463,2.5943098188645964e-05,1.555305919473919e-07
0.0004395073125108615,2.6229908772158416e-05,1.68573843687593e-07
0.00016014371036067598,2.63798215278763e-05,1.8172627626260167e-07
-0.000129891755765461,2.6387384516525106e-05,1.9491807777370204e-07
-0.0004300358986274222,2.6247402602926886e-05,2.0807677455356503e-07
-0.0007396286242731094,2.5954986472201752e-05,2.211273718223472e-07
-0.0010579157023955677,2.550560039053458e-05,2.3399251853803127e-07
-0.0013840520647465996,2.489510844874904e-05,2.465926957478522e-07
-0.001717105655036814,2.4119819018803187e-05,2.588464276147402e-07
-0.0020560618743872255,2.3176527136447177e-05,2.706705141535528e-07
-0.002399828688496402,2.206255449572627e-05,2.819802845615962e-07
-0.0027472424753576144,2.0775786704762766e-05,2.9268986986171844e-07
-0.0030970746839067897,1.9314707414946664e-05,3.027124933916458e-07
-0.0034480393441266707,1.76784289079383e-05,3.1196077747236704e-07
-0.0037988014328810605,1.5866718713686367e-05,3.203470643777732e-07
-0.004147986072383903,1.3880021837370126e-05,3.277837495155374e-07
-0.004494188518675559,1.171947818960526e-05,3.341836245222812e-07
-0.004835984871789155,9.386934841989082e-06,3.394602277801798e-07
-0.005171943399458526,6.884952774177162e-06,3.4352819968422134e-07
-0.005500636320237006,4.216807844253279e-06,3.4630363983882895e-07
-0.005820651855667928,1.3864858002770458e-06,3.4770446324996155e-07
-0.006130606343848611,-1.6013287496020886e-06,3.476507525126303e-07
-0.006429156205645351,-4.741269386975579e-06,3.460651029784859e-07
-0.006715009564009344,-8.027310829389252e-06,3.4287295792439467e-07
-0.006986937335506048,-1.14527975542681e-05,3.3800293082848035e-07
-0.007243783640531794,-1.501047779827756e-05,3.3138711199034394e-07
-0.007484475407360862,-1.8692542560250725e-05,3.229613569007119e-07
-0.007708031067919029,-2.2490669179070697e-05,3.1266555396588154e-07
-0.007913568261254467,-2.639606901136407e-05,3.004438694182728e-07
-0.008100310479282344,-3.0399538696498272e-05,2.8624496749130724e-07
-0.008267592607971016,-3.449151446831161e-05,2.700222042001048e-07
-0.008414865331219414,-3.866212895310922e-05,2.517337933447496e-07
-0.008541698374763786,-4.290126987960502e-05,2.3134294363657103e-07
-0.00864778258081648,-4.719864011850009e-05,2.0881796613704476e-07
-0.00873293082539002,-5.1543818470051714e-05,1.841323514899068e-07
-0.008797077814516377,-5.592632063002831e-05,1.572648167148868e-07
-0.008840278815367461,-6.033565978749927e-05,1.281993216105049e-07
-0.008862707392992357,-6.476140633958923e-05,9.692505507873276e-08
-0.008864652239072509,-6.919324624760545e-05,6.343639193193409e-08
-0.00884651319974368,-7.36210376073095e-05,2.7732820968205354e-08
-0.008808796629007222,-7.803486506449723e-05,-1.0181154699746325e-08
-0.008752110199475633,-8.242509177161794e-05,-5.0296143908775116e-08
-0.008677157288707972,-8.678240864366384e-05,-9.259801901259557e-08
-0.008584731039549775,-9.109788072572828e-05,-1.370680913549436e-07
-0.008475708183034922,-9.536299053137445e-05,-1.836833091692193e-07
-0.008351042715632041,-9.95696782560412e-05,-2.324164763660732e-07
-0.008211759529566237,-0.00010371037881734077,-2.832364906344187e-07
-0.008058948096265756,-0.00010777805572379877,-3.3610859926970356e-07
-0.007893756295166464,-0.00011176623182165683,-3.9099467115606745e-07
-0.007717384462129347,-0.00011566901701098078,-4.478534833642268e-07
-0.0075310797044589,-0.00011948113305262784,-5.066410208801289e-07
-0.007336130497905894,-0.00012319793560321902,-5.673107880440906e-07
-0.00713386155155119,-0.00012681543361558328,-6.298141303487912e-07
-0.00692562890243739,-0.00013033030622908043,-6.941005653099572e-07
-0.006712815183129479,-0.00013373991725047215,-7.601181211798453e-07
-0.006496824991979413,-0.00013704232729424938,-8.278136823160257e-07
-0.006279080288609784,-0.0001402363036143967,-8.971333400431872e-07
-0.006061015738126473,-0.00014332132762108076,-9.680227478520566e-07
-0.00584407393915795,-0.00014629760004040187,-1.0404274797674272e-06
-0.005629700491324498,-0.00014916604364802248,-1.1142933906895333e-06
-0.005419338880194246,-0.00015192830349090215,-1.1895669774742645e-06
-0.005214425176983718,-0.00015458674450519666,-1.2661957394732891e-06
-0.005016382567334469,-0.0001571444464412762,-1.3441285372099073e-06
-0.004826615739380555,-0.00015960519601795496,-1.423315947824715e-06
-0.004646505172253826,-0.00016197347624586356,-1.5037106158906697e-06
-0.004477401369227888,-0.000164254452881234,-1.5852675981724441e-06
-0.004320619077147427,-0.00016645395799282783,-1.6679447008909595e-06
-0.004177431530880733,-0.00016857847064483488,-1.7517028080503753e-06
-0.004049064762224188,-0.0001706350947181111,-1.8365061993911118e-06
-0.003936692015523939,-0.00017263153391254815,-1.9223228565487767e-06
-0.0038414283115411323,-0.00017457606399431442,-2.0091247560254923e-06
-0.0037643251940570536,-0.00017647750237071396,-2.0968881476167493e-06
-0.003706365684238287,-0.00017834517509028778,-2.185593816982e-06
-0.0036684594628479793,-0.00018018888137705935,-2.275227331098837e-06
-0.0036514383035712136,-0.00018201885581866416,-2.365779265397768e-06
-0.003656051789422899,-0.0001838457283419127,-2.4572454114379123e-06
-0.0036829633530257875,-0.00018568048212752486,-2.5496269640552715e-06
-0.00373274668835728,-0.00018753440963787063,-2.6429306869966205e-06
-0.0038058825878549397,-0.0001894190669569237,-2.737169056145319e-06
-0.0039027562635596635,-0.00019134622666977736,-2.832360379551994e-06
-0.004023655211456659,-0.00019332782953853143,-2.9285288936040714e-06
-0.004168767674398708,-0.00019537593525999526,-3.025704834803703e-06
-0.004338181752654009,-0.00019750267261675844,-3.1239244867728913e-06
-0.004531885203472362,-0.00019972018935579005,-3.2232302022660285e-06
-0.004749765962191802,-0.00020204060214720608,-3.3236704001417775e-06
-0.0049916134038335645,-0.0002044759469887124,-3.4252995374257573e-06
-0.00525712033931204,-0.0002070381304244988,-3.5281780567790602e-06
-0.005545885704836701,-0.000209738881935536,-3.632372309869069e-06
-0.005857417867901767,-0.0002125897078287206,-3.737954457310133e-06
-0.006191138451219147,-0.00021560184690850085,-3.845002345994439e-06
-0.006546386569040411,-0.00021878622816356573,-3.953599364762455e-06
-0.006922423371592191,-0.00022215343064872387,-4.063834279465528e-06
-0.007318436798443771,-0.00022571364569123287,-4.1758010485505175e-06
-0.0077335464521029,-0.00022947664150386955,-4.289598620349293e-06
-0.008166808517356336,-0.00023345173024623436,-4.405330713286819e-06
-0.008617220661517565,-0.00023764773754095283,-4.523105580233615e-06
-0.009083726851476752,-0.0002420729744192014,-4.643035758223654e-06
-0.00956522202282792,-0.0002467352116377776,-4.765237804737899e-06
-0.010060556544923892,-0.00025164165627971556,-4.889832021717272e-06
-0.010568540444998243,-0.00025679893052719607,-5.016942168419e-06
-0.011087947375676163,-0.00026221305248236466,-5.14669516417139e-06
-0.011617518324097497,-0.0002678894189073081,-5.279220782018809e-06
-0.012155965067693876,-0.00027383278975525593,-5.41465133418445e-06
-0.012701973389748497,-0.0002800472743696165,-5.553121350215668e-06
-0.01325420608153236,-0.0002865363192374367,-5.694767248617432e-06
-0.013811305772632822,-0.000293302697200978,-5.839727002727035e-06
-0.014371897641417929,-0.0003003484980544907,-5.988139801540903e-06
-0.014934592063032251,-0.00030767512048060323,-6.140145706174676e-06
-0.015497987254499237,-0.0003152832653099861,-6.295885302622324e-06
-0.01606067197232848,-0.000323172930116693,-6.455499351478994e-06
-0.016621228304001555,-0.0003313434051857755,-6.619128435304611e-06
-0.017178234574799917,-0.00033979327090547586,-6.786912604327424e-06
-0.017730268376872204,-0.0003485203966433939,-6.958991021214641e-06
-0.018275909725252906,-0.0003575219411689252,-7.135501605667721e-06
-0.0188137443517106,-0.0003667943546881661,-7.316580679631994e-06
-0.01934236715329298,-0.00037633338256441696,-7.502362613945139e-06
-0.019860385815164312,-0.00038613407080653127,-7.692979477287877e-06
-0.020366424628137588,-0.00039619077341735673,-7.888560688343849e-06
-0.020859128519116622,-0.00040649716170417026,-8.08923267212423e-06
-0.021337167305844562,-0.00041704623566041053,-8.295118521465375e-06
-0.021799240177660023,-0.0004278303375312867,-8.5063376647633e-06
-0.022244080393828785,-0.0004388411676741589,-8.723005541064661e-06
-0.022670460180660535,-0.0004500698028177812,-8.945233283687647e-06
-0.023077195798284777,-0.00046150671681251753,-9.173127413595222e-06
-0.0234631527396977,-0.00047314180394701313,-9.406789543785104e-06
-0.023827251020212686,-0.00048496440488699074,-9.646316095993605e-06
-0.024168470513656563,-0.0004969633352704581,-9.891798031032967e-06
-0.02448585628892985,-0.0005091269169711047,-1.0143320594093357e-05
-0.024778523895400882,-0.0005214430120171874,-1.040096307634043e-05
-0.025045664543243876,-0.0005338990591268486,-1.0664798594126439e-05
-0.025286550130414354,-0.0005464821127952632,-1.0934893887106967e-05
-0.02550053807465994,-0.0005591788848465318,-1.1211309136517417e-05
-0.02568707590437605,-0.0005719757883412908,-1.1494097804814373e-05
-0.02584570554863734,-0.0005848589837045441,-1.1783306497825831e-05
-0.025976067261595095,-0.0005978144269071022,-1.2078974850478743e-05
-0.02607790312848584,-0.0006108279195046225,-1.2381135437081674e-05
-0.02615106011823037,-0.0006238851603163016,-1.2689813707036904e-05
-0.02619549265426088,-0.0006369717985094244,-1.3005027946743335e-05
-0.026211264667950786,-0.0006500734878399773,-1.3326789268330686e-05
-0.0261985510884846,-0.0006631759417790861,-1.3655101625735451e-05
-0.026157638718910053,-0.0006762649892309348,-1.3989961858487956e-05
-0.026088926451869048,-0.0006893266305236296,-1.4331359763426598e-05
-0.02599292478884518,-0.0007023470933338081,-1.4679278194390958e-05
-0.0258702546439817,-0.0007153128881920148,-1.5033693189772413e-05
-0.025721645436105074,-0.0007282108632120365,-1.5394574127623425e-05
-0.025547932493369816,-0.0007410282576944052,-1.5761883907850037e-05
-0.02535005380454111,-0.0007537527542688829,-1.6135579160840858e-05
-0.02512904614540264,-0.0007663725292563688,-1.651561048172217e-05
-0.024886040594870998,-0.0007788763009414372,-1.6901922689271623e-05
-0.024622257445869496,-0.0007912533754516223,-1.729445510836989e-05
-0.024339000517360564,-0.0008034936899424298,-1.7693141874718403e-05
-0.024037650879926466,-0.0008155878527917515,-1.8097912260401948e-05
-0.023719660008426447,-0.0008275271805138398,-1.8508691018728346e-05
-0.023386542371015142,-0.0008393037311087002,-1.892539874663398e-05
-0.02303986746263209,-0.0008509103335671119,-1.9347952262802933e-05
-0.02268125129866809,-0.000862340613257437,-1.977626499950907e-05
-0.022312347397982088,-0.0008735890129315995,-2.021024740605633e-05
-0.02193483729820472,-0.0008846508091056463,-2.0649807361565642e-05
-0.02155042066117764,-0.0008955221235954919,-2.1094850594740925e-05
-0.02116080504638527,-0.0009061999300223826,-2.1545281108145392e-05
-0.020767695451447528,-0.0009166820551468408,-2.2001001604437698e-05
-0.020372783731027144,-0.0009269671749424595,-2.2461913911960023e-05
-0.019977738007162935,-0.000937054805377007,-2.292791940703989e-05
-0.01958419218575737,-0.0009469452879252371,-2.3398919430365452e-05
-0.01919373570315432,-0.000956639769897465,-2.3874815694821128e-05
-0.01880790363788662,-0.0009661401797327252,-2.4355510682228676e-05
-0.018428167325873417,-0.0009754491974736652,-2.4840908026530275e-05
-0.018055925610566976,-0.0009845702207077753,-2.5330912881075633e-05
-0.017692496846741016,-0.0009935073263221024,-2.58254322678331e-05
-0.017339111760268262,-0.0010022652284738546,-2.632437540653209e-05
-0.016996907247390336,-0.0010108492332257693,-2.6827654021956996e-05
-0.01666692117795667,-0.001019265190332106,-2.7335182627846465e-05
-0.01635008825073702,-0.0010275194426892795,-2.784687878610181e-05
-0.016047236934469432,-0.0010356187739855812,-2.8362663340270527e-05
-0.01575908751199524,-0.0010435703550971975,-2.888246062254122e-05
-0.015486251224047764,-0.0010513816897812082,-2.9406198633760823e-05
-0.015229230484329262,-0.0010590605602083024,-2.99338091962582e-05
-0.014988420108605351,-0.001066614972856536,-3.046522807952441e-05
-0.014764109469424464,-0.0010740531052510435,-3.10003950990513e-05
-0.014556485462781436,-0.001081383253984095,-3.153925418886009e-05
-0.014365636164535138,-0.0010886137843909242,-3.208175344845384e-05
-0.014191555066702687,-0.0010957530821987336,-3.262784516510126e-05
-0.014034145809497795,-0.0011028095074177837,-3.317748581250539e-05
-0.013893227350556174,-0.0011097913507077972,-3.373063602703678e-05
-0.01376853952734453,-0.0011167067924272723,-3.4287260562820546e-05
-0.013659748970440208,-0.0011235638645517186,-3.484732822706529e-05
-0.013566455318409314,-0.001130370415623931,-3.5410811797109205e-05
-0.013488197674217838,-0.0011371340788720878,-3.597768792073321e-05
-0.013424461232380063,-0.0011438622435987374,-3.654793700135091e-05
-0.013374683997321925,-0.0011505620299061628,-3.712154306972714e-05
-0.0133382635053396,-0.001157240266781828,-3.769849364389914e-05
-0.013314563452352516,-0.001163903473521251,-3.827877957897491e-05
-0.013302920119643184,-0.00117055784441425,-3.886239490845879e-05
-0.013302648488320213,-0.0011772092365662408,-3.9449336678703906e-05
-0.013313047945829685,-0.0011838631606747782,-4.003960477801416e-05
-0.013333407511785005,-0.0011905247745391818,-4.063320176181765e-05
-0.013363010541255736,-0.001197198879052442,-4.123013267521556e-05
-0.01340113889851773,-0.0012038899164123853,-4.183040487408176e-05
-0.013447076626053302,-0.001210601970293528,-4.243402784575824e-05
-0.013500113156455612,-0.0012173387677391551,-4.304101303026641e-05
-0.01355954613320388,-0.00122410368256157,-4.3651373642841594e-05
-0.013624683925675705,-0.0012308997400762899,-4.426512449850106e-05
-0.013694847937304746,-0.001237729623042035,-4.488228183928064e-05
-0.01376937480121427,-0.0012445956787266647,-4.5502863164722816e-05
-0.013847618534054378,-0.0012514999270604819,-4.61268870661696e-05
-0.01392895268681005,-0.001258444069865698,-4.675437306540115e-05
-0.014012772502862883,-0.0012654295011631162,-4.738534145815835e-05
-0.014098497075110464,-0.0012724573185576096,-4.8019813163088536e-05
-0.014185571484850454,-0.0012795283356975998,-4.865780957665234e-05
-0.014273468899149062,-0.0012866430957935997,-4.929935243452514e-05
-0.014361692594600593,-0.0012938018861670371,-4.99444636800153e-05
-0.01444977786365814,-0.0013010047537816017,-5.0593165340002453e-05
-0.014537293752185786,-0.0013082515216855627,-5.1245479408869246e-05
-0.014623844582720459,-0.0013155418062692893,-5.190142774085796e-05
-0.014709071236054272,-0.001322875035223983,-5.256103195123128e-05
-0.014792652182592717,-0.001330250466078645,-5.322431332655694e-05
-0.014874304267321432,-0.0013376672051911235,-5.389129274437438e-05
-0.014953783260647932,-0.0013451242270731158,-5.456199060244044e-05
-0.015030884194764829,-0.0013526203939369689,-5.5236426757692957e-05
-0.015105441511658954,-0.0013601544753635748,-5.591462047501809e-05
-0.015177329055328634,-0.0013677251680053217,-5.6596590385860315e-05
-0.015246459945942845,-0.0013753311152556395,-5.728235445667556e-05
-0.015312786373328972,-0.0013829709268354574,-5.797192996719833e-05
-0.015376299339581307,-0.001390643198263685,-5.8665333498473115e-05
-0.015437028366449865,-0.0013983465301901927,-5.9362580930586586e-05
-0.01549504116240428,-0.0014060795475724062,-6.006368745002723e-05
-0.015550443218465522,-0.0014138409186676237,-6.076866756658724e-05
-0.015603377277928413,-0.0014216293737917222,-6.147753513970208e-05
-0.015654022610629034,-0.0014294437237638616,-6.219030341409097e-05
-0.015702594021180363,-0.001437282877921814,-6.290698506451239e-05
-0.015749340532611355,-0.001445145861560262,-6.362759224938291e-05
-0.015794543707430435,-0.0014530318326202725,-6.435213667292804e-05
-0.01583851558727974,-0.00146094009744395,-6.50806296554441e-05
-0.015881596240961957,-0.0014688701254010105,-6.581308221115534e-05
-0.015924150910287024,-0.0014768215621888227,-6.65495051330528e-05
-0.01596656674396776,-0.0014847942416023865,-6.72899090840006e-05
-0.016009249117866418,-0.001492788195567845,-6.803430469329316e-05
-0.01605261755109141,-0.0015008036622350845,-6.878270265774389e-05
-0.01609710123418377,-0.0015088410919314032,-6.953511384628551e-05
-0.01614313418641473,-0.0015169011507865527,-7.0291549406965e-05
-0.016191150059413333,-0.0015249847218480098,-7.105202087512363e-05
-0.01624157660953754,-0.0015330929035152474,-7.181654028146444e-05
-0.01629482987112079,-0.0015412270051354121,-7.258512025862711e-05
-0.01635130807146489,-0.0015493885396210586,-7.335777414481623e-05
-0.016411385333641698,-0.0015575792129723352,-7.413451608296458e-05
-0.01647540521956995,-0.0015658009106106381,-7.491536111386031e-05
-0.01654367418058617,-0.0015740556804606772,-7.570032526162815e-05
-0.016616455004286174,-0.0015823457127568951,-7.648942560993254e-05
-0.01669396036353535,-0.0015906733165988506,-7.728268036727148e-05
-0.01677634657860013,-0.0015990408933343845,-7.808010891975479e-05
-0.016863707702107027,-0.0016074509069045613,-7.888173186981453e-05
-0.01695607003861909,-0.0016159058513397428,-7.96875710593756e-05
-0.017053387216089032,-0.0016244082156534197,-8.04976495761239e-05
-0.017155535928302094,-0.0016329604464395174,-8.131199174164713e-05
-0.01726231246146053,-0.001641564908536958,-8.213062308039125e-05
-0.017373430104016888,-0.0016502238441783274,-8.295357026857007e-05
-0.01748851751573253,-0.0016589393310832649,-8.378086106238547e-05
-0.01760711809925388,-0.0016677132399870115,-8.461252420515304e-05
-0.0177286903810929,-0.0016765471921070983,-8.544858931317656e-05
-0.01785260938031708,-0.0016854425170474507,-8.628908674046519e-05
-0.017978168931401167,-0.0016944002116253804,-8.71340474226334e-05
-0.018104584932497222,-0.001703420900091355,-8.798350270056259e-05
-0.018230999502922153,-0.0017125047962002098,-8.883748412463548e-05
-0.018356486041752974,-0.0017216516675863786,-8.969602324058214e-05
-0.01848005517549172,-0.0017308608028906898,-9.05591513582014e-05
-0.018600661567589778,-0.0017401309820764602,-9.142689930444319e-05
-0.018717211541504967,-0.001749460450353734,-9.229929716255073e-05
-0.018828571446913637,-0.0017588468961008386,-9.317637399916438e-05
-0.018933576679431487,-0.0017682874331324248,-9.405815758147269e-05
-0.019031041250014674,-0.0017777785876147863,-9.494467408665949e-05
-0.0191197677928559,-0.001787316289875504,-9.583594780603206e-05
-0.019198557901654305,-0.0017968958712991315,-9.673200084632572e-05
-0.01926622269133775,-0.0018065120664473796,-9.763285283076234e-05
-0.019321593486705577,-0.0018161590204918904,-9.853852060249716e-05
