frame_number,force
0,723.3807369825968
1,723.3734805324914
2,723.3661425629249
3,723.3586422908726
4,723.350900396249
5,723.3428397289323
6,723.334385987544
7,723.3254683625266
8,723.3160201378845
9,723.3059792477122
10,723.295288784739
11,723.2838974587653
12,723.2717600037672
13,723.2588375337036
14,723.245097848011
15,723.2305156879916
16,723.2150729452138
17,723.1987588231982
18,723.1815699539803
19,723.1635104712462
20,723.14459204149
21,723.1248338543013
22,723.1042625727155
23,723.0829122444877
24,723.0608241749655
25,723.0380467619109
26,723.0146352922296
27,722.9906516999607
28,722.9661642838377
29,722.941247381237
30,722.915980993725
31,722.890450358498
32,722.8647454606241
33,722.8389604831689
34,722.813193194919
35,722.7875442774124
36,722.7621165943998
37,722.737014408732
38,722.7123425545616
39,722.6882055760902
40,722.6647068467231
41,722.6419476837498
42,722.620026473752
43,722.5990378232678
44,722.5790717478873
45,722.5602129109644
46,722.5425399210482
47,722.52612469548
48,722.5110318962921
49,722.4973184431867
50,722.4850331070244
51,722.4742161862255
52,722.4648992677528
53,722.4571050733718
54,722.4508473903383
55,722.446131083898
56,722.4429521875448
57,722.4412980659099
58,722.4411476440148
59,722.442471695118
60,722.4452331779672
61,722.4493876138874
62,722.4548834951144
63,722.4616627172209
64,722.4696610291966
65,722.4788084945067
66,722.4890299559474
67,722.5002454970193
68,722.5123708931013
69,722.5253180470208
70,722.538995405585
71,722.5533083559397
72,722.5681596027621
73,722.5834495290321
74,722.599076544493
75,722.6149374268765
76,722.6309276615
77,722.6469417847645
78,722.6628737362456
79,722.6786172225741
80,722.6940660946747
81,722.7091147385348
82,722.7236584784337
83,722.7375939904086
84,722.7508197229437
85,722.7632363216393
86,722.7747470548123
87,722.7852582371856
88,722.7946796487762
89,722.8029249458867
90,722.8099120611587
91,722.8155635901579
92,722.8198071626533
93,722.8225757971072
94,722.8238082366688
95,722.8234492643271
96,722.8214499942459
97,722.817768135805
98,722.8123682264182
99,722.8052218288531
100,722.7963076887415
101,722.7856118482512
102,722.7731277123419
103,722.7588560645979
104,722.7428050302651
105,722.7249899851159
106,722.7054334105662
107,722.6841646980538
108,722.661219908245
109,722.6366414922416
110,722.6104779824597
111,722.582783660765
112,722.553618211076
113,722.5230463628898
114,722.491137531152
115,722.4579654571953
116,722.4236078554144
117,722.3881460703961
118,722.351664748598
119,722.3142515272701
120,722.2759967417778
121,722.2369931514708
122,722.1973356837528
123,722.1571211954174
124,722.116448249323
125,722.0754169034058
126,722.0341285082795
127,721.9926855092712
128,721.9511912485895
129,721.9097497636241
130,721.8684655783909
131,721.8274434865881
132,721.7867883257859
133,721.7466047424311
134,721.7069969468972
135,721.6680684573805
136,721.6299218312398
137,721.5926583823197
138,721.5563778829564
139,721.5211782498599
140,721.4871552137693
141,721.4544019735149
142,721.4230088358707
143,721.3930628433327
144,721.3646473925567
145,721.337841846514
146,721.3127211435532
147,721.2893554067498
148,721.2678095573042
149,721.2481429359113
150,721.2304089356235
151,721.2146546492376
152,721.2009205345703
153,721.1892401019609
154,721.1796396287145
155,721.1721379043212
156,721.1667460089947
157,721.1634671275921
158,721.1622964014972
159,721.1632208218178
160,721.1662191675415
161,721.1712619920194
162,721.1783116603965
163,721.1873224393512
164,721.1982406388665
165,721.2110048042446
166,721.2255459558743
167,721.2417878746658
168,721.2596474320712
169,721.2790349643042
170,721.2998546902701
171,721.3220051722836
172,721.3453798185654
173,721.3698674268185
174,721.3953527682685
175,721.4217172110007
176,721.4488393804462
177,721.4765958538715
178,721.5048618846389
179,721.5335121505568
180,721.5624215190918
181,721.5914658213284
182,721.6205226264373
183,721.6494720082928
184,721.6781972952095
185,721.7065857929606
186,721.73452947101
187,721.7619256023817
188,721.7886773485244
189,721.8146942817173
190,721.8398928389335
191,721.8641967024627
192,721.8875371037848
193,721.9098530482379
194,721.9310914592112
195,721.9512072421054
196,721.970163270118
197,721.9879302960102
198,722.004486796278
199,722.0198187559878
200,722.0339194031573
201,722.0467889006711
202,722.0584340018513
203,722.0688676739458
204,722.0781086927439
205,722.0861812114058
206,722.0931143071011
207,722.0989415098351
208,722.1037003186251
209,722.1074317108245
210,722.1101796509781
211,722.1119906063376
212,722.1129130768891
213,722.1129971478562
214,722.1122940717245
215,722.1108558850954
216,722.1087350634334
217,722.1059842142412
218,722.102655806883
219,722.0988019356204
220,722.0944741110891
221,722.0897230740396
222,722.0845986241758
223,722.0791494572615
224,722.0734230053755
225,722.06746527752
226,722.0613206998516
227,722.05503195615
228,722.0486398297945
229,722.0421830489582
230,722.0356981373596
231,722.0292192737711
232,722.0227781640224
233,722.0164039288161
234,722.0101230093493
235,722.0039590913688
236,721.9979330473849
237,721.9920628961522
238,721.9863637779907
239,721.9808479440463
240,721.9755247571222
241,721.9704007013329
242,721.9654793978567
243,721.9607616246152
244,721.9562453387292
245,721.9519257021115
246,721.9477951124268
247,721.9438432433927
248,721.9400570994426
249,721.93642108986
250,721.9329171266236
251,721.9295247486997
252,721.9262212741327
253,721.9229819806542
254,721.9197803155562
255,721.9165881355163
256,721.9133759764769
257,721.9101133528661
258,721.9067690849589
259,721.9033116531194
260,721.8997095776525
261,721.8959318226151
262,721.8919482212339
263,721.8877299199385
264,721.8832498376482
265,721.878483136481
266,721.8734076989856
267,721.8680046054341
268,721.8622586034664
269,721.8561585620159
270,721.849697901535
271,721.8428749923922
272,721.8356935129144
273,721.8281627584173
274,721.8202978930027
275,721.8121201369207
276,721.8036568839806
277,721.7949417458694
278,721.7860145228841
279,721.7769211026616
280,721.7677132893564
281,721.758448565365
282,721.7491897867905
283,721.740004813251
284,721.7309660729255
285,721.7221500648328
286,721.7136368018748
287,721.7055091997819
288,721.6978524184932
289,721.6907531635414
290,721.684298955544
291,721.678577375826
292,721.6736752956788
293,721.6696780964379
294,721.666668888174
295,721.6647277363011
296,721.6639309067808
297,721.6643501407247
298,721.6660519680638
299,721.6690970684907
300,721.673539686848
301,721.6794271094758
302,721.6867992071572
303,721.6956880489126
304,721.706117589092
305,721.7181034282883
306,721.7316526468315
307,721.7467637082206
308,721.7634264290741
309,721.7816220122579
310,721.801323140797
311,721.8224941316297
312,721.8450911495135
313,721.8690624819998
314,721.8943488763794
315,721.9208839390807
316,721.948594597316
317,721.977401621808
318,722.0072202080286
319,722.0379606113476
320,722.0695288290578
321,722.1018273200945
322,722.1347557519916
323,722.1682117642932
324,722.2020917380477
325,722.2362915618423
326,722.2707073856518
327,722.3052363545247
328,722.3397773151652
329,722.3742314898266
330,722.4085031130153
331,722.442500026768
332,722.4761342301099
333,722.5093223787586
334,722.5419862327731
335,722.5740530520656
336,722.6054559411963
337,722.6361341449784
338,722.6660332959661
339,722.6951056151129
340,722.7233100677932
341,722.7506124779511
342,722.7769856028708
343,722.8024091705188
344,722.8268698812599
345,722.850361376026
346,722.8728841731685
347,722.8944455757332
348,722.9150595496799
349,722.9347465720966
350,722.9535334472737
351,722.9714530877476
352,722.988544256971
353,723.0048512700536
354,723.020423649214
355,723.0353157312018
356,723.0495862247703
357,723.0632977171721
358,723.0765161299595
359,723.0893101265711
360,723.1017504771629
361,723.1139093892384
362,723.1258598152258
363,723.1376747499861
364,723.1494265323332
365,723.1611861651961
366,723.1730226693143
367,723.1850024851751
368,723.1971889366392
369,723.2096417669084
370,723.2224167535469
371,723.2355654052283
372,723.2491347397491
373,723.2631671409727
374,723.2777002914049
375,723.2927671766355
376,723.3083961575674
377,723.3246111058797
378,723.3414315972717
379,723.3588731560016
380,723.3769475436734
381,723.3956630854583
382,723.4150250277106
383,723.4350359217894
384,723.455696029482
385,723.4770037456249
386,723.4989560334068
387,723.5215488675702
388,723.5447776802771
389,723.5686378035765
390,723.5931249012405
391,723.6182353816182
392,723.6439667824653
393,723.6703181185803
394,723.6972901837374
395,723.7248858000128
396,723.7531100096838
397,723.7819702064504
398,723.8114762033553
399,723.8416402351913
400,723.8724768943675
401,723.9040030012985
402,723.93623741269
403,723.9692007729723
404,724.0029152154635
405,724.0374040207014
406,724.072691239766
407,724.108801290394
408,724.1457585334348
409,724.1835868369176
410,724.2223091348098
411,724.2619469875701
412,724.3025201519644
413,724.3440461682786
414,724.3865399736413
415,724.4300135501251
416,724.4744756153846
417,724.5199313619273
418,724.5663822488988
419,724.6138258476557
420,724.6622557398588
421,724.7116614651067
422,724.7620285145902
423,724.8133383672778
424,724.8655685648969
425,724.9186928213308
426,724.9726811615034
427,725.0275000846742
428,725.0831127471054
429,725.1394791589477
430,725.1965563899765
431,725.2542987789152
432,725.3126581417661
433,725.3715839757567
434,725.431023657143
435,725.4909226330764
436,725.5512246094403
437,725.6118717370837
438,725.6728047978928
439,725.733963390194
440,725.7952861109889
441,725.8567107311518
442,725.9181743592866
443,725.9796135905045
444,726.0409646377525
445,726.1021634450358
446,726.1631457835168
447,726.2238473327517
448,726.2842037500053
449,726.3441507303775
450,726.4036240594569
451,726.4625596591727
452,726.520893627318
453,726.5785622721245
454,726.6355021447763
455,726.6916500741244
456,726.746943208574
457,726.8013190698344
458,726.8547156218682
459,726.9070713563872
460,726.958325394567
461,727.0084176039815
462,727.057288729955
463,727.104880540852
464,727.1511359866516
465,727.1959993695691
466,727.2394165249536
467,727.28133501058
468,727.321704302732
469,727.3604759976713
470,727.3976040165747
471,727.4330448106434
472,727.4667575613204
473,727.4987043690758
474,727.5288504235375
475,727.5571641479528
476,727.5836173118322
477,727.6081851069976
478,727.6308461842355
479,727.6515826503131
480,727.6703800277005
481,727.687227181184
482,727.7021162161834
483,727.715042353139
484,727.7260037816732
485,727.7350014984436
486,727.7420391339175
487,727.7471227748744
488,727.7502607903326
489,727.7514636685164
490,727.7507438715008
491,727.7481157124297
492,727.7435952580845
493,727.7372002577561
494,727.7289500982214
495,727.7188657840466
496,727.7069699420574
497,727.6932868485707
498,727.677842478035
499,727.6606645721366
500,727.6417827289054
501,727.6212285115107
502,727.5990355759054
503,727.5752398152234
504,727.5498795173233
505,727.5229955306022
506,727.4946314322003
507,727.464833691789
508,727.4336518234976
509,727.4011385185709
510,727.3673497519358
511,727.3323448566505
512,727.2961865610542
513,727.2589409843133
514,727.2206775869307
515,727.1814690737394
516,727.1413912480375
517,727.1005228167206
518,727.0589451470863
519,727.0167419760821
520,726.9739990724304
521,726.9308038520296
522,726.8872449479112
523,726.8434117377889
524,726.7993938340968
525,726.7552805423467
526,726.7111602933045
527,726.6671200533017
528,726.623244715642
529,726.5796164753303
530,726.5363141897967
531,726.4934127297156
532,726.4509823257031
533,726.4090879182825
534,726.3677885202023
535,726.3271366019436
536,726.2871775125016
537,726.2479489477182
538,726.2094804775671
539,726.1717931423309
540,726.1348991259994
541,726.0988015134046
542,726.0634941352808
543,726.0289615025699
544,725.9951788282937
545,725.9621121327369
546,725.9297184260431
547,725.8979459617917
548,725.8667345553753
549,725.8360159614806
550,725.8057143054582
551,725.7757465638987
552,725.7460230904302
553,725.7164481835334
554,725.6869206938119
555,725.6573346684183
556,725.6275800300757
557,725.5975432874516
558,725.5671082731432
559,725.5361569059322
560,725.504569975201
561,725.4722279463563
562,725.4390117858009
563,725.4048038026315
564,725.3694885029446
565,725.3329534523589
566,725.2950901431341
567,725.255794863139
568,725.2149695638883
569,725.1725227238144
570,725.1283702015437
571,725.0824360727247
572,725.0346534429626
573,724.9849652287023
574,724.9333248978509
575,724.8796971627166
576,724.8240586190359
577,724.7663983258867
578,724.7067183218101
579,724.6450340723646
580,724.5813748439044
581,724.5157839982577
582,724.4483192036503
583,724.3790525584918
584,724.3080706261114
585,724.2354743799488
586,724.1613790600175
587,724.0859139425804
588,724.0092220256845
589,723.9314596333878
590,723.8527959415906
591,723.7734124289649
592,723.6935022575019
593,723.6132695878358
594,723.5329288342018
595,723.452703862933
596,723.3728271374627
597,723.2935388120474
598,723.2150857755624
599,723.1377206457308
600,723.0617007137381
601,722.9872868399232
602,722.9147423027591
603,722.8443316046669
604,722.776319238808
605,722.7109684211885
606,722.6485397927
607,722.5892900963472
608,722.5334708359051
609,722.4813269236363
610,722.4330953261588
611,722.3890037185722
612,722.3492691572486
613,722.3140967815402
614,722.2836785545609
615,722.2581920533077
616,722.2377993184599
617,722.2226457738994
618,722.2128592252336
619,722.2085489455934
620,722.2098048561157
621,722.2166968079268
622,722.2292739718181
623,722.2475643408178
624,722.2715743495088
625,722.3012886127502
626,722.3366697860607
627,722.3776585500779
628,722.4241737211604
629,722.4761124887261
630,722.533350777898
631,722.5957437344832
632,722.6631263286712
633,722.7353140739058
634,722.8121038576835
635,722.8932748808112
636,722.9785897003088
637,723.067795369003
638,723.160624662978
639,723.2567973868463
640,723.3560217457914
641,723.4579957722858
642,723.5624087947111
643,723.6689429351668
644,723.7772746244299
645,723.8870761230143
646,723.9980170382822
647,724.1097658283793
648,724.2219912845097
649,724.3343639841098
650,724.4465577087352
651,724.5582508212486
652,724.6691275967827
653,724.7788795015551
654,724.8872064136699
655,724.993817780466
656,725.0984337073054
657,725.2007859728407
658,725.3006189660293
659,725.3976905406803
660,725.4917727842014
661,725.5826526984524
662,725.6701327921664
663,725.7540315863097
664,725.8341840357757
665,725.9104418722492
666,725.9826738733137
667,726.0507660623674
668,726.114621843849
669,726.1741620791136
670,726.2293251091346
671,726.2800667301257
672,726.3263601274357
673,726.368195772469
674,726.405581286865
675,726.4385412770146
676,726.4671171399121
677,726.4913668389142
678,726.5113646460937
679,726.5272008471105
680,726.5389814048345
681,726.5468275787091
682,726.550875497286
683,726.5512756813773
684,726.5481925155109
685,726.5418036664864
686,726.5322994495356
687,726.5198821440777
688,726.5047652619388
689,726.487172771465
690,726.4673382814972
691,726.4455041895039
692,726.421920798049
693,726.3968454033117
694,726.3705413587924
695,726.3432771167008
696,726.3153252489758
697,726.2869614497163
698,726.2584635211239
699,726.2301103455055
700,726.2021808459551
701,726.1749529378704
702,726.1487024727828
703,726.1237021755079
704,726.1002205754676
705,726.0785209330975
706,726.0588601625399
707,726.0414877523186
708,726.0266446862984
709,726.0145623677975
710,726.0054615501365
711,725.9995512771477
712,725.9970278376018
713,725.9980737385426
714,726.0028567039552
715,726.0115287062836
716,726.0242250387244
717,726.0410634364547
718,726.0621432556684
719,726.0875447204419
720,726.1173282482926
721,726.1515338651983
722,726.1901807198593
723,726.2332667055497
724,726.2807681962802
725,726.332639902128
726,726.3888148465
727,726.4492044659758
728,726.5136988314254
729,726.5821669875934
730,726.6544574075222
731,726.7303985579867
732,726.809799572131
733,726.8924510254775
734,726.9781258112297
735,727.0665801100856
736,727.1575544487221
737,727.2507748402296
738,727.3459539992418
739,727.4427926236917
740,727.5409807334587
741,727.6401990539993
742,727.740120431195
743,727.8404112623926
744,727.9407329277735
745,728.0407432057718
746,728.1400976565656
747,728.2384509589828
748,728.3354581884182
749,728.4307760260475
750,728.5240638921294
751,728.614984998247
752,728.703207315232
753,728.7884044556481
754,728.870256472042
755,728.9484505743419
756,729.0226817714722
757,729.0926534433873
758,729.1580778504682
759,729.2186765876771
760,729.2741809908271
761,729.3243325017869
762,729.3688829990712
763,729.4075951006116
764,729.4402424463192
765,729.4666099686807
766,729.4864941597449
767,729.4997033423077
768,729.5060579519774
769,729.5053908354188
770,729.4975475687994
771,729.4823867994133
772,729.4597806126422
773,729.429614925683
774,729.3917899084677
775,729.3462204306851
776,729.292836532083
777,729.2315839118183
778,729.162424431795
779,729.0853366285758
780,729.0003162282594
781,728.9073766583049
782,728.8065495495899
783,728.6978852213011
784,728.5814531409603
785,728.4573423521482
786,728.32566186303
787,728.1865409890646
788,728.0401296429213
789,727.8865985636294
790,727.7261394756814
791,727.55896516782
792,727.3853094812127
793,727.20542719771
794,727.0195938203535
795,726.8281052398097
796,726.6312772818915
797,726.4294451327314
798,726.2229626393546
799,726.0122014844513
800,725.7975502353148
801,725.5794132681925
802,725.3582095707075
803,725.1343714268708
804,724.9083429918359
805,724.6805787665027
806,724.4515419844463
807,724.221702924775
808,723.9915371644485
809,723.7615237827604
810,723.5321435295132
811,723.3038769668583
812,723.0772025925919
813,722.8525949501972
814,722.6305227291709
815,722.4114468591666
816,722.1958186030989
817,721.98407765632
818,721.7766502600995
819,721.5739473379764
820,721.3763626639277
821,721.1842710719201
822,720.9980267165569
823,720.8179613937582
824,720.6443829291456
825,720.4775736407578
826,720.3177888824002
827,720.1652556746512
828,720.0201714321008
829,719.8827027969469
830,719.752984589822
831,719.6311188887179
832,719.5171742467417
833,719.4111850596519
834,719.3131510945151
835,719.2230371908431
836,719.1407731449295
837,719.0662537868942
838,718.9993392583398
839,718.9398554966733
840,718.8875949302106
841,718.8423173861183
842,718.8037512107319
843,718.7715945986175
844,718.745517123246
845,718.7251614588891
846,718.7101452806086
847,718.7000633268182
848,718.6944896066644
849,718.6929797326374
850,718.6950733579941
851,718.7002966991168
852,718.7081651244262
853,718.7181857928449
854,718.7298603249965
855,718.7426874892046
856,718.7561658828722
857,718.7697965891949
858,718.7830857897866
859,718.7955473149361
860,718.8067051141619
861,718.8160956306485
862,718.8232700644751
863,718.8277965110135
864,718.8292619618604
865,718.8272741561361
866,718.8214632706672
867,718.8114834390633
868,718.7970140920315
869,718.7777611142764
870,718.7534578167878
871,718.7238657266673
872,718.6887751990957
873,718.6480058571527
874,718.6014068650206
875,718.5488570390385
876,718.4902647997088
877,718.4255679668477
878,718.3547334001584
879,718.2777564887573
880,718.1946604954711
881,718.1054957647693
882,718.0103388062339
883,717.9092912675708
884,717.8024788120481
885,717.6900499153023
886,717.572174596073
887,717.4490430946771
888,717.3208645118233
889,717.1878654186264
890,717.0502884467459
891,716.9083908661074
892,716.7624431570143
893,716.6127275832149
894,716.4595367720455
895,716.3031723068461
896,716.1439433356699
897,715.9821651992568
898,715.8181580806752
899,715.652245679148
900,715.4847539114248
901,715.3160096453727
902,715.1463394717291
903,714.9760685207373
904,714.805519330603
905,714.6350107746798
906,714.4648570541607
907,714.2953667626481
908,714.1268420280416
909,713.9595777358899
910,713.7938608372017
911,713.6299697429605
912,713.4681738070382
913,713.3087328983509
914,713.1518970615971
915,712.9979062639543
916,712.8469902233486
917,712.6993683126926
