frame_number,force
0,723.3807370161718
1,723.3701251539261
2,723.359454987421
3,723.3486687601758
4,723.3377098045027
5,723.326523069233
6,723.315055628113
7,723.3032571636425
8,723.2910804222529
9,723.2784816378185
10,723.2654209211922
11,723.2518626138868
12,723.2377756045985
13,723.2231336080846
14,723.2079154065226
15,723.19210505366
16,723.1756920420615
17,723.1586714339026
18,723.1410439560086
19,723.1228160599584
20,723.1039999479748
21,723.0846135651773
22,723.0646805587228
23,723.0442302043768
24,723.0232973010006
25,723.0019220333038
26,722.9801498030262
27,722.9580310284038
28,722.9356209111927
29,722.9129791696681
30,722.8901697350865
31,722.8672604085906
32,722.8443224759553
33,722.8214302789321
34,722.7986607435935
35,722.7760928673226
36,722.7538071669849
37,722.7318850919805
38,722.710408407663
39,722.6894585566533
40,722.669116007197
41,722.6494595984801
42,722.6305658928762
43,722.6125085446805
44,722.5953576940634
45,722.5791793937503
46,722.564035074654
47,722.5499810556585
48,722.5370681019294
49,722.5253410352776
50,722.5148383992467
51,722.5055921809396
52,722.4976275911115
53,722.4909629034272
54,722.4856093527953
55,722.4815710915733
56,722.4788452015134
57,722.477421758621
58,722.4772839473472
59,722.4784082195788
60,722.4807644929671
61,722.4843163828593
62,722.4890214626352
63,722.4948315480744
64,722.5016930017678
65,722.5095470533848
66,722.5183301312593
67,722.5279742006395
68,722.538407104255
69,722.5495529015947
70,722.5613322044568
71,722.5736625076875
72,722.5864585152863
73,722.5996324630868
74,722.6130944400104
75,722.6267527104561
76,722.6405140406828
77,722.6542840319703
78,722.6679674628168
79,722.6814686414997
80,722.6946917693265
81,722.7075413140402
82,722.7199223920804
83,722.7317411576968
84,722.7429051964264
85,722.7533239203138
86,722.7629089623728
87,722.7715745679219
88,722.7792379804127
89,722.7858198192558
90,722.7912444471993
91,722.795440325148
92,722.7983403527506
93,722.799882193329
94,722.8000085816067
95,722.7986676123433
96,722.7958130076223
97,722.7914043602691
98,722.7854073506359
99,722.7777939338173
100,722.7685424943729
101,722.7576379658424
102,722.7450719126564
103,722.7308425724276
104,722.7149548570385
105,722.6974203115849
106,722.6782570313708
107,722.6574895387661
108,722.635148623334
109,722.6112711496494
110,722.5858998375774
111,722.5590830197608
112,722.5308743808814
113,722.5013326828339
114,722.4705214793584
115,722.438508823287
116,722.4053669695611
117,722.3711720772353
118,722.3360039133343
119,722.2999455606077
120,722.2630831303175
121,722.2255054806
122,722.1873039406735
123,722.1485720408181
124,722.1094052474751
125,722.0699007021732
126,722.0301569625461
127,721.9902737434805
128,721.9503516563427
129,721.9104919444314
130,721.8707962134251
131,721.831366156477
132,721.792303274258
133,721.7537085903418
134,721.7156823620504
135,721.6783237866075
136,721.6417307023197
137,721.605999284457
138,721.5712237355903
139,721.5374959704288
140,721.504905295612
141,721.4735380853361
142,721.4434774541355
143,721.4148029285695
144,721.3875901199033
145,721.3619104000418
146,721.3378305830278
147,721.3154126144974
148,721.294713271684
149,721.2757838766297
150,721.2586700249778
151,721.2434113323868
152,721.2300412007684
153,721.2185866071047
154,721.2090679177896
155,721.2014987308603
156,721.1958857476595
157,721.1922286751297
158,721.1905201602183
159,721.1907457582965
160,721.192883937631
161,721.1969061217383
162,721.2027767709557
163,721.2104535037561
164,721.2198872573009
165,721.2310224857648
166,721.2437973945077
167,721.258144208379
168,721.2739894730212
169,721.2912543884318
170,721.3098551739554
171,721.3297034635893
172,721.3507067304147
173,721.3727687391325
174,721.3957900257252
175,721.4196684029121
176,721.4442994894678
177,721.4695772608577
178,721.4953946179862
179,721.5216439699691
180,721.5482178259148
181,721.5750093901645
182,721.6019131553794
183,721.6288254878095
184,721.6556451986891
185,721.682274095237
186,721.7086175046275
187,721.7345847646242
188,721.7600896751718
189,721.7850509059999
190,721.8093923561626
191,721.833043462317
192,721.8559394533178
193,721.8780215493774
194,721.8992371048172
195,721.9195396943921
196,721.9388891443267
197,721.9572515105194
198,721.9745990078004
199,721.9909098952919
200,722.0061683233387
201,722.0203641469819
202,722.033492709855
203,722.0455546012911
204,722.0565553888325
205,722.0665053282913
206,722.0754190538626
207,722.0833152512974
208,722.0902163176529
209,722.0961480115458
210,722.1011390982292
211,722.1052209942783
212,722.1084274171369
213,722.1107940448549
214,722.1123581908071
215,722.1131584971329
216,722.113234649278
217,722.1126271124838
218,722.1113768896647
219,722.109525299096
220,722.1071137695219
221,722.1041836494255
222,722.100776026591
223,722.0969315542709
224,722.092690281304
225,722.0880914849135
226,722.0831735061521
227,722.0779735887535
228,722.0725277225206
229,722.0668704926164
230,722.0610349364804
231,722.0550524105753
232,722.0489524694702
233,722.0427627594692
234,722.0365089281553
235,722.0302145503493
236,722.0239010703973
237,722.0175877602863
238,722.0112916927252
239,722.0050277280002
240,721.9988085130936
241,721.9926444912848
242,721.9865439204315
243,721.9805128984328
244,721.9745553949595
245,721.968673289427
246,721.9628664162944
247,721.9571326198005
248,721.9514678208654
249,721.9458660989112
250,721.9403197908022
251,721.934819608179
252,721.929354773595
253,721.9239131754665
254,721.9184815418573
255,721.9130456330711
256,721.9075904526653
257,721.9021004760049
258,721.8965598951754
259,721.8909528790499
260,721.8852638472993
261,721.879477756921
262,721.8735803994474
263,721.8675587066226
264,721.8614010621346
265,721.8550976167271
266,721.8486406033899
267,721.842024648407
268,721.8352470733155
269,721.8283081826379
270,721.8212115323472
271,721.8139641739643
272,721.8065768689912
273,721.799064268339
274,721.7914450517179
275,721.7837420226199
276,721.7759821555896
277,721.7681965939686
278,721.7604205979482
279,721.7526934440742
280,721.7450582779096
281,721.7375619213908
282,721.7302546358956
283,721.7231898417184
284,721.7164237948579
285,721.7100152227206
286,721.7040249213095
287,721.6985153174642
288,721.6935500005911
289,721.6891932289716
290,721.6855094160702
291,721.682562602232
292,721.6804159168456
293,721.679131035857
294,721.6787676398851
295,721.6793828791086
296,721.6810308519149
297,721.6837621043669
298,721.6876231568383
299,721.6926560632487
300,721.6988980076868
301,721.7063809427716
302,721.7151312735447
303,721.7251695898053
304,721.7365104486678
305,721.7491622079093
306,721.7631269095638
307,721.7784002123205
308,721.794971370771
309,721.8128232595453
310,721.8319324409209
311,721.8522692753141
312,721.8737980747857
313,721.8964773000143
314,721.9202598011412
315,721.9450931025871
316,721.9709197314872
317,721.9976775887616
318,722.0253003609488
319,722.0537179696614
320,722.0828570540045
321,722.1126414799683
322,722.1429928700001
323,722.1738311457403
324,722.2050750771408
325,722.2366428316689
326,722.268452517786
327,722.3004227173415
328,722.3324730021403
329,722.3645244307785
330,722.3965000224925
331,722.4283252049439
332,722.4599282327722
333,722.4912405740434
334,722.5221972627314
335,722.5527372167409
336,722.5828035219187
337,722.61234368259
338,722.641309838909
339,722.6696589514734
340,722.6973529542382
341,722.724358877144
342,722.7506489397471
343,722.776200616845
344,722.8009966770377
345,722.8250251953693
346,722.8482795413308
347,722.8707583432358
348,722.8924654292839
349,722.9134097447657
350,722.9336052441741
351,722.9530707565682
352,722.9718298222851
353,722.9899104990062
354,723.0073451353203
355,723.0241701103415
356,723.040425538454
357,723.0561549388252
358,723.0714048701442
359,723.0862245323934
360,723.1006653392911
361,723.1147804669326
362,723.1286243857443
363,723.142252383988
364,723.1557200917215
365,723.1690830144519
366,723.1823960858769
367,723.1957132489888
368,723.2090870740404
369,723.2225684201615
370,723.2362061450001
371,723.2500468642944
372,723.2641347613544
373,723.2785114452718
374,723.2932158560767
375,723.3082842147472
376,723.3237500157712
377,723.3396440596468
378,723.355994522139
379,723.3728270564573
380,723.3901649241587
381,723.4080291506981
382,723.426438701999
383,723.4454106789161
384,723.4649605267971
385,723.4851022574537
386,723.5058486807716
387,723.5272116430044
388,723.5492022685166
389,723.5718312012187
390,723.5951088412186
391,723.6190455715243
392,723.6436519692069
393,723.668938995348
394,723.6949181584989
395,723.7216016473495
396,723.7490024295747
397,723.7771343147856
398,723.8060119798953
399,723.8356509554636
400,723.8660675723131
401,723.8972788689877
402,723.9293024620375
403,723.9621563822668
404,723.9958588808983
405,724.0304282101383
406,724.0658823828729
407,724.102238916219
408,724.1395145635146
409,724.177725039171
410,724.2168847407021
411,724.2570064722712
412,724.2981011743304
413,724.3401776643344
414,724.3832423938734
415,724.4272992275535
416,724.4723492484
417,724.5183905935555
418,724.5654183227036
419,724.6134243200627
420,724.6623972292549
421,724.7123224193135
422,724.7631819797648
423,724.8149547427403
424,724.8676163299252
425,724.9211392217562
426,724.975492845946
427,725.0306436823183
428,725.0865553809604
429,725.1431888906225
430,725.2005025941635
431,725.258452447898
432,725.3169921221122
433,725.3760731407338
434,725.435645019127
435,725.49565540018
436,725.556050189868
437,725.616773693799
438,725.677768755634
439,725.7389768970834
440,725.8003384579629
441,725.8617927339519
442,725.9232781094233
443,725.9847321830545
444,726.0460918847491
445,726.107293583441
446,726.1682731863344
447,726.2289662309099
448,726.2893079714318
449,726.3492334615548
450,726.4086776340074
451,726.467575377679
452,726.5258616123177
453,726.5834713615825
454,726.6403398261111
455,726.6964024590884
456,726.751595047225
457,726.8058537998808
458,726.8591154482333
459,726.91131735518
460,726.9623976356281
461,727.0122952864182
462,727.0609503252399
463,727.108303938085
464,727.154298634674
465,727.1988784109342
466,727.2419889172692
467,727.2835776312949
468,727.3235940338792
469,727.3619897874399
470,727.3987189151368
471,727.4337379787561
472,727.4670062520053
473,727.498485885035
474,727.5281420555882
475,727.555943102304
476,727.5818606362296
477,727.6058696274257
478,727.6279484647589
479,727.648078988531
480,727.6662464971688
481,727.6824397303284
482,727.6966508311459
483,727.7088752901047
484,727.7191118725934
485,727.7273625323623
486,727.7336323138945
487,727.7379292476749
488,727.7402642428947
489,727.7406509820873
490,727.7391058216118
491,727.7356477008504
492,727.7302980617164
493,727.7230807789699
494,727.7140221011573
495,727.7031506016568
496,727.6904971391002
497,727.6760948263058
498,727.6599790069193
499,727.6421872392272
500,727.6227592869203
501,727.601737116712
502,727.5791649024055
503,727.5550890342832
504,727.529558131787
505,727.5026230567189
506,727.4743369236132
507,727.4447551033887
508,727.4139352160371
509,727.3819371081518
510,727.3488228114899
511,727.314656479271
512,727.2795042974598
513,727.243434368841
514,727.2065165682512
515,727.1688223679391
516,727.130424632742
517,727.0913973855153
518,727.0518155437715
519,727.0117546285644
520,726.9712904464602
521,726.9304987454336
522,726.8894548460688
523,726.8482332505242
524,726.8069072328544
525,726.765548414851
526,726.72422633136
527,726.6830079883065
528,726.6419574158192
529,726.601135218389
530,726.5605981242463
531,726.5203985369881
532,726.4805840934806
533,726.4411972330133
534,726.402274783672
535,726.3638475729293
536,726.3259400701645
537,726.288570068898
538,726.2517484159407
539,726.2154787937163
540,726.1797575609803
541,726.1445736559946
542,726.1099085647414
543,726.0757363549513
544,726.0420237748305
545,726.0087304137393
546,725.9758089210053
547,725.9432052786645
548,725.9108591240079
549,725.8787041180385
550,725.8466683561709
551,725.8146748177604
552,725.7826418514142
553,725.750483693448
554,725.7181110171866
555,725.6854315109026
556,725.6523504819853
557,725.6187714844613
558,725.5845969666412
559,725.5497289358717
560,725.5140696380817
561,725.4775222503708
562,725.439991584668
563,725.401384799643
564,725.3616121172537
565,725.3205875401327
566,725.2782295664913
567,725.234461899751
568,725.1892141501023
569,725.1424225245742
570,725.0940305013643
571,725.0439894834753
572,724.9922594261285
573,724.9388094320402
574,724.8836183086655
575,724.8266750820446
576,724.7679794626786
577,724.7075422595511
578,724.6453857388043
579,724.5815439235918
580,724.5160628314532
581,724.4490006455662
582,724.3804278167312
583,724.3104270938051
584,724.2390934812944
585,724.1665341237742
586,724.0928681176961
587,724.0182262519318
588,723.9427506789297
589,723.8665945185712
590,723.7899213969637
591,723.7129049228585
592,723.6357281051012
593,723.5585827150054
594,723.4816685974471
595,723.4051929339865
596,723.3293694608362
597,723.2544176441164
598,723.1805618143846
599,723.1080302618977
600,723.0370542938707
601,722.9678672555112
602,722.9007035175799
603,722.8357974340784
604,722.7733822740711
605,722.7136891317883
606,722.6569458193558
607,722.6033757468866
608,722.5531967952846
609,722.5066201879424
610,722.4638493683995
611,722.4250788916199
612,722.3904933367035
613,722.3602662487142
614,722.3345591172083
615,722.313520399055
616,722.297284593132
617,722.2859713742275
618,722.2796847929474
619,722.2785125477254
620,722.2825253344337
621,722.2917762786274
622,722.3063004549881
623,722.3261144978252
624,722.3512163055647
625,722.3815848413255
626,722.4171800313231
627,722.4579427628252
628,722.5037949830573
629,722.5546398994419
630,722.6103622802094
631,722.6708288533642
632,722.7358888014803
633,722.8053743497329
634,722.8791014446418
635,722.9568705207586
636,723.038467351606
637,723.1236639797744
638,723.2122197198399
639,723.3038822269427
640,723.398388623165
641,723.4954666731272
642,723.5948359997362
643,723.6962093309866
644,723.7992937690643
645,723.9037920735524
646,724.0094039510972
647,724.1158273443565
648,724.2227597134695
649,724.3298993038987
650,724.436946395244
651,724.5436045260873
652,724.6495816898578
653,724.7545914964732
654,724.858354294558
655,724.9605982493256
656,725.0610603714333
657,725.1594874922527
658,725.2556371811718
659,725.3492786009132
660,725.4401932974374
661,725.5281759218196
662,725.6130348824952
663,725.6945929275041
664,725.772687657669
665,725.8471719725986
666,725.9179144516323
667,725.9847996716223
668,726.0477284634966
669,726.1066181101506
670,726.1614024888161
671,726.2120321611004
672,726.2584744135398
673,726.3007132512357
674,726.3387493469323
675,726.372599947286
676,726.4022987369093
677,726.4278956593965
678,726.4494566934837
679,726.4670635821317
680,726.4808135126003
681,726.4908187461336
682,726.4972061962349
683,726.5001169546058
684,726.4997057640584
685,726.4961404384585
686,726.489601230884
687,726.4802801521529
688,726.4683802424842
689,726.4541147994611
690,726.4377065658573
691,726.4193868811425
692,726.399394800462
693,726.3779761846577
694,726.3553827645806
695,726.3318711826008
696,726.3077020139141
697,726.2831387701732
698,726.2584468881882
699,726.233892706728
700,726.2097424345109
701,726.1862611121929
702,726.163711570756
703,726.1423533883976
704,726.1224418479262
705,726.1042268966835
706,726.0879521111668
707,726.0738536688029
708,726.062159329659
709,726.0530874311842
710,726.0468458992848
711,726.0436312791386
712,726.0436277893605
713,726.0470064037094
714,726.0539239653381
715,726.0645223391865
716,726.078927608303
717,726.0972493199467
718,726.1195797876854
719,726.1459934563275
720,726.1765463369552
721,726.2112755191916
722,726.2501987671477
723,726.293314204539
724,726.3406000933874
725,726.3920147094997
726,726.4474963165599
727,726.5069632392909
728,726.5703140348718
729,726.6374277607903
730,726.7081643367349
731,726.7823649979185
732,726.8598528371587
733,726.9404334329438
734,727.023895560489
735,727.1100119822778
736,727.1985403138738
737,727.2892239601786
738,727.3817931169216
739,727.4759658316077
740,727.5714491170786
741,727.6679401094627
742,727.7651272611088
743,727.8626915582805
744,727.9603077528388
745,728.0576455968411
746,728.1543710691382
747,728.250147583819
748,728.3446371716935
749,728.43750162762
750,728.528403617983
751,728.6170077438677
752,728.7029815566103
753,728.7859965236973
754,728.8657289443951
755,728.9418608158088
756,729.0140806511016
757,729.0820842522949
758,729.1455754405299
759,729.2042667469541
760,729.2578800673831
761,729.3061472835825
762,729.3488108538018
763,729.3856243754273
764,729.4163531231382
765,729.4407745663624
766,729.4586788699258
767,729.469869381489
768,729.4741631087129
769,729.4713911882928
770,729.4613993482628
771,729.4440483643788
772,729.4192145109397
773,729.3867900060117
774,729.3466834504593
775,729.2988202593241
776,729.2431430830942
777,729.179612215616
778,729.1082059849562
779,729.0289211233792
780,728.9417731125588
781,728.8467964999677
782,728.7440451820438
783,728.6335926493991
784,728.5155321892386
785,728.3899770404026
786,728.2570604968688
787,728.1169359558087
788,727.9697769061742
789,727.8157768532785
790,727.6551491741418
791,727.4881268978692
792,727.3149624054172
793,727.1359270438074
794,726.9513106508444
795,726.7614209874173
796,726.5665830754705
797,726.367138440681
798,726.1634442596994
799,725.9558724125496
800,725.7448084415817
801,725.530650419248
802,725.3138077279099
803,725.0946997561016
804,724.8737545173533
805,724.6514071995437
806,724.4280986542587
807,724.2042738363772
808,723.9803802041066
809,723.7568660892357
810,723.5341790466842
811,723.3127641915119
812,723.0930625302325
813,722.8755092917722
814,722.6605322623332
815,722.4485501284117
816,722.2399708331768
817,722.0351899525782
818,721.8345890981919
819,721.6385343539596
820,721.4473747541467
821,721.2614408101466
822,721.0810430937626
823,720.9064708840351
824,720.7379908838092
825,720.5758460114853
826,720.4202542730876
827,720.2714077200856
828,720.1294714992196
829,719.9945830013789
830,719.8668511168888
831,719.7463556044048
832,719.6331465803753
833,719.5272441360004
834,719.4286380886892
835,719.3372878748643
836,719.2531225904023
837,719.176041184098
838,719.1059128083928
839,719.0425773303197
840,718.9858460042772
841,718.935502306827
842,718.8913029320299
843,718.8529789437548
844,718.8202370791206
845,718.7927611951227
846,718.7702138486931
847,718.7522379988765
848,718.7384588183351
849,718.7284856001819
850,718.7219137455509
851,718.7183268175644
852,718.7172986482092
853,718.7183954854137
854,718.7211781676979
855,718.7252043130607
856,718.7300305078505
857,718.7352144809852
858,718.7403172492783
859,718.7449052203516
860,718.7485522402218
861,718.7508415732631
862,718.7513678031136
863,718.7497386440597
864,718.7455766531162
865,718.7385208334016
866,718.7282281199249
867,718.7143747399257
868,718.6966574414444
869,718.6747945857597
870,718.6485271015667
871,718.6176193009438
872,718.5818595587974
873,718.5410608582941
874,718.4950612048331
875,718.4437239106155
876,718.3869377511958
877,718.324616994995
878,718.256701306968
879,718.1831555285258
880,718.1039693373607
881,718.0191567928149
882,717.9287557744292
883,717.8328273227207
884,717.731454891908
885,717.6247435244583
886,717.5128189572209
887,717.3958266685655
888,717.2739308753062
889,717.1473134872339
890,717.0161730259828
891,716.8807235141434
892,716.7411933402072
893,716.5978241048414
894,716.450869453765
895,716.3005939019848
896,716.1472716534554
897,715.9911854196193
898,715.8326252399445
899,715.6718873076506
900,715.5092728043296
901,715.3450867479437
902,715.1796368594433
903,715.0132324536878
904,714.8461833604523
905,714.6787988812387
906,714.5113867874875
907,714.3442523654832
908,714.1776975126213
909,714.0120198888568
910,713.8475121263798
911,713.6844611000474
912,713.5231472606829
913,713.3638440327658
914,713.2068172770412
915,713.0523248173051
916,712.9006160294701
917,712.7519314901936
