frame_number,force
0,615.027369352864
1,615.0182545074532
2,615.0084142766079
3,614.9978179692154
4,614.9864406372916
5,614.9742633323247
6,614.961273304736
7,614.9474641483779
8,614.9328358920757
9,614.917395040236
10,614.9011545647629
11,614.8841338509989
12,614.8663586012013
13,614.8478607001254
14,614.8286780481545
15,614.8088543675266
16,614.7884389865307
17,614.7674866057906
18,614.7460570502714
19,614.7242150098928
20,614.7020297700268
21,614.6795749312747
22,614.65692811708
23,614.634170668417
24,614.6113873262047
25,614.5886659031547
26,614.5660969469229
27,614.5437733953821
28,614.5217902224746
29,614.50024407029
30,614.4792328613681
31,614.4588553857976
32,614.4392108600554
33,614.4203984573182
34,614.4025168110493
35,614.3856634947971
36,614.3699344818167
37,614.3554235888073
38,614.3422219089551
39,614.3304172405781
40,614.3200935189401
41,614.3113302601444
42,614.3042020272595
43,614.2987779296261
44,614.2951211661706
45,614.2932886223427
46,614.293330528376
47,614.295290184576
48,614.2992037575567
49,614.305100149624
50,614.3130009417383
51,614.3229204088917
52,614.334865605557
53,614.3488365181411
54,614.3648262808048
55,614.3828214502869
56,614.4028023344636
57,614.4247433685734
58,614.4486135326495
59,614.4743768037209
60,614.5019926363932
61,614.5314164649968
62,614.5626002195526
63,614.5954928467705
64,614.6300408267658
65,614.666188676355
66,614.7038794305672
67,614.7430550950345
68,614.7836570628757
69,614.8256264902668
70,614.8689046251366
71,614.9134330838607
72,614.9591540719763
73,615.0060105468881
74,615.0539463229526
75,615.1029061216047
76,615.1528355708189
77,615.2036811592061
78,615.2553901509584
79,615.3079104690175
80,615.3611905551007
81,615.4151792160545
82,615.4698254661315
83,615.5250783743572
84,615.5808869254681
85,615.6371999018786
86,615.6939657924337
87,615.7511327313517
88,615.8086484682526
89,615.8664603681016
90,615.924515438608
91,615.9827603819987
92,616.04114166756
93,616.0996056203031
94,616.1580985197061
95,616.2165667015821
96,616.2749566562528
97,616.333215117215
98,616.3912891361493
99,616.4491261424408
100,616.5066739881437
101,616.5638809819857
102,616.6206959181196
103,616.6770681065966
104,616.7329474125188
105,616.7882843092407
106,616.8430299483381
107,616.8971362467292
108,616.9505559904258
109,617.0032429546027
110,617.0551520394682
111,617.1062394195891
112,617.1564627012309
113,617.2057810793782
114,617.2541554847628
115,617.3015487117802
116,617.3479255198157
117,617.3932527020837
118,617.4374991170979
119,617.4806356787486
120,617.522635302501
121,617.5634728077686
122,617.6031247795295
123,617.6415693949316
124,617.6787862223881
125,617.7147560009543
126,617.7494604063191
127,617.7828818073432
128,617.8150030153157
129,617.8458070280719
130,617.8752767725239
131,617.9033948510012
132,617.9301432983178
133,617.9555033575334
134,617.9794552829577
135,618.0019781789164
136,618.0230498822015
137,618.0426468953549
138,618.0607443771831
139,618.0773161957944
140,618.0923350475075
141,618.1057726422847
142,618.1175999535066
143,618.1277875275634
144,618.136305847318
145,618.1431257430788
146,618.1482188449025
147,618.1515580700401
148,618.1531181386473
149,618.1528761095011
150,618.1508119256946
151,618.1469089586435
152,618.1411545380258
153,618.1335404559043
154,618.1240634347312
155,618.1127255505594
156,618.0995346045959
157,618.0845044385427
158,618.067655191931
159,618.0490135023588
160,618.0286126514011
161,618.006492659302
162,617.9827003306095
163,617.9572892516709
164,617.9303197401063
165,617.9018587460475
166,617.8719797049379
167,617.8407623421366
168,617.8082924305647
169,617.7746615040867
170,617.739966530916
171,617.7043095524657
172,617.6677972933119
173,617.6305407474724
174,617.5926547455109
175,617.5542575061503
176,617.5154701747823
177,617.4764163496003
178,617.437221594759
179,617.3980129393418
180,617.3589183607769
181,617.3200662516753
182,617.2815848702147
183,617.2436017761174
184,617.2062432564326
185,617.1696337472762
186,617.1338952591188
187,617.0991468138842
188,617.0655039019974
189,617.033077967121
190,617.0019759261495
191,616.9722997319951
192,616.9441459864279
193,616.9176056097793
194,616.8927635737975
195,616.8696987029919
196,616.8484835479541
197,616.8291843316047
198,616.8118609669971
199,616.7965671438266
200,616.7833504798673
201,616.7722527326067
202,616.7633100653055
203,616.756553360945
204,616.7520085771673
205,616.7496971350079
206,616.7496363334997
207,616.7518397810021
208,616.7563178327855
209,616.7630780235113
210,616.772125482778
211,616.7834633215634
212,616.7970929772812
213,616.8130145057919
214,616.8312268104166
215,616.8517278008289
216,616.8745144782806
217,616.8995829471763
218,616.9269283557973
219,616.956544770685
220,616.9884249900847
221,617.022560302429
222,617.0589401964911
223,617.0975520304451
224,617.1383806673449
225,617.1814080844691
226,617.2266129638175
227,617.2739702708091
228,617.3234508277513
229,617.3750208879616
230,617.4286417157996
231,617.4842691775267
232,617.541853347909
233,617.6013381378909
234,617.6626609492605
235,617.7257523624198
236,617.7905358628404
237,617.8569276109379
238,617.9248362595316
239,617.994162822579
240,618.0648005979568
241,618.1366351458529
242,618.2095443233495
243,618.2833983748504
244,618.3580600765335
245,618.4333849311064
246,618.5092214076525
247,618.5854112210918
248,618.6617896469526
249,618.7381858692809
250,618.814423361614
251,618.8903203021853
252,618.9656900248461
253,619.0403415069235
254,619.114079894415
255,619.1867070635248
256,619.2580222161718
257,619.3278225066729
258,619.3959036974388
259,619.462060842344
260,619.5260889965326
261,619.5877839508281
262,619.6469429882717
263,619.7033656598055
264,619.7568545753695
265,619.8072162054904
266,619.8542616870471
267,619.8978076257679
268,619.9376768876751
269,619.9736993723172
270,620.0057127616826
271,620.033563239622
272,620.0571061773861
273,620.0762067816144
274,620.0907407014633
275,620.1005945913099
276,620.1056666250589
277,620.1058669582231
278,620.1011181347882
279,620.0913554368376
280,620.0765271752034
281,620.0565949188932
282,620.0315336603463
283,620.001331913301
284,619.9659917402489
285,619.9255287068108
286,619.8799717608064
287,619.8293630347107
288,619.7737575719983
289,619.7132229801464
290,619.6478390146054
291,619.5776970980386
292,619.5028997780856
293,619.4235601261895
294,619.3398010806364
295,619.2517547388801
296,619.1595616065588
297,619.0633698124863
298,618.9633343001772
299,618.8596160074833
300,618.7523810463142
301,618.6417998933854
302,618.5280466008386
303,618.411298034105
304,618.2917331443796
305,618.1695322834304
306,618.0448765676915
307,617.9179472967065
308,617.7889254291006
309,617.6579911178668
310,617.5253233053559
311,617.3910993764708
312,617.2554948665526
313,617.1186832190419
314,616.9808355874768
315,616.8421206763282
316,616.7027046152397
317,616.5627508615432
318,616.4224201269494
319,616.2818703261488
320,616.1412565469201
321,616.0007310419167
322,615.8604432410445
323,615.7205397808717
324,615.5811645450891
325,615.4424587087564
326,615.3045607791545
327,615.1676066270226
328,615.0317295032274
329,614.8970600372093
330,614.7637262144497
331,614.6318533304226
332,614.5015639184746
333,614.372977649635
334,614.246211203663
335,614.1213781122913
336,613.9985885772014
337,613.8779492665219
338,613.7595630942953
339,613.643528987258
340,613.529941642589
341,613.4188912795736
342,613.3104633878413
343,613.2047384750749
344,613.1017918178156
345,613.001693220159
346,612.9045067864316
347,612.8102907148536
348,612.7190971194003
349,612.6309718863895
350,612.5459545705531
351,612.464078332717
352,612.3853699186919
353,612.3098496776253
354,612.2375316180726
355,612.1684235006279
356,612.1025269660323
357,612.0398376968503
358,611.980345609581
359,611.9240350733119
360,611.8708851510835
361,611.8208698606529
362,611.7739584517088
363,611.7301156966646
364,611.6893021923411
365,611.6514746706246
366,611.6165863176232
367,611.5845871024633
368,611.5554241177914
369,611.5290419335814
370,611.5053829641557
371,611.484387846483
372,611.4659958270269
373,611.4501451549582
374,611.4367734803288
375,611.4258182556335
376,611.4172171382294
377,611.4109083905531
378,611.406831275451
379,611.4049264444443
380,611.405136316656
381,611.4074054454156
382,611.4116808686481
383,611.4179124385386
384,611.426053125895
385,611.4360592949209
386,611.4478909445274
387,611.4615119128915
388,611.4768900426543
389,611.4939973046799
390,611.5128098786546
391,611.5333081893737
392,611.5554768984638
393,611.5793048522137
394,611.6047849868295
395,611.6319141927606
396,611.6606931396973
397,611.6911260634091
398,611.7232205151076
399,611.7569870739263
400,611.7924390234689
401,611.8295919938332
402,611.8684635709435
403,611.9090728757566
404,611.9514401171748
405,611.9955861238913
406,612.0415318613174
407,612.0892979401167
408,612.1389041228315
409,612.1903688343552
410,612.243708680248
411,612.2989379744928
412,612.3560682761304
413,612.4151079329345
414,612.4760616300972
415,612.5389299425626
416,612.6037088905047
417,612.6703894980304
418,612.738957355775
419,612.809392189176
420,612.8816674358736
421,612.9557498375121
422,613.0315990529556
423,613.1091673012978
424,613.188399043616
425,613.2692307119626
426,613.351590493025
427,613.4353981728543
428,613.5205650483497
429,613.606993910689
430,613.6945791055407
431,613.7832066744229
432,613.8727545803553
433,613.9630930185494
434,614.0540848096038
435,614.1455858692699
436,614.2374457461225
437,614.3295082170373
438,614.4216119305485
439,614.5135910893496
440,614.6052761643914
441,614.6964946336826
442,614.7870717392633
443,614.8768312562581
444,614.9655962684891
445,615.0531899457465
446,615.1394363182757
447,615.2241610439984
448,615.3071921633921
449,615.3883608363277
450,615.4675020551239
451,615.5444553288373
452,615.6190653352214
453,615.6911825385663
454,615.7606637733409
455,615.8273727947517
456,615.8911807977577
457,615.951966905759
458,616.0096186294805
459,616.0640322959716
460,616.115113447433
461,616.1627772097368
462,616.206948630861
463,616.2475629898494
464,616.284566076996
465,616.3179144452524
466,616.3475756312497
467,616.3735283424942
468,616.3957626060301
469,616.4142798735157
470,616.4290930781351
471,616.4402266397773
472,616.447716416191
473,616.4516095992735
474,616.4519645572321
475,616.4488506248866
476,616.4423478454908
477,616.4325466678177
478,616.4195476019846
479,616.4034608373345
480,616.3844058262947
481,616.3625108390293
482,616.3379124937181
483,616.310755266062
484,616.2811909801632
485,616.2493782826094
486,616.2154821026395
487,616.179673102787
488,616.1421271252999
489,616.1030246396277
490,616.0625501956775
491,616.020891886661
492,615.9782408243171
493,615.9347906282519
494,615.8907369300778
495,615.8462768917823
496,615.8016087362807
497,615.7569312867183
498,615.7124435103422
499,615.6683440630187
500,615.6248308314254
501,615.5821004709379
502,615.5403479380215
503,615.4997660166604
504,615.4605448389538
505,615.4228714001075
506,615.3869290676705
507,615.3528970845314
508,615.3209500653994
509,615.2912574870597
510,615.263983173098
511,615.2392847739216
512,615.2173132432057
513,615.198212312859
514,615.1821179701592
515,615.169157942178
516,615.1594511932203
517,615.1531074404128
518,615.150226691011
519,615.15089880318
520,615.1552030708685
521,615.1632078334133
522,615.1749701112927
523,615.1905352701386
524,615.2099367151981
525,615.2331956182339
526,615.2603206789556
527,615.2913079236387
528,615.3261405442133
529,615.3647887813919
530,615.4072098553168
531,615.4533479468552
532,615.5031342320467
533,615.5564869713969
534,615.6133116550989
535,615.6735012051665
536,615.7369362355294
537,615.8034853706738
538,615.8730056223573
539,615.9453428230605
540,616.020332114844
541,616.0977984926859
542,616.177557401015
543,616.2594153803212
544,616.3431707580993
545,616.4286143765154
546,616.5155303492623
547,616.6036968417777
548,616.6928868709723
549,616.7828691217485
550,616.8734087777872
551,616.9642683638782
552,617.0552085968277
553,617.145989241612
554,617.2363699687727
555,617.3261112081811
556,617.414974993636
557,617.502725792695
558,617.5891313169484
559,617.6739633094966
560,617.7569983082337
561,617.8380183849692
562,617.916811860887
563,617.9931739984346
564,618.066907669126
565,618.137823996457
566,618.2057429729691
567,618.2704940500406
568,618.3319166982006
569,618.3898609351601
570,618.4441878189363
571,618.4947699042588
572,618.541491660838
573,618.5842498513574
574,618.6229538657394
575,618.6575260073263
576,618.6879017264415
577,618.7140297970445
578,618.7358724325607
579,618.7534053374508
580,618.7666176916962
581,618.7755120660873
582,618.7801042670677
583,618.7804231110097
584,618.7765101291552
585,618.7684192057575
586,618.7562161528004
587,618.7399782248427
588,618.7197935773079
589,618.6957606714141
590,618.6679876290783
591,618.636591541263
592,618.6016977331195
593,618.5634389892471
594,618.5219547430067
595,618.4773902350126
596,618.4298956468871
597,618.3796252167532
598,618.3267363432155
599,618.2713886851494
600,618.2137432651617
601,618.1539615844016
602,618.0922047552422
603,618.0286326566317
604,617.963403115249
605,617.896671114337
606,617.8285880312418
607,617.7593009040884
608,617.6889517275622
609,617.617676777534
610,617.5456059644671
611,617.4728622161873
612,617.3995608914746
613,617.3258092270576
614,617.2517058221754
615,617.1773401667758
616,617.1027922209643
617,617.0281320540437
618,616.9534195516336
619,616.8787041992557
620,616.8040249501681
621,616.7294101835624
622,616.6548777565434
623,616.5804351504296
624,616.5060797098715
625,616.4317989723622
626,616.3575710853411
627,616.2833653077282
628,616.2091425923437
629,616.1348562454564
630,616.0604526598062
631,615.9858721177171
632,615.9110496607091
633,615.8359160206884
634,615.7603986055842
635,615.6844225302176
636,615.6079116820799
637,615.5307898115834
638,615.4529816366943
639,615.3744139519814
640,615.2950167315835
641,615.2147242145481
642,615.133475960005
643,615.0512178591586
644,614.9679030912081
645,614.8834930109493
646,614.7979579570168
647,614.711277971341
648,614.6234434220745
649,614.5344555235189
650,614.4443267473778
651,614.3530811204586
652,614.2607544053567
653,614.1673941627068
654,614.0730596956987
655,613.9778218792492
656,613.8817628774377
657,613.7849757537033
658,613.6875639791725
659,613.589640845625
660,613.491328790927
661,613.3927586458462
662,613.2940688117515
663,613.1954043790045
664,613.0969161962245
665,612.9987599011449
666,612.9010949241298
667,612.804083475018
668,612.7078895228334
669,612.612677776657
670,612.518612675174
671,612.425857392127
672,612.3345728649393
673,612.2449168539429
674,612.1570430399031
675,612.0711001677176
676,611.987231243842
677,611.9055727938259
678,611.8262541845256
679,611.7493970137008
680,611.6751145682041
681,611.6035113507993
682,611.5346826746568
683,611.4687143237367
684,611.4056822766743
685,611.3456524918282
686,611.2886807522012
687,611.2348125707033
688,611.1840831578962
689,611.1365174553316
690,611.0921302375916
691,611.0509262848934
692,611.0129006257336
693,610.9780388462713
694,610.9463174608218
695,610.917704336406
696,610.8921591639335
697,610.8696339691625
698,610.8500736575746
699,610.8334165880533
700,610.8195951703606
701,610.8085364809142
702,610.8001628906936
703,610.7943926987374
704,610.7911407648161
705,610.7903191354087
706,610.791837657945
707,610.7956045791875
708,610.8015271242252
709,610.8095120525321
710,610.8194661869383
711,610.8312969104752
712,610.8449126254619
713,610.8602231696412
714,610.877140185911
715,610.8955774445616
716,610.9154511189458
717,610.9366800166998
718,610.9591857693384
719,610.9828929839
720,611.0077293615082
721,611.0336257889088
722,611.0605164098583
723,611.0883386837426
724,611.1170334393619
725,611.146544932502
726,611.1768209160912
727,611.2078127305587
728,611.2394754191993
729,611.2717678694321
730,611.3046529766658
731,611.3380978238936
732,611.3720738677471
733,611.4065571205067
734,611.441528317038
735,611.4769730555344
736,611.5128819014028
737,611.5492504448079
738,611.5860793043468
739,611.623374071956
740,611.6611451970628
741,611.6994078106169
742,611.7381814915573
743,611.77748997959
744,611.8173608394333
745,611.8578250830577
746,611.8989167574153
747,611.9406725053469
748,611.9831311070601
749,612.0263330091592
750,612.0703198478109
751,612.1151339724586
752,612.1608179767555
753,612.2074142437939
754,612.254964512597
755,612.3035094717453
756,612.3530883840282
757,612.403738743628
758,612.4554959649512
759,612.5083931001178
760,612.5624605807158
761,612.617725978951
762,612.6742137834193
763,612.7319451848663
764,612.7909378674696
765,612.8512058018548
766,612.9127590376282
767,612.9756034956104
768,613.0397407626433
769,613.1051678941546
770,613.17187723127
771,613.2398562403654
772,613.3090873838282
773,613.3795480311386
774,613.4512104184626
775,613.5240416625321
776,613.59800383145
777,613.6730540722751
778,613.7491447932989
779,613.8262238976861
780,613.9042350645368
781,613.983118073652
782,614.062809171414
783,614.1432414766024
784,614.2243454257183
785,614.3060492570452
786,614.3882795316197
787,614.4709616880876
788,614.5540206271261
789,614.6373813192769
790,614.7209694275272
791,614.8047119334844
792,614.8885377546127
793,614.9723783402004
794,615.056168235031
795,615.1398456012834
796,615.2233526906565
797,615.3066362602083
798,615.389647927052
799,615.4723444587985
800,615.5546879983999
801,615.6366462238944
802,615.7181924456662
803,615.7993056462464
804,615.8799704698903
805,615.9601771704632
806,616.0399215263216
807,616.1192047301267
808,616.1980332601822
809,616.276418738264
810,616.3543777772826
811,616.4319318204499
812,616.5091069718206
813,616.5859338161619
814,616.662447224298
815,616.7386861387129
816,616.8146933335577
817,616.890515143301
818,616.9662011548913
819,617.0418038595767
820,617.1173782625547
821,617.1929814511901
822,617.2686721251068
823,617.3445100934664
824,617.4205557456725
825,617.4968695014899
826,617.5735112457685
827,617.6505397526464
828,617.7280121047039
829,617.805983113328
830,617.884504746605
831,617.9636255706226
832,618.043390210055
833,618.1238388343625
834,618.205006676054
835,618.2869235867576
836,618.369613635635
837,618.453094753432
838,618.5373784243201
839,618.6224694265877
840,618.7083656221229
841,618.795057793645
842,618.8825295280398
843,618.9707571442875
844,619.0597096654703
845,619.149348835612
846,619.2396291826446
847,619.3304981281823
848,619.4218961436978
849,619.5137569521739
850,619.6060077747112
851,619.6985696224722
852,619.7913576351052
853,619.8842814669604
854,619.9772457217244
855,620.0701504348837
856,620.1628916024614
857,620.2553617541226
858,620.3474505685225
859,620.4390455281257
860,620.5300326094297
861,620.6202970027539
862,620.7097238539109
863,620.7981990185683
864,620.8856098190543
865,620.9718457925379
866,621.0567994189305
867,621.1403668170309
868,621.2224483988333
869,621.3029494742697
870,621.3817808012826
871,621.4588590784231
872,621.5341073789007
873,621.6074555262134
874,621.6788404121801
875,621.748206258355
876,621.8155048215181
877,621.8806955435293
878,621.943745645534
879,622.004630166306
880,622.0633319443978
881,622.1198415436945
882,622.1741571218001
883,622.2262842403657
884,622.2762356163066
885,622.3240308132944
886,622.3696958740542
887,622.4132628953897
888,622.4547695488594
889,622.4942585507405
890,622.5317770862113
891,622.5673761949381
892,622.6011101275947
893,622.6330356841911
894,622.663211545375
895,622.691697607721
896,622.7185543336707
897,622.7438421257053
898,622.767620732121
899,622.78994868892
900,622.8108827999071
901,622.8304776558349
902,622.8487851933119
903,622.8658542946632
904,622.881730430644
905,622.8964553485761
906,622.9100668087765
907,622.9225983717477
908,622.9340792373002
909,622.944534134605
910,622.953983259722
911,622.9624422555124
912,622.9699222286927
913,622.9764297999366
914,622.9819671844751
915,622.986532301738
916,622.990118913048
917,622.9927167866693
918,622.9943118899272
