frame_number,force
0,615.0273693546802
1,615.0182545092849
2,615.0084142784576
3,614.9978179710855
4,614.9864406391849
5,614.974263334244
6,614.9612733066842
7,614.9474641503581
8,614.932835894091
9,614.91739504229
10,614.9011545668595
11,614.8841338531428
12,614.8663586033972
13,614.8478607023781
14,614.8286780504687
15,614.8088543699066
16,614.7884389889804
17,614.7674866083137
18,614.7460570528712
19,614.7242150125721
20,614.7020297727881
21,614.6795749341202
22,614.6569281200117
23,614.6341706714369
24,614.6113873293149
25,614.5886659063572
26,614.5660969502196
27,614.5437733987748
28,614.5217902259637
29,614.5002440738755
30,614.4792328650493
31,614.4588553895729
32,614.4392108639219
33,614.4203984612718
34,614.4025168150852
35,614.3856634989098
36,614.3699344860003
37,614.3554235930551
38,614.34222191326
39,614.3304172449326
40,614.3200935233368
41,614.3113302645761
42,614.30420203172
43,614.2987779341103
44,614.2951211706747
45,614.2932886268645
46,614.2933305329141
47,614.2952901891291
48,614.2992037621239
49,614.3051001542036
50,614.3130009463285
51,614.3229204134902
52,614.3348656101612
53,614.3488365227481
54,614.3648262854113
55,614.3828214548889
56,614.4028023390572
57,614.4247433731545
58,614.4486135372131
59,614.4743768082615
60,614.5019926409041
61,614.5314164694707
62,614.5626002239816
63,614.5954928511463
64,614.6300408310796
65,614.6661886805977
66,614.70387943473
67,614.743055099109
68,614.7836570668545
69,614.8256264941433
70,614.8689046289049
71,614.9134330875162
72,614.9591540755155
73,615.0060105503088
74,615.0539463262539
75,615.1029061247871
76,615.1528355738837
77,615.2036811621565
78,615.2553901537984
79,615.3079104717527
80,615.3611905577382
81,615.4151792186026
82,615.4698254686001
83,615.5250783767577
84,615.5808869278129
85,615.6371999041802
86,615.6939657947045
87,615.7511327336042
88,615.8086484704994
89,615.8664603703553
90,615.9245154408807
91,615.9827603843015
92,616.0411416699028
93,616.0996056226946
94,616.1580985221543
95,616.2165667040944
96,616.2749566588362
97,616.3332151198764
98,616.3912891388952
99,616.4491261452771
100,616.506673991076
101,616.5638809850198
102,616.6206959212609
103,616.6770681098499
104,616.7329474158878
105,616.788284312728
106,616.8430299519451
107,616.8971362504564
108,616.9505559942726
109,617.0032429585684
110,617.0551520435514
111,617.1062394237875
112,617.156462705542
113,617.205781083799
114,617.2541554892903
115,617.3015487164113
116,617.3479255245468
117,617.3932527069107
118,617.4374991220159
119,617.480635683752
120,617.5226353075838
121,617.563472812924
122,617.6031247847502
123,617.6415694002094
124,617.6787862277146
125,617.7147560063208
126,617.7494604117171
127,617.782881812764
128,617.815003020751
129,617.8458070335134
130,617.8752767779636
131,617.9033948564314
132,617.9301433037313
133,617.9555033629225
134,617.9794552883146
135,618.001978184233
136,618.0230498874697
137,618.0426469005664
138,618.0607443823299
139,618.0773162008685
140,618.092335052501
141,618.1057726471894
142,618.1175999583145
143,618.1277875322672
144,618.1363058519104
145,618.1431257475529
146,618.1482188492516
147,618.1515580742579
148,618.1531181427277
149,618.1528761134387
150,618.1508119294843
151,618.1469089622809
152,618.1411545415071
153,618.1335404592265
154,618.1240634378921
155,618.112725553558
156,618.099534607432
157,618.084504441217
158,618.0676551944449
159,618.0490135047153
160,618.0286126536041
161,618.0064926613566
162,617.9827003325216
163,617.9572892534471
164,617.9303197417538
165,617.9018587475741
166,617.8719797063518
167,617.8407623434465
168,617.8082924317788
169,617.7746615052123
170,617.73996653196
171,617.7043095534349
172,617.6677972942127
173,617.6305407483111
174,617.5926547462934
175,617.5542575068828
176,617.5154701754714
177,617.4764163502529
178,617.4372215953823
179,617.3980129399436
180,617.358918361365
181,617.3200662522576
182,617.2815848707991
183,617.2436017767116
184,617.2062432570442
185,617.169633747913
186,617.1338952597883
187,617.0991468145935
188,617.0655039027532
189,617.0330779679293
190,617.0019759270158
191,616.972299732924
192,616.9441459874229
193,616.9176056108436
194,616.8927635749337
195,616.8696987042024
196,616.8484835492409
197,616.8291843329696
198,616.8118609684415
199,616.7965671453514
200,616.783350481474
201,616.7722527342969
202,616.7633100670805
203,616.7565533628061
204,616.752008579116
205,616.7496971370456
206,616.7496363356279
207,616.7518397832225
208,616.7563178350998
209,616.7630780259211
210,616.7721254852847
211,616.7834633241681
212,616.7970929799847
213,616.8130145085943
214,616.8312268133174
215,616.8517278038267
216,616.8745144813736
217,616.8995829503621
218,616.9269283590733
219,616.9565447740483
220,616.9884249935321
221,617.0225603059573
222,617.0589402000965
223,617.0975520341234
224,617.138380671092
225,617.181408088281
226,617.22661296769
227,617.2739702747375
228,617.3234508317305
229,617.3750208919859
230,617.4286417198625
231,617.4842691816209
232,617.5418533520266
233,617.6013381420241
234,617.6626609534018
235,617.7257523665625
236,617.7905358669789
237,617.8569276150672
238,617.9248362636474
239,617.9941628266773
240,618.0648006020342
241,618.1366351499065
242,618.2095443273774
243,618.2833983788511
244,618.3580600805054
245,618.4333849350478
246,618.5092214115616
247,618.5854112249664
248,618.6617896507896
249,618.7381858730769
250,618.8144233653646
251,618.8903203058858
252,618.9656900284916
253,619.0403415105089
254,619.1140798979354
255,619.1867070669754
256,619.2580222195479
257,619.3278225099701
258,619.395903700653
259,619.4620608454713
260,619.5260889995697
261,619.5877839537718
262,619.6469429911191
263,619.7033656625539
264,619.7568545780168
265,619.8072162080355
266,619.8542616894897
267,619.8978076281087
268,619.9376768899159
269,619.9736993744602
270,620.0057127637307
271,620.0335632415786
272,620.0571061792556
273,620.0762067834021
274,620.0907407031754
275,620.1005945929526
276,620.1056666266394
277,620.1058669597494
278,620.1011181362688
279,620.0913554382822
280,620.0765271766219
281,620.0565949202951
282,620.0315336617409
283,620.0013319146976
284,619.9659917416568
285,619.925528708239
286,619.879971762263
287,619.8293630362032
288,619.7737575735327
289,619.7132229817273
290,619.6478390162356
291,619.5776970997192
292,619.5028997798172
293,619.4235601279722
294,619.3398010824703
295,619.2517547407655
296,619.1595616084961
297,619.0633698144761
298,618.9633343022202
299,618.8596160095797
300,618.7523810484637
301,618.6417998955874
302,618.5280466030923
303,618.4112980364093
304,618.2917331467324
305,618.169532285829
306,618.0448765701324
307,617.9179472991857
308,617.7889254316137
309,617.6579911204099
310,617.5253233079253
311,617.3910993790639
312,617.2554948691675
313,617.1186832216782
314,616.9808355901353
315,616.8421206790103
316,616.7027046179473
317,616.5627508642788
318,616.4224201297154
319,616.2818703289483
320,616.1412565497561
321,616.0007310447918
322,615.8604432439613
323,615.7205397838324
324,615.5811645480957
325,615.4424587118106
326,615.3045607822577
327,615.167606630176
328,615.0317295064324
329,614.8970600404667
330,614.7637262177604
331,614.6318533337873
332,614.5015639218927
333,614.3729776531051
334,614.2462112071827
335,614.1213781158568
336,613.998588580808
337,613.8779492701632
338,613.7595630979639
339,613.6435289909457
340,613.5299416462866
341,613.4188912832707
342,613.3104633915268
343,613.2047384787372
344,613.1017918214426
345,613.0016932237384
346,612.9045067899513
347,612.8102907183018
348,612.7190971227656
349,612.6309718896608
350,612.5459545737199
351,612.464078335769
352,612.38536992162
353,612.3098496804215
354,612.2375316207306
355,612.1684235031428
356,612.1025269684009
357,612.0398376990709
358,611.9803456116529
359,611.9240350752353
360,611.87088515286
361,611.8208698622848
362,611.7739584531993
363,611.7301156980178
364,611.6893021935623
365,611.6514746717205
366,611.6165863186022
367,611.5845871033353
368,611.5554241185674
369,611.5290419342741
370,611.5053829647788
371,611.4843878470508
372,611.465995827554
373,611.4501451554588
374,611.4367734808164
375,611.4258182561208
376,611.4172171387279
377,611.4109083910732
378,611.4068312760018
379,611.404926445033
380,611.4051363172886
381,611.407405446097
382,611.4116808693819
383,611.4179124393273
384,611.4260531267398
385,611.4360592958218
386,611.4478909454832
387,611.4615119138998
388,611.4768900437124
389,611.4939973057849
390,611.5128098798039
391,611.5333081905646
392,611.5554768996944
393,611.5793048534823
394,611.6047849881343
395,611.6319141941
396,611.6606931410699
397,611.6911260648144
398,611.7232205165452
399,611.7569870753957
400,611.7924390249698
401,611.8295919953656
402,611.8684635725077
403,611.9090728773533
404,611.9514401188051
405,611.995586125556
406,612.0415318630174
407,612.089297941853
408,612.1389041246048
409,612.1903688361662
410,612.2437086820972
411,612.2989379763809
412,612.3560682780576
413,612.4151079349004
414,612.4760616321016
415,612.5389299446049
416,612.6037088925838
417,612.6703895001451
418,612.7389573579237
419,612.8093921913569
420,612.8816674380843
421,612.9557498397495
422,613.0315990552159
423,613.1091673035772
424,613.1883990459107
425,613.2692307142694
426,613.3515904953408
427,613.4353981751761
428,613.5205650506751
429,613.6069939130165
430,613.6945791078696
431,613.7832066767535
432,613.8727545826885
433,613.9630930208866
434,614.054084811947
435,614.1455858716221
436,614.2374457484874
437,614.3295082194194
438,614.421611932953
439,614.5135910917824
440,614.6052761668584
441,614.6964946361901
442,614.7870717418176
443,614.8768312588655
444,614.9655962711554
445,615.0531899484768
446,615.1394363210745
447,615.2241610468698
448,615.30719216634
449,615.3883608393556
450,615.4675020582348
451,615.5444553320333
452,615.6190653385037
453,615.691182541936
454,615.7606637767989
455,615.8273727982989
456,615.891180801395
457,615.9519669094872
458,616.0096186333004
459,616.0640322998843
460,616.1151134514399
461,616.1627772138394
462,616.2069486350607
463,616.2475629941473
464,616.284566081393
465,616.3179144497483
466,616.3475756358431
467,616.3735283471825
468,616.3957626108095
469,616.414279878381
470,616.4290930830798
471,616.4402266447939
472,616.4477164212717
473,616.4516096044096
474,616.4519645624144
475,616.4488506301058
476,616.4423478507375
477,616.4325466730838
478,616.4195476072629
479,616.4034608426186
480,616.3844058315796
481,616.3625108443102
482,616.3379124989914
483,616.3107552713238
484,616.2811909854103
485,616.2493782878383
486,616.215482107847
487,616.1796731079698
488,616.1421271304542
489,616.1030246447491
490,616.0625502007613
491,616.0208918917021
492,615.9782408293102
493,615.9347906331908
494,615.8907369349558
495,615.846276896592
496,615.8016087410144
497,615.7569312913685
498,615.7124435149015
499,615.6683440674801
500,615.6248308357823
501,615.5821004751843
502,615.5403479421525
503,615.4997660206725
504,615.4605448428447
505,615.4228714038765
506,615.3869290713181
507,615.3528970880595
508,615.3209500688116
509,615.2912574903611
510,615.2639831762949
511,615.2392847770211
512,615.2173132462156
513,615.1982123157869
514,615.1821179730131
515,615.1691579449661
516,615.1594511959512
517,615.1531074430951
518,615.1502266936534
519,615.1508988057914
520,615.1552030734579
521,615.1632078359894
522,615.1749701138644
523,615.1905352727144
524,615.209936717786
525,615.2331956208421
526,615.2603206815916
527,615.2913079263093
528,615.326140546925
529,615.3647887841498
530,615.4072098581253
531,615.4533479497182
532,615.5031342349679
533,615.556486974379
534,615.6133116581436
535,615.6735012082745
536,615.7369362387003
537,615.803485373907
538,615.8730056256517
539,615.9453428264145
540,616.0203321182553
541,616.0977984961518
542,616.1775574045323
543,616.2594153838868
544,616.3431707617093
545,616.4286143801652
546,616.5155303529466
547,616.6036968454905
548,616.6928868747075
549,616.7828691255003
550,616.8734087815502
551,616.9642683676473
552,617.0552086005983
553,617.1459892453802
554,617.2363699725345
555,617.3261112119332
556,617.4149749973748
557,617.5027257964172
558,617.589131320651
559,617.6739633131765
560,617.756998311888
561,617.8380183885948
562,617.9168118644811
563,617.9931740019941
564,618.0669076726481
565,618.1378239999392
566,618.2057429764093
567,618.2704940534364
568,618.3319167015499
569,618.3898609384609
570,618.4441878221872
571,618.4947699074589
572,618.5414916639869
573,618.584249854455
574,618.622953868786
575,618.6575260103225
576,618.6879017293886
577,618.714029799944
578,618.7358724354143
579,618.7534053402608
580,618.766617694465
581,618.7755120688178
582,618.7801042697629
583,618.7804231136728
584,618.7765101317892
585,618.7684192083657
586,618.7562161553865
587,618.7399782274107
588,618.7197935798623
589,618.6957606739604
590,618.6679876316225
591,618.6365915438113
592,618.6016977356782
593,618.5634389918224
594,618.5219547456055
595,618.4773902376425
596,618.429895649556
597,618.3796252194693
598,618.3267363459867
599,618.2713886879833
600,618.2137432680657
601,618.1539615873832
602,618.0922047583088
603,618.0286326597906
604,617.963403118507
605,617.8966711177007
606,617.8285880347172
607,617.7593009076811
608,617.6889517312776
609,617.6176767813766
610,617.5456059684404
611,617.4728622202935
612,617.3995608957146
613,617.3258092314305
614,617.2517058266794
615,617.1773401714083
616,617.1027922257215
617,617.028132058921
618,616.953419556625
619,616.8787042043546
620,616.8040249553669
621,616.7294101888526
622,616.6548777619157
623,616.5804351558736
624,616.5060797153767
625,616.431798977918
626,616.3575710909369
627,616.2833653133539
628,616.2091425979897
629,616.1348562511137
630,616.0604526654665
631,615.9858721233732
632,615.911049666354
633,615.8359160263157
634,615.7603986111876
635,615.684422535791
636,615.6079116876174
637,615.5307898170795
638,615.4529816421438
639,615.3744139573791
640,615.295016736925
641,615.2147242198296
642,615.1334759652227
643,615.05121786431
644,614.9679030962913
645,614.8834930159626
646,614.7979579619591
647,614.711277976212
648,614.6234434268747
649,614.5344555282495
650,614.4443267520404
651,614.353081125055
652,614.2607544098896
653,614.1673941671796
654,614.0730597001156
655,613.9778218836151
656,613.8817628817585
657,613.7849757579856
658,613.6875639834238
659,613.5896408498529
660,613.491328795139
661,613.3927586500496
662,613.2940688159532
663,613.1954043832123
664,613.0969162004465
665,612.9987599053892
666,612.9010949284049
667,612.8040834793322
668,612.7078895271944
669,612.6126777810714
670,612.5186126796469
671,612.4258573966625
672,612.3345728695404
673,612.2449168586107
674,612.1570430446384
675,612.0711001725202
676,611.9872312487113
677,611.9055727987608
678,611.8262541895245
679,611.749397018762
680,611.6751145733259
681,611.6035113559795
682,611.5346826798923
683,611.468714329023
684,611.4056822820054
685,611.3456524971966
686,611.2886807575984
687,611.2348125761201
688,611.1840831633234
689,611.1365174607602
690,611.0921302430129
691,611.050926290299
692,611.0129006311148
693,610.978038851619
694,610.9463174661266
695,610.9177043416593
696,610.8921591691272
697,610.8696339742899
698,610.8500736626291
699,610.8334165930287
700,610.8195951752512
701,610.8085364857151
702,610.8001628954008
703,610.7943927033481
704,610.7911407693282
705,610.7903191398213
706,610.7918376622581
707,610.7956045834012
708,610.8015271283399
709,610.8095120565482
710,610.8194661908567
711,610.8312969142979
712,610.8449126291914
713,610.860223173281
714,610.8771401894659
715,610.8955774480371
716,610.9154511223485
717,610.936680020037
718,610.9591857726178
719,610.9828929871295
720,611.007729364695
721,611.0336257920599
722,611.0605164129798
723,611.08833868684
724,611.1170334424404
725,611.1465449355665
726,611.1768209191457
727,611.2078127336073
728,611.2394754222454
729,611.2717678724783
730,611.3046529797135
731,611.3380978269433
732,611.3720738707992
733,611.4065571235618
734,611.4415283200971
735,611.476973058599
736,611.5128819044751
737,611.5492504478899
738,611.5860793074412
739,611.623374075066
740,611.6611452001914
741,611.6994078137675
742,611.7381814947325
743,611.7774899827922
744,611.8173608426642
745,611.8578250863187
746,611.8989167607069
747,611.9406725086691
748,611.9831311104126
749,612.0263330125412
750,612.0703198512206
751,612.1151339758937
752,612.1608179802136
753,612.207414247272
754,612.2549645160925
755,612.3035094752555
756,612.3530883875505
757,612.4037387471601
758,612.455495968491
759,612.5083931036634
760,612.5624605842646
761,612.6177259825008
762,612.6742137869677
763,612.7319451884106
764,612.790937871007
765,612.8512058053828
766,612.9127590411442
767,612.9756034991116
768,613.0397407661274
769,613.1051678976202
770,613.1718772347164
771,613.2398562437928
772,613.3090873872378
773,613.3795480345321
774,613.4512104218425
775,613.5240416659011
776,613.598003834811
777,613.6730540756314
778,613.7491447966535
779,613.8262239010419
780,613.9042350678963
781,613.9831180770175
782,614.0628091747877
783,614.1432414799867
784,614.2243454291157
785,614.3060492604583
786,614.3882795350512
787,614.4709616915402
788,614.5540206306022
789,614.6373813227789
790,614.7209694310573
791,614.8047119370448
792,614.8885377582051
793,614.9723783438261
794,615.0561682386912
795,615.139845604979
796,615.2233526943883
797,615.3066362639771
798,615.3896479308586
799,615.4723444626434
800,615.554688002283
801,615.6366462278152
802,615.7181924496235
803,615.799305650239
804,615.8799704739173
805,615.9601771745238
806,616.0399215304146
807,616.119204734251
808,616.1980332643361
809,616.2764187424463
810,616.354377781492
811,616.4319318246854
812,616.5091069760814
813,616.5859338204469
814,616.6624472286063
815,616.7386861430431
816,616.8146933379084
817,616.8905151476703
818,616.9662011592769
819,617.041803863976
820,617.1173782669654
821,617.1929814556102
822,617.2686721295341
823,617.3445100978986
824,617.4205557501075
825,617.496869505926
826,617.5735112502047
827,617.6505397570819
828,617.7280121091384
829,617.8059831177617
830,617.8845047510389
831,617.9636255750585
832,618.0433902144947
833,618.1238388388085
834,618.2050066805095
835,618.2869235912264
836,618.3696136401213
837,618.4530947579395
838,618.5373784288523
839,618.6224694311477
840,618.7083656267129
841,618.7950577982667
842,618.882529532695
843,618.9707571489786
844,619.0597096701996
845,619.149348840382
846,619.2396291874576
847,619.33049813304
848,619.4218961486017
849,619.5137569571248
850,619.606007779709
851,619.6985696275159
852,619.7913576401925
853,619.8842814720877
854,619.9772457268871
855,620.0701504400761
856,620.162891607678
857,620.2553617593577
858,620.3474505737702
859,620.4390455333804
860,620.5300326146858
861,620.6202970080052
862,620.7097238591515
863,620.7981990237922
864,620.8856098242551
865,620.9718457977091
866,621.056799424065
867,621.1403668221215
868,621.2224484038722
869,621.3029494792488
870,621.3817808061933
871,621.4588590832562
872,621.534107383647
873,621.6074555308634
874,621.6788404167249
875,621.748206262787
876,621.8155048258303
877,621.8806955477164
878,621.943745649592
879,622.0046301702326
880,622.0633319481926
881,622.1198415473586
882,622.174157125336
883,622.2262842437771
884,622.276235619598
885,622.3240308164701
886,622.3696958771183
887,622.4132628983463
888,622.4547695517125
889,622.4942585534941
890,622.5317770888695
891,622.5673761975057
892,622.6011101300766
893,622.633035686592
894,622.6632115477001
895,622.691697609976
896,622.7185543358619
897,622.743842127839
898,622.7676207342038
899,622.7899486909587
900,622.8108828019089
901,622.8304776578075
902,622.8487851952628
903,622.8658542966002
904,622.8817304325747
905,622.8964553505084
906,622.9100668107181
907,622.9225983737059
908,622.9340792392819
909,622.9445341366167
910,622.9539832617694
911,622.9624422576004
912,622.969922230825
913,622.9764298021158
914,622.9819671867027
915,622.9865323040142
916,622.9901189153724
917,622.9927167890407
