frame_number,force
0,614.9627204464365
1,614.9480999040742
2,614.933171089372
3,614.9179372336736
4,614.9024038359693
5,614.8865787266154
6,614.8704721175768
7,614.8540966392434
8,614.837467363911
9,614.8206018160455
10,614.8035199695147
11,614.7862442320625
12,614.7687994174466
13,614.7512127058324
14,614.7335135931936
15,614.7157338305162
16,614.6979073535379
17,614.680070203687
18,614.6622604408507
19,614.6445180485259
20,614.6268848317198
21,614.6094043077331
22,614.5921215898746
23,614.575083264275
24,614.5583372601858
25,614.5419327143188
26,614.5259198298262
27,614.5103497303934
28,614.4952743096143
29,614.4807460754431
30,614.466817989305
31,614.4535432995391
32,614.4409753691818
33,614.4291674984877
34,614.4181727428734
35,614.4080437271298
36,614.3988324568377
37,614.3905901280157
38,614.383366936145
39,614.3772118858608
40,614.3721726027665
41,614.3682951489985
42,614.3656238443292
43,614.3642010946847
44,614.3640672299271
45,614.3652603525568
46,614.3678161987174
47,614.371768012577
48,614.3771464349045
49,614.3839794063874
50,614.3922920859793
51,614.4021067843132
52,614.4134429120343
53,614.4263169427755
54,614.4407423903995
55,614.4567297999982
56,614.4742867519992
57,614.4934178785817
58,614.514124891536
59,614.5364066206737
60,614.5602590618779
61,614.5856754338062
62,614.6126462421033
63,614.6411593498229
64,614.6712000526603
65,614.7027511576082
66,614.7357930637344
67,614.7703038439098
68,614.8062593264289
69,614.8436331755348
70,614.8823969698836
71,614.9225202780309
72,614.963970730177
73,615.0067140856685
74,615.0507142960806
75,615.0959335640159
76,615.1423323979761
77,615.1898696638041
78,615.2385026333175
79,615.2881870309178
80,615.3388770791368
81,615.3905255442007
82,615.4430837827159
83,615.4965017905246
84,615.5507282546972
85,615.6057106094909
86,615.6613950968812
87,615.7177268319587
88,615.7746498731475
89,615.8321072969283
90,615.890041276584
91,615.9483931644107
92,616.0071035767726
93,616.0661124812527
94,616.1253592849688
95,616.1847829230081
96,616.2443219459669
97,616.3039146057283
98,616.3634989388534
99,616.4230128472877
100,616.4823941764794
101,616.5415807913744
102,616.6005106510627
103,616.6591218830242
104,616.7173528579344
105,616.7751422657749
106,616.8324291936397
107,616.8891532053091
108,616.9452544225477
109,617.0006736081127
110,617.0553522504366
111,617.1092326496962
112,617.1622580045617
113,617.2143724985159
114,617.2655213844529
115,617.3156510663418
116,617.3647091769623
117,617.4126446509345
118,617.4594077924022
119,617.5049503368396
120,617.5492255066594
121,617.5921880606444
122,617.6337943376284
123,617.6740022952143
124,617.712771544551
125,617.7500633822184
126,617.785840820063
127,617.8200686134808
128,617.8527132883961
129,617.8837431671626
130,617.9131283938021
131,617.9408409592324
132,617.9668547273349
133,617.9911454628432
134,618.0136908621039
135,618.0344705877399
136,618.0534663081568
137,618.0706617427124
138,618.086042713254
139,618.0995972025672
140,618.1113154200044
141,618.121189874175
142,618.1292154521874
143,618.1353895045999
144,618.1397119350379
145,618.1421852933697
146,618.1428148713576
147,618.1416087996961
148,618.1385781452533
149,618.1337370071409
150,618.1271026099982
151,618.1186953926534
152,618.1085390902292
153,618.0966608078584
154,618.0830910843771
155,618.0678639445991
156,618.0510169390332
157,618.0325911702361
158,618.0126313053876
159,617.9911855750585
160,617.9683057584162
161,617.9440471551774
162,617.9184685445002
163,617.8916321308656
164,617.8636034768971
165,617.8344514230517
166,617.8042479941299
167,617.7730682926434
168,617.7409903792336
169,617.7080951405576
170,617.6744661452997
171,617.6401894891442
172,617.605353629605
173,617.5700492115608
174,617.5343688842737
175,617.4984071105772
176,617.4622599687592
177,617.4260249474619
178,617.389800733753
179,617.35368699446
180,617.3177841508534
181,617.282193146831
182,617.2470152109262
183,617.2123516127444
184,617.1783034147437
185,617.1449712205531
186,617.1124549212334
187,617.0808534409863
188,617.0502644838118
189,617.020784282565
190,616.9925073518493
191,616.9655262461841
192,616.9399313248508
193,616.9158105247644
194,616.8932491426494
195,616.8723296276708
196,616.8531313854165
197,616.8357305937805
198,616.8202000309745
199,616.806608915697
200,616.7950227593503
201,616.7855032300754
202,616.7781080282141
203,616.772890772713
204,616.769900897922
205,616.7691835601946
206,616.7707795535982
207,616.774725233862
208,616.7810524495083
209,616.7897884789797
210,616.8009559725048
211,616.8145728973891
212,616.8306524853978
213,616.8492031809678
214,616.8702285892182
215,616.8937274231004
216,616.919693449518
217,616.9481154347151
218,616.9789770896056
219,617.0122570159414
220,617.0479286543178
221,617.0859602350818
222,617.1263147332783
223,617.1689498288405
224,617.2138178732389
225,617.2608658637811
226,617.3100354267059
227,617.3612628101627
228,617.4144788880707
229,617.4696091757359
230,617.5265738579869
231,617.5852878305193
232,617.6456607551019
233,617.7075971293281
234,617.7709963716422
235,617.835752922365
236,617.9017563613322
237,617.9688915426127
238,618.0370387466543
239,618.1060738501047
240,618.1758685133937
241,618.2462903859565
242,618.3172033288098
243,618.3884676540205
244,618.4599403803762
245,618.5314755042616
246,618.6029242845076
247,618.6741355399091
248,618.7449559582329
249,618.8152304157998
250,618.8848023069802
251,618.9535138830871
252,619.0212066001639
253,619.0877214751025
254,619.1528994493937
255,619.216581759594
256,619.2786103133931
257,619.3388280700852
258,619.3970794243246
259,619.4532105921487
260,619.5070699982604
261,619.5585086634729
262,619.607380591136
263,619.6535431512908
264,619.6968574612084
265,619.73718876081
266,619.774406781289
267,619.8083861051197
268,619.8390065156043
269,619.8661533342255
270,619.8897177442379
271,619.9095970990948
272,619.9256952144409
273,619.9379226425449
274,619.9461969281246
275,619.9504428445309
276,619.9505926092415
277,619.946586077678
278,619.938370914528
279,619.925902741934
280,619.9091452640035
281,619.8880703670756
282,619.8626581951365
283,619.8328971997997
284,619.7987841643386
285,619.7603242013741
286,619.7175307239321
287,619.6704253897674
288,619.6190380191565
289,619.5634064867272
290,619.5035765881607
291,619.4396018826507
292,619.3715435119129
293,619.2994699964903
294,619.2234570102299
295,619.1435871341198
296,619.0599495910355
297,618.972639963247
298,618.8817598947514
299,618.7874167806721
300,618.6897234460523
301,618.5887978162617
302,618.4847625809685
303,618.3777448534559
304,618.2678758270785
305,618.1552904307242
306,618.0401269850516
307,617.9225268610273
308,617.8026341420361
309,617.6805952906483
310,617.556558820938
311,617.4306749769909
312,617.3030954179487
313,617.1739729097449
314,617.0434610236002
315,616.9117138413291
316,616.778885667494
317,616.6451307484783
318,616.5106029986597
319,616.3754557341013
320,616.2398414144058
321,616.1039113934311
322,615.9678156793617
323,615.8317027042606
324,615.6957191028602
325,615.5600095001415
326,615.4247163072238
327,615.2899795251815
328,615.1559365565483
329,615.0227220243981
330,614.8904675989842
331,614.7593018319019
332,614.6293499977008
333,614.5007339429042
334,614.3735719425302
335,614.2479785643998
336,614.1240645416807
337,614.0019366542587
338,613.8816976195657
339,613.7634459934442
340,613.6472760814858
341,613.5332778611481
342,613.4215369148712
343,613.3121343744075
344,613.2051468766423
345,613.1006465313031
346,612.9987009010979
347,612.8993729949103
348,612.8027212746796
349,612.7087996764585
350,612.6176576458754
351,612.5293401878288
352,612.4438879298725
353,612.361337198533
354,612.2817201077825
355,612.2050646589483
356,612.1313948513284
357,612.0607308026531
358,611.9930888783526
359,611.9284818284697
360,611.8669189310574
361,611.8084061409672
362,611.7529462429761
363,611.7005390082116
364,611.6511813528632
365,611.6048674982735
366,611.5615891317111
367,611.521335567359
368,611.4840939071913
369,611.4498492013649
370,611.4185846075329
371,611.3902815482612
372,611.3649198656393
373,611.3424779722777
374,611.3229329980234
375,611.3062609317304
376,611.2924367573268
377,611.2814345833776
378,611.2732277654386
379,611.2677890206014
380,611.2650905336601
381,611.2651040542727
382,611.267800984413
383,611.2731524553693
384,611.2811293935785
385,611.2917025746783
386,611.3048426652609
387,611.3205202519384
388,611.3387058574757
389,611.3593699438652
390,611.3824829023154
391,611.4080150302476
392,611.4359364955698
393,611.4662172886622
394,611.4988271626477
395,611.5337355625992
396,611.5709115443776
397,611.6103236837657
398,611.6519399765365
399,611.6957277301098
400,611.7416534475341
401,611.7896827046175
402,611.8397800211147
403,611.8919087269998
404,611.9460308250409
405,612.0021068511028
406,612.0600957337357
407,612.1199546546704
408,612.1816389118313
409,612.24510178638
410,612.3102944150519
411,612.3771656687086
412,612.4456620377184
413,612.5157275245832
414,612.5873035441806
415,612.6603288320574
416,612.7347393612974
417,612.810468268535
418,612.8874457897286
419,612.9655992064223
420,613.0448528034079
421,613.1251278389059
422,613.2063425285734
423,613.2884120447827
424,613.3712485326381
425,613.4547611440797
426,613.5388560912199
427,613.6234367198568
428,613.7084036039475
429,613.7936546616979
430,613.8790852938135
431,613.9645885443285
432,614.0500552841994
433,614.1353744174587
434,614.2204331092121
435,614.3051170342347
436,614.3893106444868
437,614.4728974536148
438,614.5557603364734
439,614.6377818418147
440,614.7188445164022
441,614.7988312388533
442,614.8776255615143
443,614.9551120586971
444,615.0311766796409
445,615.1057071046196
446,615.1785931026452
447,615.2497268891872
448,615.3190034822238
449,615.3863210548386
450,615.4515812825565
451,615.5146896837103
452,615.5755559513195
453,615.6340942752055
454,615.6902236533125
455,615.7438681913737
456,615.7949573901371
457,615.8434264193388
458,615.88921637754
459,615.9322745368898
460,615.9725545718761
461,616.0100167711885
462,616.0446282319028
463,616.0763630352948
464,616.1052024036488
465,616.1311348373868
466,616.1541562316676
467,616.1742699714202
468,616.1914870036527
469,616.2058258858972
470,616.2173128097794
471,616.2259815989055
472,616.2318736805057
473,616.2350380305382
474,616.2355310922486
475,616.2334166684569
476,616.2287657880751
477,616.2216565474739
478,616.212173927356
479,616.2004095858418
480,616.186461628629
481,616.1704343572775
482,616.1524379967464
483,616.1325884032021
484,616.1110067529888
485,616.0878192136677
486,616.0631565982408
487,616.0371540039398
488,616.009950437144
489,615.9816884260414
490,615.95251362262
491,615.9225743954977
492,615.8920214150045
493,615.8610072318269
494,615.829685850415
495,615.7982122982121
496,615.7667421915925
497,615.7354312992284
498,615.7044351035227
499,615.6739083607973
500,615.6440046610677
501,615.6148759883777
502,615.5866722827815
503,615.5595410051571
504,615.5336267061095
505,615.509070600225
506,615.4860101468724
507,615.4645786386797
508,615.444904798816
509,615.4271123882662
510,615.4113198242992
511,615.3976398113172
512,615.3861789852722
513,615.3770375729233
514,615.3703090673736
515,615.3660799214761
516,615.3644292607236
517,615.3654286170963
518,615.3691416850653
519,615.3756241006347
520,615.38492324408
521,615.397078066971
522,615.4121189441051
523,615.430067550997
524,615.450936767502
525,615.4747306080493
526,615.5014441788949
527,615.5310636628
528,615.5635663315511
529,615.5989205866942
530,615.6370860287632
531,615.6780135551553
532,615.7216454866439
533,615.7679157223247
534,615.8167499226355
535,615.8680657200001
536,615.9217729565823
537,615.9777739485031
538,616.0359637756604
539,616.0962305961089
540,616.1584559838956
541,616.2225152892441
542,616.2882780198785
543,616.3556082419746
544,616.42436499882
545,616.4944027449673
546,616.565571793633
547,616.6377187753083
548,616.7106871057783
549,616.784317461896
550,616.8584482634529
551,616.9329161594618
552,617.0075565171168
553,617.0822039116547
554,617.1566926152486
555,617.230857082957
556,617.3045324336764
557,617.3775549240582
558,617.4497624134874
559,617.5209948184662
560,617.591094555036
561,617.659906968109
562,617.7272807466906
563,617.793068323969
564,617.8571262612222
565,617.9193156145072
566,617.9795022831403
567,618.0375573389821
568,618.0933573355001
569,618.1467845955715
570,618.1977274770917
571,618.2460806156396
572,618.2917451435867
573,618.3346288850169
574,618.3746465257254
575,618.4117197575259
576,618.4457773961475
577,618.4767554721262
578,618.5045972942254
579,618.5292534850672
580,618.5506819888249
581,618.5688480509972
582,618.5837241704884
583,618.5952900244391
584,618.6035323665166
585,618.608444899619
586,618.6100281241297
587,618.6082891629401
588,618.6032415644902
589,618.5949050851075
590,618.5833054519945
591,618.5684741082778
592,618.5504479415521
593,618.5292689973857
594,618.5049841793618
595,618.4776449374205
596,618.4473069464111
597,618.4140297768349
598,618.3778765597939
599,618.338913648249
600,618.297210276753
601,618.2528382217891
602,618.2058714646704
603,618.1563858586965
604,618.1044588020044
605,618.0501689173478
606,617.9935957398835
607,617.934819413919
608,617.8739203994654
609,617.8109791893578
610,617.7460760376761
611,617.6792907002323
612,617.6107021879484
613,617.5403885340379
614,617.468426576057
615,617.394891754086
616,617.3198579264404
617,617.2433972043448
618,617.1655798069464
619,617.0864739379624
620,617.0061456850982
621,616.9246589430737
622,616.8420753606559
623,616.7584543116266
624,616.6738528892686
625,616.5883259237651
626,616.5019260217875
627,616.4147036274429
628,616.3267071036414
629,616.237982832865
630,616.148575336283
631,616.0585274101555
632,615.9678802783972
633,615.8766737599558
634,615.7849464493307
635,615.6927359082395
636,615.6000788662757
637,615.5070114283685
638,615.4135692868947
639,615.3197879363089
640,615.2257028880854
641,615.1313498836298
642,615.0367651026959
643,614.9419853647948
644,614.8470483211231
645,614.7519926346533
646,614.6568581462293
647,614.5616860247633
648,614.4665188999062
649,614.3714009757801
650,614.2763781245199
651,614.1814979585263
652,614.0868098805834
653,613.992365111324
654,613.8982166938783
655,613.8044194758261
656,613.7110300688012
657,613.618106786275
658,613.5257095602243
659,613.4338998376026
660,613.3427404577733
661,613.2522955122656
662,613.1626301883502
663,613.0738105980247
664,612.9859035940991
665,612.8989765751932
666,612.8130972815478
667,612.7283335835384
668,612.6447532646588
669,612.5624238006092
670,612.4814121360386
671,612.4017844604837
672,612.323605985067
673,612.2469407215613
674,612.1718512654725
675,612.0983985848274
676,612.0266418163104
677,611.9566380702356
678,611.8884422455814
679,611.822106856054
680,611.7576818679241
681,611.695214550204
682,611.6347493375763
683,611.5763277063484
684,611.5199880635921
685,611.4657656496084
686,611.4136924539666
687,611.3637971455751
688,611.3161050174307
689,611.2706379467897
690,611.2274143714584
691,611.1864492826921
692,611.1477542348164
693,611.1113373712561
694,611.0772034662983
695,611.0453539816689
696,611.0157871369108
697,610.988497992584
698,610.9634785454
699,610.940717834468
700,610.9202020577993
701,610.9019146981117
702,610.8858366568447
703,610.8719463952115
704,610.8602200810947
705,610.8506317406399
706,610.8431534134845
707,610.8377553106615
708,610.8344059742725
709,610.8330724380094
710,610.8337203874956
711,610.836314319288
712,610.840817697284
713,610.8471931053347
714,610.8554023950946
715,610.8654068284669
716,610.8771672142766
717,610.8906440389788
718,610.9057975913055
719,610.9225880808876
720,610.9409757510646
721,610.9609209862679
722,610.9823844145027
723,611.005327005535
724,611.0297101654919
725,611.0554958287026
726,611.082646547656
727,611.1111255818171
728,611.1408969856848
729,611.1719256959672
730,611.204177617206
731,611.2376197047214
732,611.2722200434503
733,611.307947921117
734,611.3447738941342
735,611.3826698446518
736,611.4216090272728
737,611.4615661041416
738,611.5025171674195
739,611.5444397485487
740,611.5873128141418
741,611.6311167487191
742,611.6758333248121
743,611.7214456611543
744,611.7679381698877
745,611.8152964939151
746,611.8635074356932
747,611.9125588787971
748,611.9624397035687
749,612.0131396981163
750,612.0646494658887
751,612.116960331038
752,612.1700642428202
753,612.2239536803507
754,612.2786215590114
755,612.3340611396602
756,612.390265941516
757,612.4472296592585
758,612.5049460845479
759,612.5634090318661
760,612.6226122683793
761,612.6825494474419
762,612.7432140453533
763,612.8045993009866
764,612.8666981579091
765,612.9295032086843
766,612.9930066412419
767,613.0572001875058
768,613.1220750748149
769,613.1876219809648
770,613.2538309938919
771,613.3206915771488
772,613.388192542406
773,613.4563220302439
774,613.525067500336
775,613.5944157317767
776,613.6643528338368
777,613.7348642670316
778,613.8059348740908
779,613.8775489202227
780,613.949690141966
781,614.022341803925
782,614.0954867628262
783,614.1691075385111
784,614.2431863915622
785,614.3177054072066
786,614.3926465849805
787,614.4679919334675
788,614.5437235692384
789,614.6198238188629
790,614.6962753225174
791,614.773061137374
792,614.8501648387657
793,614.9275706171607
794,615.0052633691618
795,615.0832287809747
796,615.161453403
797,615.2399247144294
798,615.3186311769646
799,615.3975622770397
800,615.476708556193
801,615.5560616295044
802,615.6356141923355
803,615.7153600159603
804,615.7952939330067
805,615.8754118138355
806,615.955710535027
807,616.0361879410768
808,616.1168428002399
809,616.1976747552693
810,616.2786842696004
811,616.3598725693257
812,616.4412415810916
813,616.5227938658021
814,616.6045325477976
815,616.6864612390112
816,616.7685839575394
817,616.8509050400966
818,616.9334290479329
819,617.0161606659813
820,617.0991045952998
821,617.1822654392373
822,617.265647584116
823,617.349255075508
824,617.4330914913193
825,617.5171598128583
826,617.6014622949639
827,617.6860003362162
828,617.770774350337
829,617.8557836399842
830,617.9410262741466
831,618.026498970269
832,618.1121969822309
833,618.1981139953366
834,618.2842420294827
835,618.3705713515463
836,618.4570903978475
837,618.5437857073462
838,618.6306418660511
839,618.7176414629376
840,618.8047650574911
841,618.8919911588256
842,618.9792962162147
843,619.0666546208577
844,619.1540387188088
845,619.2414188351436
846,619.3287633094724
847,619.4160385427999
848,619.5032090555469
849,619.5902375564481
850,619.6770850220679
851,619.7637107867691
852,619.8500726430507
853,619.9361269521653
854,620.0218287648133
855,620.1071319515157
856,620.1919893421218
857,620.2763528738391
858,620.360173747128
859,620.443402588705
860,620.5259896207061
861,620.607884834817
862,620.6890381699122
863,620.7693996915438
864,620.8489197714695
865,620.9275492653079
866,621.005239686326
867,621.0819433734091
868,621.1576136514576
869,621.2322049828001
870,621.3056731085845
871,621.3779751794498
872,621.4490698750374
873,621.5189175120902
874,621.5874801410095
875,621.6547216307861
876,621.7206077422118
877,621.7851061892519
878,621.8481866884472
879,621.909820996217
880,621.969982933951
881,622.0286484007986
882,622.0857953740731
883,622.1414038971744
884,622.1954560549458
885,622.2479359364683
886,622.298829585482
887,622.348124938846
888,622.3958117536092
889,622.4418815233926
890,622.4863273849801
891,622.5291440163501
892,622.5703275277192
893,622.6098753473754
894,622.647786104129
895,622.6840595082047
896,622.7186962323572
897,622.7516977948549
898,622.7830664456746
899,622.8128050568611
900,622.8409170176709
901,622.8674061349495
902,622.8922765391615
903,622.9155325965565
904,622.9371788280419
905,622.9572198354072
906,622.9756602355797
907,622.9925046035129
908,623.0077574241167
909,623.0214230533171
910,623.033505687975
911,623.0440093441447
912,623.0529378431106
913,623.060294804768
914,623.0660836481035
915,623.070307598653
916,623.072969702853
917,623.07407284921
