frame_number,force
0,614.9627204403214
1,614.9480998979054
2,614.9331710831497
3,614.9179372273992
4,614.9024038296457
5,614.8865787202465
6,614.8704721111668
7,614.8540966327968
8,614.8374673574317
9,614.8206018095376
10,614.8035199629821
11,614.7862442255093
12,614.7687994108763
13,614.7512126992482
14,614.733513586599
15,614.7157338239142
16,614.6979073469311
17,614.6800701970776
18,614.6622604342405
19,614.6445180419161
20,614.626884825111
21,614.6094043011257
22,614.5921215832689
23,614.5750832576715
24,614.558337253585
25,614.5419327077213
26,614.5259198232328
27,614.5103497238051
28,614.4952743030321
29,614.4807460688675
30,614.4668179827357
31,614.4535432929758
32,614.440975362624
33,614.4291674919347
34,614.418172736324
35,614.4080437205822
36,614.3988324502895
37,614.3905901214642
38,614.3833669295869
39,614.3772118792926
40,614.3721725961844
41,614.368295142399
42,614.3656238377084
43,614.364201088039
44,614.3640672232522
45,614.3652603458488
46,614.3678161919719
47,614.3717680057895
48,614.3771464280698
49,614.3839793994996
50,614.3922920790318
51,614.4021067772991
52,614.4134429049466
53,614.4263169356077
54,614.4407423831452
55,614.4567297926519
56,614.4742867445555
57,614.4934178710354
58,614.5141248838823
59,614.536406612908
60,614.5602590539952
61,614.5856754258015
62,614.6126462339715
63,614.6411593415589
64,614.6712000442589
65,614.7027511490637
66,614.7357930550411
67,614.7703038350616
68,614.8062593174199
69,614.8436331663597
70,614.8823969605376
71,614.9225202685094
72,614.9639707204765
73,615.0067140757865
74,615.0507142860156
75,615.0959335537672
76,615.1423323875439
77,615.1898696531892
78,615.2385026225211
79,615.288187019941
80,615.3388770679809
81,615.390525532867
82,615.4430837712049
83,615.4965017788364
84,615.5507282428314
85,615.6057105974463
86,615.6613950846565
87,615.7177268195524
88,615.7746498605578
89,615.8321072841538
90,615.8900412636241
91,615.9483931512649
92,616.0071035634411
93,616.0661124677371
94,616.1253592712718
95,616.184782909134
96,616.2443219319209
97,616.3039145915167
98,616.3634989244831
99,616.4230128327669
100,616.4823941618162
101,616.5415807765773
102,616.6005106361405
103,616.6591218679858
104,616.7173528427891
105,616.775142250532
106,616.8324291783088
107,616.8891531899002
108,616.9452544070712
109,617.0006735925796
110,617.0553522348583
111,617.109232634085
112,617.16225798893
113,617.2143724828765
114,617.2655213688187
115,617.3156510507262
116,617.3647091613791
117,617.4126446353985
118,617.459407776929
119,617.5049503214454
120,617.5492254913615
121,617.5921880454608
122,617.6337943225774
123,617.6740022803142
124,617.7127715298201
125,617.7500633676751
126,617.7858408057258
127,617.8200685993684
128,617.8527132745265
129,617.8837431535537
130,617.9131283804711
131,617.9408409461957
132,617.9668547146084
133,617.9911454504424
134,618.0136908500439
135,618.0344705760351
136,618.0534662968213
137,618.0706617317592
138,618.0860427026946
139,618.0995971924125
140,618.1113154102638
141,618.121189864857
142,618.1292154432991
143,618.1353894961472
144,618.1397119270246
145,618.142185285797
146,618.1428148642248
147,618.1416087930002
148,618.1385781389894
149,618.1337370013023
150,618.1271026045765
151,618.1186953876381
152,618.1085390856081
153,618.096660803617
154,618.0830910804992
155,618.0678639410667
156,618.0510169358266
157,618.0325911673351
158,618.0126313027711
159,617.9911855727046
160,617.9683057563028
161,617.944047153282
162,617.9184685428011
163,617.8916321293415
164,617.8636034755274
165,617.8344514218154
166,617.8042479930057
167,617.7730682916098
168,617.7409903782692
169,617.7080951396414
170,617.674466144411
171,617.6401894882632
172,617.6053536287129
173,617.5700492106396
174,617.534368883306
175,617.4984071095458
176,617.4622599676477
177,617.4260249462544
178,617.3898007324349
179,617.3536869930181
180,617.317784149276
181,617.282193145108
182,617.2470152090484
183,617.212351610704
184,617.1783034125339
185,617.1449712181682
186,617.1124549186686
187,617.0808534382377
188,617.0502644808759
189,617.0207842794384
190,616.9925073485291
191,616.9655262426672
192,616.9399313211337
193,616.9158105208428
194,616.8932491385185
195,616.8723296233258
196,616.8531313808527
197,616.8357305889931
198,616.8202000259595
199,616.8066089104504
200,616.7950227538697
201,616.7855032243588
202,616.7781080222605
203,616.7728907665227
204,616.7699008914954
205,616.7691835535326
206,616.7707795467014
207,616.7747252267316
208,616.7810524421458
209,616.789788471387
210,616.8009559646839
211,616.814572889342
212,616.8306524771261
213,616.8492031724729
214,616.8702285805011
215,616.8937274141629
216,616.919693440362
217,616.9481154253425
218,616.9789770800186
219,617.0122570061426
220,617.04792864431
221,617.0859602248677
222,617.1263147228615
223,617.1689498182251
224,617.2138178624297
225,617.2608658527836
226,617.310035415527
227,617.3612627988098
228,617.4144788765515
229,617.4696091640579
230,617.526573846158
231,617.5852878185469
232,617.645660742993
233,617.707597117089
234,617.7709963592787
235,617.835752909882
236,617.9017563487344
237,617.9688915299042
238,618.0370387338387
239,618.1060738371852
240,618.1758685003739
241,618.2462903728408
242,618.317203315603
243,618.3884676407285
244,618.4599403670057
245,618.5314754908198
246,618.6029242710028
247,618.6741355263505
248,618.7449559446304
249,618.8152304021643
250,618.8848022933236
251,618.9535138694223
252,619.0212065865048
253,619.087721461464
254,619.1528994357906
255,619.2165817460418
256,619.2786102999081
257,619.3388280566843
258,619.3970794110254
259,619.4532105789699
260,619.507069985221
261,619.5585086505926
262,619.607380578434
263,619.653543138786
264,619.6968574489185
265,619.7371887487516
266,619.7744067694777
267,619.8083860935698
268,619.8390065043291
269,619.8661533232364
270,619.8897177335447
271,619.909597088705
272,619.9256952043603
273,619.9379226327773
274,619.9461969186725
275,619.9504428353963
276,619.9505926004252
277,619.9465860691795
278,619.9383709063453
279,619.9259027340642
280,619.9091452564425
281,619.8880703598179
282,619.8626581881764
283,619.8328971931305
284,619.7987841579529
285,619.760324195264
286,619.7175307180894
287,619.6704253841834
288,619.6190380138221
289,619.5634064816325
290,619.5035765832947
291,619.4396018780011
292,619.371543507466
293,619.299469992231
294,619.2234570061428
295,619.1435871301885
296,619.0599495872431
297,618.972639959576
298,618.881759891184
299,618.7874167771902
300,618.6897234426384
301,618.5887978128983
302,618.4847625776381
303,618.377744850141
304,618.2678758237621
305,618.1552904273899
306,618.0401269816839
307,617.9225268576116
308,617.8026341385585
309,617.680595287095
310,617.5565588172964
311,617.4306749732485
312,617.3030954140929
313,617.1739729057628
314,617.0434610194787
315,616.9117138370548
316,616.7788856630535
317,616.6451307438584
318,616.5106029938476
319,616.3754557290847
320,616.2398414091736
321,616.103911387973
322,615.9678156736688
323,615.8317026983258
324,615.6957190966787
325,615.5600094937106
326,615.4247163005423
327,615.2899795182501
328,615.1559365493691
329,615.0227220169745
330,614.8904675913205
331,614.759301824004
332,614.6293499895756
333,614.5007339345597
334,614.3735719339753
335,614.2479785556437
336,614.1240645327332
337,614.0019366451296
338,613.8816976102652
339,613.7634459839823
340,613.6472760718722
341,613.5332778513921
342,613.4215369049813
343,613.3121343643916
344,613.2051468665082
345,613.1006465210589
346,612.9987008907513
347,612.8993729844688
348,612.8027212641498
349,612.7087996658469
350,612.6176576351879
351,612.5293401770712
352,612.4438879190498
353,612.3613371876495
354,612.2817200968424
355,612.205064647955
356,612.1313948402844
357,612.0607307915602
358,611.9930888672124
359,611.9284818172836
360,611.8669189198274
361,611.8084061296954
362,611.7529462316645
363,611.7005389968627
364,611.65118134148
365,611.6048674868589
366,611.5615891202682
367,611.5213355558909
368,611.4840938957016
369,611.4498491898568
370,611.4185845960099
371,611.3902815367265
372,611.3649198540958
373,611.3424779607274
374,611.3229329864678
375,611.3062609201711
376,611.2924367457651
377,611.2814345718152
378,611.2732277538776
379,611.2677890090442
380,611.2650905221092
381,611.2651040427302
382,611.2678009728811
383,611.2731524438497
384,611.2811293820725
385,611.2917025631876
386,611.3048426537869
387,611.3205202404821
388,611.3387058460381
389,611.3593699324474
390,611.3824828909181
391,611.4080150188717
392,611.4359364842156
393,611.4662172773307
394,611.4988271513392
395,611.5337355513143
396,611.5709115331167
397,611.6103236725295
398,611.6519399653253
399,611.6957277189233
400,611.7416534363716
401,611.7896826934779
402,611.8397800099967
403,611.8919087159018
404,611.9460308139604
405,612.0021068400364
406,612.0600957226793
407,612.1199546436194
408,612.1816389007806
409,612.2451017753244
410,612.3102944039858
411,612.3771656576265
412,612.4456620266149
413,612.5157275134528
414,612.587303533018
415,612.6603288208572
416,612.7347393500542
417,612.8104682572433
418,612.887445778383
419,612.9655991950168
420,613.044852791936
421,613.1251278273614
422,613.2063425169509
423,613.2884120330779
424,613.3712485208475
425,613.454761132201
426,613.538856079252
427,613.6234367077993
428,613.7084035918007
429,613.7936546494626
430,613.8790852814913
431,613.9645885319212
432,614.0500552717092
433,614.1353744048884
434,614.2204330965652
435,614.3051170215161
436,614.3893106317021
437,614.4728974407702
438,614.5557603235759
439,614.6377818288713
440,614.7188445034204
441,614.7988312258409
442,614.8776255484802
443,614.9551120456509
444,615.0311766665934
445,615.1057070915825
446,615.1785930896314
447,615.2497268762102
448,615.3190034692977
449,615.3863210419777
450,615.4515812697749
451,615.5146896710222
452,615.5755559387383
453,615.6340942627438
454,615.6902236409823
455,615.7438681791857
456,615.7949573781009
457,615.8434264074627
458,615.8892163658318
459,615.9322745253563
460,615.9725545605238
461,616.0100167600237
462,616.0446282209317
463,616.0763630245227
464,616.105202393081
465,616.1311348270275
466,616.1541562215208
467,616.1742699614892
468,616.1914869939403
469,616.2058258764055
470,616.2173128005093
471,616.2259815898573
472,616.2318736716793
473,616.2350380219333
474,616.2355310838642
475,616.2334166602915
476,616.2287657801262
477,616.2216565397381
478,616.2121739198288
479,616.2004095785184
480,616.186461621504
481,616.1704343503457
482,616.152437990002
483,616.1325883966391
484,616.111006746601
485,616.087819207449
486,616.0631565921852
487,616.0371539980418
488,616.0099504313986
489,615.9816884204442
490,615.9525136171667
491,615.9225743901835
492,615.8920214098249
493,615.861007226778
494,615.8296858454935
495,615.7982122934147
496,615.7667421869158
497,615.7354312946686
498,615.7044350990757
499,615.6739083564586
500,615.6440046568323
501,615.6148759842404
502,615.5866722787371
503,615.5595410012005
504,615.5336267022358
505,615.5090705964294
506,615.4860101431508
507,615.4645786350276
508,615.4449047952295
509,615.4271123847418
510,615.4113198208339
511,615.3976398079083
512,615.3861789819169
513,615.377037569619
514,615.3703090641176
515,615.3660799182657
516,615.3644292575552
517,615.3654286139654
518,615.3691416819664
519,615.3756240975619
520,615.3849232410262
521,615.3970780639283
522,615.4121189410661
523,615.4300675479541
524,615.4509367644482
525,615.4747306049784
526,615.5014441758007
527,615.531063659676
528,615.5635663283904
529,615.598920583489
530,615.6370860255045
531,615.6780135518336
532,615.7216454832488
533,615.7679157188448
534,615.8167499190587
535,615.8680657163133
536,615.9217729527711
537,615.9777739445519
538,616.0359637715527
539,616.0962305918275
540,616.1584559794227
541,616.2225152845614
542,616.2882780149674
543,616.355608236817
544,616.4243649933987
545,616.4944027392658
546,616.565571787636
547,616.6377187690014
548,616.7106870991485
549,616.7843174549315
550,616.8584482561439
551,616.9329161517996
552,617.0075565090943
553,617.0822039032665
554,617.1566926064912
555,617.230857073829
556,617.3045324241785
557,617.3775549141928
558,617.4497624032585
559,617.5209948078792
560,617.5910945440975
561,617.6599069568265
562,617.7272807350726
563,617.7930683120253
564,617.8571262489635
565,617.9193156019445
566,617.9795022702851
567,618.0375573258466
568,618.0933573220965
569,618.1467845819122
570,618.1977274631892
571,618.2460806015062
572,618.2917451292348
573,618.3346288704588
574,618.3746465109738
575,618.4117197425929
576,618.445777381045
577,618.4767554568656
578,618.5045972788174
579,618.5292534695224
580,618.5506819731531
581,618.5688480352086
582,618.5837241545928
583,618.5952900084461
584,618.6035323504353
585,618.6084448834581
586,618.610028107897
587,618.6082891466433
588,618.6032415481365
589,618.5949050687036
590,618.583305435547
591,618.5684740917931
592,618.550447925037
593,618.5292689808477
594,618.5049841628093
595,618.4776449208621
596,618.4473069298562
597,618.4140297602922
598,618.3778765432721
599,618.3389136317564
600,618.2972102602978
601,618.2528382053789
602,618.2058714483127
603,618.1563858423984
604,618.1044587857729
605,618.0501689011895
606,617.9935957238052
607,617.9348193979273
608,617.8739203835667
609,617.810979173558
610,617.7460760219814
611,617.6792906846487
612,617.6107021724816
613,617.5403885186936
614,617.4684265608407
615,617.3948917390029
616,617.3198579114953
617,617.2433971895422
618,617.1655797922904
619,617.0864739234563
620,617.0061456707444
621,616.9246589288744
622,616.8420753466123
623,616.7584542977393
624,616.673852875538
625,616.5883259101918
626,616.5019260083717
627,616.4147036141846
628,616.3267070905406
629,616.2379828199214
630,616.1485753234964
631,616.058527397526
632,615.967880265925
633,615.8766737476421
634,615.784946437177
635,615.6927358962475
636,615.6000788544471
637,615.5070114167052
638,615.4135692753989
639,615.3197879249833
640,615.2257028769324
641,615.1313498726514
642,615.036765091894
643,614.9419853541714
644,614.8470483106804
645,614.7519926243949
646,614.6568581361595
647,614.5616860148866
648,614.4665188902269
649,614.3714009663022
650,614.2763781152465
651,614.1814979494601
652,614.0868098717259
653,613.9923651026762
654,613.8982166854402
655,613.8044194675969
656,613.7110300607794
657,613.6181067784582
658,613.5257095526093
659,613.4338998301855
660,613.3427404505495
661,613.2522955052295
662,613.1626301814955
663,613.0738105913443
664,612.9859035875858
665,612.8989765688391
666,612.8130972753444
667,612.7283335774761
668,612.6447532587266
669,612.5624237947943
670,612.4814121303265
671,612.4017844548582
672,612.3236059795111
673,612.2469407160573
674,612.1718512600029
675,612.0983985793742
676,612.026641810856
677,611.9566380647624
678,611.8884422400727
679,611.8221068504936
680,611.757681862296
681,611.6952145444924
682,611.6347493317666
683,611.5763277004269
684,611.5199880575462
685,611.4657656434267
686,611.413692447639
687,611.3637971390931
688,611.316105010787
689,611.2706379399779
690,611.2274143644728
691,611.1864492755283
692,611.1477542274705
693,611.111337363725
694,611.0772034585796
695,611.0453539737604
696,611.0157871288108
697,610.9884979842906
698,610.9634785369118
699,610.9407178257838
700,610.9202020489182
701,610.9019146890329
702,610.885836647568
703,610.8719463857373
704,610.860220071424
705,610.8506317307749
706,610.8431534034283
707,610.8377553004176
708,610.834405963845
709,610.8330724274025
710,610.8337203767136
711,610.8363143083354
712,610.8408176861657
713,610.8471930940553
714,610.8554023836589
715,610.865406816879
716,610.8771672025408
717,610.890644027099
718,610.9057975792857
719,610.9225880687324
720,610.9409757387783
721,610.9609209738555
722,610.9823844019694
723,611.005326992886
724,611.0297101527328
725,611.0554958158393
726,611.0826465346947
727,611.1111255687641
728,611.1408969725462
729,611.1719256827485
730,611.204177603912
731,611.2376196913564
732,611.2722200300187
733,611.3079479076234
734,611.344773880583
735,611.3826698310482
736,611.4216090136224
737,611.4615660904504
738,611.5025171536938
739,611.5444397347949
740,611.587312800366
741,611.631116734928
742,611.6758333110125
743,611.7214456473538
744,611.7679381560935
745,611.8152964801344
746,611.8635074219329
747,611.9125588650636
748,611.9624396898676
749,612.013139684452
750,612.064649452265
751,612.1169603174579
752,612.170064229286
753,612.2239536668635
754,612.2786215455712
755,612.3340611262659
756,612.390265928165
757,612.4472296459478
758,612.5049460712734
759,612.5634090186232
760,612.622612255164
761,612.6825494342493
762,612.7432140321778
763,612.8045992878218
764,612.8666981447477
765,612.9295031955186
766,612.993006628064
767,613.0572001743075
768,613.1220750615875
769,613.1876219676996
770,613.2538309805809
771,613.3206915637842
772,613.38819252898
773,613.4563220167479
774,613.5250674867615
775,613.5944157181145
776,613.6643528200776
777,613.7348642531663
778,613.8059348601098
779,613.877548906117
780,613.9496901277266
781,614.022341789543
782,614.0954867482932
783,614.1691075238185
784,614.2431863767018
785,614.3177053921704
786,614.3926465697612
787,614.4679919180584
788,614.5437235536335
789,614.6198238030568
790,614.6962753065054
791,614.7730611211521
792,614.8501648223307
793,614.9275706005108
794,615.0052633522967
795,615.0832287638955
796,615.1614533857098
797,615.239924696933
798,615.3186311592683
799,615.3975622591516
800,615.4767085381227
801,615.5560616112632
802,615.6356141739365
803,615.7153599974181
804,615.7952939143375
805,615.8754117950564
806,615.9557105161556
807,616.0361879221317
808,616.1168427812405
809,616.1976747362361
810,616.278684250554
811,616.3598725502872
812,616.4412415620818
813,616.5227938468413
814,616.6045325289053
815,616.6864612202063
816,616.7685839388396
817,616.8509050215189
818,616.9334290294934
819,617.0161606476954
820,617.0991045771823
821,617.1822654213018
822,617.2656475663749
823,617.3492550579725
824,617.4330914739992
825,617.5171597957624
826,617.6014622780997
827,617.68600031959
828,617.7707743339537
829,617.8557836238475
830,617.9410262582587
831,618.0264989546315
832,618.1121969668437
833,618.1981139801983
834,618.2842420145907
835,618.3705713368967
836,618.4570903834348
837,618.5437856931642
838,618.6306418520927
839,618.7176414491952
840,618.8047650439565
841,618.8919911454907
842,618.9792962030712
843,619.066654607897
844,619.1540387060231
845,619.2414188225257
846,619.328763297016
847,619.4160385304998
848,619.5032090433984
849,619.5902375444474
850,619.6770850102116
851,619.7637107750545
852,619.8500726314755
853,619.9361269407285
854,620.0218287535141
855,620.1071319403537
856,620.1919893310969
857,620.2763528629514
858,620.360173736378
859,620.4434025780931
860,620.525989610233
861,620.6078848244825
862,620.6890381597162
863,620.7693996814858
864,620.8489197615492
865,620.9275492555245
866,621.0052396766786
867,621.0819433638964
868,621.1576136420781
869,621.2322049735517
870,621.3056730994645
871,621.3779751704548
872,621.4490698661637
873,621.518917503334
874,621.5874801323669
875,621.6547216222524
876,621.7206077337818
877,621.78510618092
878,621.8481866802077
879,621.9098209880642
880,621.9699829258794
881,622.0286483928031
882,622.0857953661483
883,622.1414038893153
884,622.1954560471478
885,622.2479359287274
886,622.2988295777952
887,622.3481249312107
888,622.3958117460236
889,622.4418815158554
890,622.4863273774902
891,622.5291440089064
892,622.5703275203208
893,622.6098753400213
894,622.6477860968183
895,622.6840595009364
896,622.7186962251302
897,622.7516977876678
898,622.7830664385256
899,622.8128050497478
900,622.8409170105916
901,622.8674061279029
902,622.892276532147
903,622.9155325895752
904,622.9371788210957
905,622.9572198284992
906,622.9756602287134
907,622.9925045966922
908,623.0077574173457
909,623.0214230465997
910,623.0335056813148
911,623.0440093375456
912,623.0529378365767
913,623.0602947983032
914,623.0660836417114
915,623.070307592337
916,623.0729696966159
917,623.0740728430541
