acceleration,velocity,displacement
-0.014260017086974308,0.0,0.0
-0.014492907677946018,-7.188231191230082e-06,-1.7970577978075207e-09
-0.014730708738423044,-1.4494135295322348e-05,-7.217649419445628e-09
-0.01497336879633743,-2.1920154679012468e-05,-1.6321221913029333e-08
-0.01522080025828372,-2.9468696942667755e-05,-2.916843481844939e-08
-0.015472878394530508,-3.714211660587131e-05,-4.5821138205584156e-08
-0.015729440538710854,-4.494269633918165e-05,-6.63423414418474e-08
-0.015990285501367538,-5.287262784920125e-05,-9.079617248894313e-08
-0.0162551731959298,-6.093399252352559e-05,-1.1924782758212484e-07
-0.016523824475212858,-6.912874194131125e-05,-1.5176351119833404e-07
-0.016795921175517342,-7.74586783539938e-05,-1.884103662721603e-07
-0.017071106363933643,-8.592543523885655e-05,-2.292563946703729e-07
-0.01734898478216153,-9.453045802538035e-05,-2.743703679864321e-07
-0.01762912347740301,-0.00010327498509027148,-3.2382172876534506e-07
-0.01791105260834552,-0.00011216002911170862,-3.776804823158401e-07
-0.018194266413597098,-0.00012118635886719428,-4.360170793105658e-07
-0.018478224330858713,-0.00013035448155330822,-4.989022894156914e-07
-0.01876235225628512,-0.00013966462570009418,-5.66407066229042e-07
-0.01904604393401086,-0.00014911672474766818,-6.386024038409826e-07
-0.019328662466987785,-0.00015871040134791785,-7.155591853648792e-07
-0.019609541943339217,-0.0001684449524504996,-7.973480238144836e-07
-0.019887989176066646,-0.00017831933523035104,-8.840390957346962e-07
-0.02016328555536111,-0.00018833215391320798,-9.75701968020586e-07
-0.020434689010837254,-0.00019848164755475756,-1.0724054183875773e-06
-0.020701436077540176,-0.00020876567882685193,-1.1742172499829797e-06
-0.02096274405688242,-0.0002191817238604576,-1.281204100654807e-06
-0.021217813262951208,-0.00022972686319041598,-1.3934312474175254e-06
-0.021465829346659755,-0.00024039777384281873,-1.510962406675834e-06
-0.02170596569505171,-0.0002511907226032466,-1.6338595307873505e-06
-0.021937385909025497,-0.0002621015605042659,-1.7621826015642287e-06
-0.02215924636614286,-0.000273125718573058,-1.8959894213335597e-06
-0.022370698873713412,-0.000284258204883022,-2.03533540219758e-06
-0.022570893412032098,-0.0002954936029544584,-2.18027335415695e-06
-0.02275898096144947,-0.0003068260715478288,-2.3308532727825215e-06
-0.022934116402334996,-0.0003182493458887749,-2.4871221271416724e-06
-0.02309546147449641,-0.00032975674035798277,-2.6491236487033618e-06
-0.023242187781138582,-0.0003413411526718915,-2.8168981219608305e-06
-0.023373479820980342,-0.0003529950695724212,-2.9904821775219087e-06
-0.02348853803029875,-0.00036471057403524097,-3.169908588423824e-06
-0.02358658181435414,-0.00037647935399640417,-3.3552060704317355e-06
-0.023666852545003544,-0.0003882927125862436,-3.5463990870773974e-06
-0.02372861649856289,-0.00040014157984713517,-3.743507660185742e-06
-0.023771167705466632,-0.00041201652589814255,-3.946547186622062e-06
-0.02379383068179764,-0.0004239077754949586,-4.1555282619703374e-06
-0.023795963013263546,-0.00043580522391872394,-4.370456511823758e-06
-0.023776957765205463,-0.0004476984541133412,-4.591332431331774e-06
-0.02373624569666367,-0.0004595767549788085,-4.8181512336048115e-06
-0.023673297261347172,-0.0004714291407183112,-5.0509027075290915e-06
-0.02358762438251026,-0.00048324437112927556,-5.289571085490988e-06
-0.023478781992992876,-0.0004950109727231513,-5.534134921454094e-06
-0.023346369335874043,-0.000506717260555368,-5.784566979773724e-06
-0.02319003102512256,-0.0005183513606456172,-6.04083413507397e-06
-0.023009457868610084,-0.0005299012328690504,-6.302897283452637e-06
-0.02280438745786716,-0.0005413546942006697,-6.570711265220068e-06
-0.02257460453060536,-0.0005526994421977879,-6.844224799319682e-06
-0.022319941114071304,-0.000563923078608957,-7.123380429521369e-06
-0.022040276459652636,-0.000575013133002388,-7.408114482424205e-06
-0.021735536781374288,-0.0005859570863126448,-7.698357037252963e-06
-0.02140569481213137,-0.0005967423942110212,-7.994031907383879e-06
-0.0210507691918526,-0.0006073565102120171,-8.295056633489639e-06
-0.020670823702108824,-0.0006177869084355075,-8.60134248815152e-06
-0.020265966362890783,-0.0006280211059517574,-8.912794491748336e-06
-0.019836348409763116,-0.0006380466846449209,-9.229311439397506e-06
-0.01938216317212236,-0.0006478513125403923,-9.550785938693834e-06
-0.018903644874809656,-0.0006574227645521253,-9.877104457966964e-06
-0.018401067385204,-0.0006667489426171288,-1.0208147384759277e-05
-0.017874742926516533,-0.0006758178951950589,-1.0543789094212324e-05
-0.017325020775943722,-0.000684617836120674,-1.0883898027041258e-05
-0.01675228596453732,-0.0006931371628057943,-1.1228336776772874e-05
-0.016156957994515254,-0.0007013644737955574,-1.1576962185923212e-05
-0.015539489589411714,-0.0007092885856915391,-1.1929625450794987e-05
-0.014900365491646065,-0.0007168985494618035,-1.2286172234583323e-05
-0.014240101319692732,-0.0007241836661646382,-1.2646442788489933e-05
-0.013559242492856219,-0.0007311335021177754,-1.3010272080560536e-05
-0.012858363226422004,-0.000737737903547595,-1.3377489931976879e-05
-0.01213806559506273,-0.0007439870107529661,-1.3747921160552019e-05
-0.011398978658777183,-0.0007498712718164261,-1.4121385731194367e-05
-0.010641757643475512,-0.0007553814558919893,-1.4497698913121471e-05
-0.009867083166290489,-0.0007605086660944307,-1.4876671443618077e-05
-0.009075660493144832,-0.0007652443520092895,-1.5258109698144007e-05
-0.008268218813243352,-0.0007695803218358866,-1.56418158666053e-05
-0.007445510513273564,-0.0007735087541675158,-1.6027588135606152e-05
-0.006608310433761489,-0.0007770222094042746,-1.64152208764991e-05
-0.005757415090838957,-0.0007801136407854246,-1.6804504839046523e-05
-0.004893641848060366,-0.0007827764050201495,-1.719522735049792e-05
-0.004017828025043771,-0.0007850042724884255,-1.7587172519875064e-05
-0.003130829933255155,-0.0007867914369780002,-1.798012144724167e-05
-0.002233521834310775,-0.0007881325249198917,-1.8373852437716143e-05
-0.0013267948214640234,-0.0007890226040838354,-1.8768141219967077e-05
-0.00041155562934554467,-0.0007894571916965378,-1.916276116891217e-05
0.0005112746203832004,-0.0007894322619487784,-1.9557483532323497e-05
0.0014407617285568356,-0.0007889442528615434,-1.995207766102608e-05
0.002375959773356613,-0.000787990072486065,-2.0346311242362983e-05
0.00331591249853073,-0.0007865671044180932,-2.073995053658902e-05
0.00425965472017293,-0.0007846732126134173,-2.1132760615846898e-05
0.005206213735407995,-0.000782306745499522,-2.1524505605375132e-05
0.006154610716801785,-0.0007794665393864696,-2.191494892659663e-05
0.0071038620787201535,-0.0007761519211875891,-2.2303853541740145e-05
0.008052980805664044,-0.000772362710466493,-2.2690982199653666e-05
0.009000977737847,-0.0007680992208306152,-2.307609768247794e-05
0.009946862815529057,-0.0007633622606922712,-2.3458963052858663e-05
0.010889646289557058,-0.0007581531334159997,-2.383934190138573e-05
0.011828339910394954,-0.0007524736368660117,-2.4216998593956233e-05
0.012761958110790483,-0.0007463260623607153,-2.4591698518762914e-05
0.013689519197351596,-0.0007397131930336798,-2.4963208332611512e-05
0.014610046562914017,-0.0007326383015936133,-2.5331296206268337e-05
0.015522569925916831,-0.0007251051474714056,-2.569573206853459e-05
0.016426126597934198,-0.0007171179733404428,-2.605628784873755e-05
0.017319762778669655,-0.0007086815009962918,-2.6412737717321733e-05
0.018202534878197455,-0.000699800926582075,-2.6764858324216325e-05
0.019073510865871505,-0.0006904819151460578,-2.7112429034648358e-05
0.01993177164132023,-0.0006807305945192599,-2.7455232162064686e-05
0.020776412416272535,-0.0006705535485048617,-2.7793053197820718e-05
0.021606544089531277,-0.0006599578093784107,-2.8125681037291536e-05
0.022421294594554764,-0.0006489508497073892,-2.8452908202062984e-05
0.023219810200271356,-0.0006375405735086827,-2.8774531057867002e-05
0.024001256749326832,-0.0006257353067712832,-2.9090350027936995e-05
0.02476482082138696,-0.0006135437873786047,-2.9400169801474466e-05
0.02550971081125449,-0.0006009751544704444,-2.970379953693673e-05
0.02623515791338892,-0.0005880389372892836,-3.0001053059876662e-05
0.026940417007695006,-0.0005747450435590126,-3.0291749055088737e-05
0.02762476744691146,-0.000561103747445361,-3.057571125283983e-05
0.02828751375240528,-0.0005471256771455318,-3.0852768608987554e-05
0.028927986230915883,-0.0005328218021497015,-3.1122755478811364e-05
0.0295455415285093,-0.0005182034202098453,-3.138551178440125e-05
0.030139563138486217,-0.0005032821440430964,-3.1640883175464485e-05
0.03070946187661737,-0.0004880698877893205,-3.188872118342259e-05
0.03125467633167629,-0.0004725788532372471,-3.212888336867923e-05
0.03177467329517543,-0.00045682151583053415,-3.2361233460946177e-05
0.03226894817394746,-0.00044081061046325344,-3.258564149251962e-05
0.03273702539217439,-0.000424559117071723,-3.2801983924403365e-05
0.03317845879323922,-0.0004080802460253696,-3.301014376517764e-05
0.03359283205495835,-0.0003913874233133202,-3.321001068251231e-05
0.0339797591338233,-0.0003744942755161248,-3.340148110721967e-05
0.034338884754980495,-0.00035741461454392385,-3.358445832973468e-05
0.03466988496438916,-0.00034016242211408145,-3.3758852588899184e-05
0.03497246775811864,-0.0003227518339334545,-3.392458115291107e-05
0.03524637380185134,-0.00030519712354346197,-3.40815683922803e-05
0.035491377251816794,-0.0002875126857800449,-3.422974584461118e-05
0.035707286685835046,-0.00026971301979563197,-3.436905227100509e-05
0.03589394614869588,-0.00025181271158699925,-3.449943370385075e-05
0.036051236310054,-0.0002338264159723118,-3.4620843485740574e-05
0.03617907572666923,-0.00021576883796313098,-3.4733242299224434e-05
0.03627742219558924,-0.00019765471348256636,-3.483659818708586e-05
0.036346274181664924,-0.00017949878938825284,-3.4930886562803564e-05
0.03638567230174212,-0.00016131580276740107,-3.501609021084248e-05
0.03639570084829144,-0.00014312045947989266,-3.50921992764043e-05
0.03637648933513137,-0.00012492741193403695,-3.5159211244257784e-05
0.03632821404638194,-0.00010675123608865863,-3.5217130906263455e-05
0.036251099566766025,-8.860640768537164e-05,-3.526597031720696e-05
0.036145420267530495,-7.050727772679751e-05,-3.5305748738560005e-05
0.03601150171872813,-5.246804723023286e-05,-3.533649256979926e-05
0.03584972199708397,-3.450274130127983e-05,-3.535823526693214e-05
0.035660512860205,-1.662518258695759e-05,-3.53710172479042e-05
0.035444360761153905,1.1510358183821378e-06,-3.5374885784596344e-05
0.03520180768112334,1.8812577928951452e-05,-3.536989488115951e-05
0.034933451762092664,3.6346392789755454e-05,-3.5356105138479837e-05
0.03463994772661122,5.373974266193143e-05,-3.533358360461691e-05
0.03432200707809852,7.098023136310886e-05,-3.5302403611110654e-05
0.03398039808122293,8.805583265293923e-05,-3.526264459510664e-05
0.033615945526243377,0.0001049549185548058,-3.521439190730471e-05
0.033229530282236096,0.00012166628750692567,-3.515773660578928e-05
0.032822088642301295,0.00013817919223806002,-3.509277523585303e-05
0.03239461146149222,0.0001544833672640084,-3.5019609595977515e-05
0.03194814308671509,0.00017056905590106023,-3.493834649018625e-05
0.03148378007747529,0.00018642703669210782,-3.484909746703796e-05
0.03100266971667849,0.00020204864914064627,-3.475197854557977e-05
0.03050600831208969,0.0002174258186478383,-3.464710992863265e-05
0.02999503929151433,0.0002325510805487393,-3.453461570383351e-05
0.029471051098356505,0.000247417603146207,-3.441462353290977e-05
0.028935374898026847,0.00026201920964530285,-3.428726432971189e-05
0.028389382108513973,0.00027635039889693807,-3.415267192757633e-05
0.027834481769385876,0.000290406364866413,-3.401098273663549e-05
0.02727211776273793,0.000304183014749444,-3.386233539173153e-05
0.02670376589848873,0.00031767698566475064,-3.370687039162798e-05
0.026130930874929036,0.00033088565985810506,-3.354472973024727e-05
0.025555143122921117,0.0003438071783575676,-3.337605652069335e-05
0.024977955538857028,0.00035644045302301214,-3.3200994612848205e-05
0.02440094010884779,0.0003687851769349383,-3.301968820535872e-05
0.02382568442559576,0.00038084183306854924,-3.2832281452857846e-05
0.02325378809932473,0.00039261170119977935,-3.2638918069290764e-05
0.022686859065185302,0.0004040968629909069,-3.2439740928243095e-05
0.022126509792291228,0.000415300205205276,-3.223489166119405e-05
0.021574353403991834,0.0004262254210043468,-3.2024510254641643e-05
0.021031999723983737,0.0004368770092863407,-3.180873464706897e-05
0.02050105126728014,0.00044726027203415665,-3.158770032673885e-05
0.019983099198395252,0.0004573813096505755,-3.136153993131767e-05
0.019479719280745822,0.0004672470142703608,-3.113038285033743e-05
0.018992467841159252,0.00047686506105083706,-3.089435483150713e-05
0.018522877772597594,0.0004862438974542763,-3.065357759188085e-05
0.018072454597994506,0.0004953927305469243,-3.040816843488055e-05
0.017642672618111574,0.0005043215123509508,-3.015823987415608e-05
0.017234971165766094,0.0005130409232969202,-2.9903899265244113e-05
0.01685075098790782,0.0005215623538353387,-2.9645248445961048e-05
0.016491370775895763,0.0005298978842762895,-2.938238338643314e-05
0.01615814386231781,0.000538060262935843,-2.9115393849630106e-05
0.01585233509863408,0.0005460628826760809,-2.8844363063227127e-05
0.01557515792236537,0.0005539197559313308,-2.8569367403575273e-05
0.01532777161751014,0.0005616454883162997,-2.8290476092513366e-05
0.015111278768577515,0.0005692552509128216,-2.8007750907706086e-05
0.014926722906572104,0.000576764751331609,-2.772124590714498e-05
0.014775086343189303,0.0005841902036440494,-2.7431007168401064e-05
0.014657288187063905,0.0005915482972766127,-2.71370725431709e-05
0.014574182534292367,0.0005988561649569518,-2.6839471427612508e-05
0.014526556824536303,0.000606131349796659,-2.6538224548924104e-05
0.014515130353266906,0.0006133917715911098,-2.6233343768577164e-05
0.01454055292910187,0.000620655692411702,-2.592483190257646e-05
0.014603403662381331,0.0006279416815595728,-2.561268255908364e-05
0.014704189868155733,0.000635268579942207,-2.5296879993708196e-05
0.014843346064686935,0.0006426554639254177,-2.497739898274129e-05
0.015021233047417476,0.0006501216087034438,-2.4654204714584075e-05
0.015238137017526326,0.0006576864512196798,-2.4327252699603294e-05
0.015494268743772925,0.0006653695526600046,-2.399648869863337e-05
0.01578976273757903,0.0006731905605303427,-2.3661848670335785e-05
0.016124676424876253,0.0006811691703209565,-2.332325873762296e-05
0.016498989304272127,0.0006893250867532436,-2.298063517335441e-05
0.01691260208878753,0.0006976779846015085,-2.2633884405515722e-05
0.017365335835942658,0.000706247469082691,-2.2282903042094672e-05
0.01785693107691944,0.0007150530358109065,-2.1927577915871275e-05
0.01838704695906497,0.0007241140303199026,-2.1567786149338572e-05
0.01895526041767387,0.0007334496071640873,-2.1203395239967575e-05
0.01956106539400154,0.0007430786886170062,-2.0834263166022303e-05
0.020203872117613896,0.0007530199229949101,-2.0460238513119324e-05
0.02088300647224754,0.0007632916426423754,-2.0081160621710004e-05
0.021597709464568085,0.0007739118216265793,-1.9696859755642763e-05
0.02234713681479055,0.000784898033196419,-1.9307157291937013e-05
0.023130358687386873,0.0007962674070719634,-1.8911865931869916e-05
0.023946359579250905,0.0008080365866386228,-1.851078993344227e-05
0.024794038381177236,0.0008202216861287299,-1.810372536525043e-05
0.025672208626617874,0.0008328382478806787,-1.769046038174808e-05
0.026579598939864384,0.0008459011997722992,-1.7270775519834835e-05
0.027514853694613355,0.0008594248129309187,-1.6844444016659032e-05
0.02847653389335696,0.0008734226598279113,-1.6411232148469325e-05
0.029463118278445975,0.000887907572870862,-1.5970899590294632e-05
0.030473004686474934,0.0009028916036120922,-1.5523199796173892e-05
0.03150451165751584,0.00091838598269809,-1.5067880399596347e-05
0.03255588030898671,0.0009344010806897156,-1.4604683633749395e-05
0.03362527648157422,0.0009509463698873558,-1.4133346771105127e-05
0.03471079316276277,0.0009680303872984401,-1.3653602581808678e-05
0.03581045319191589,0.0009856606988871098,-1.316517981026229e-05
0.03692221224826465,0.0010038438652471549,-1.2667803669228723e-05
0.03804396211992326,0.0010225854088392018,-1.2161196350707135e-05
0.03917353424928689,0.0010418897829315044,-1.1645077552764459e-05
0.04030870354754089,0.0010617603423807114,-1.1119165021436404e-05
0.041447192467231116,0.0010821993163844044,-1.0583175106745125e-05
0.04258667531705,0.0011032077833304746,-1.0036823331816405e-05
0.043724782799204186,0.0011247856478595383,-9.479824974018903e-06
0.04485910674857094,0.0011469316202464821,-8.911895656992398e-06
0.04598720505488394,0.0011696431981973458,-8.33275195238144e-06
0.04710660675335621,0.001192916651149406,-7.742111990044752e-06
0.04821481727322037,0.00121674700715605,-7.139696075468388e-06
0.049309323835944864,0.0012411280424333413,-6.52522731307104e-06
0.050387600995150945,0.0012660522736411153,-5.898432234052425e-06
0.05144711630922088,0.0012915109529672082,-5.259041427400345e-06
0.05248533613546589,0.00131749406607838,-4.6067901726389475e-06
0.05349973153130476,0.0013439903329950727,-3.9414190728705845e-06
0.05448778424463201,0.001370987211939057,-3.262674686637052e-06
0.055446992774349994,0.0013984709061938025,-2.5703101571038374e-06
0.056374878483205784,0.0014264263740081913,-1.864085837053339e-06
0.05726899174675943,0.0014548373415656827,-1.1437699081598705e-06
0.058126918122395475,0.0014836863190329714,-4.09138993010207e-07
0.058946284520938586,0.001512954619693805,3.4002124167148706e-07
0.05972476536202704,0.0015426223821645463,1.103915492136075e-06
0.06046008869332401,0.0015726685956783842,1.8827382365968075e-06
0.061150042252109085,0.0016030711284147423,2.676673167620089e-06
0.061792479445347714,0.0016338067588391066,3.4858926394335513e-06
0.06238532522147322,0.0016648512100058117,4.310557131644781e-06
0.06292658180495923,0.00169617918676242,5.1508147308368395e-06
0.06341433426426238,0.0017277644157797252,6.006800631472376e-06
0.06384675588550055,0.001759579688317166,6.8786366574965985e-06
0.06422211332694869,0.0017915969056202783,7.76643080598096e-06
0.06453877153195992,0.0018237871268350055,8.67027681409478e-06
0.06479519838012948,0.001856120619313028,9.590253750631789e-06
0.06498996905871537,0.0018885669111727392,1.052642563325323e-05
0.0651217701376879,0.00192109484597184,1.1478841072539375e-05
0.06518940333190143,0.0019536726393392374,1.2447532943867144e-05
0.06519178893368673,0.0019862679374056343,1.3432518088053362e-05
0.06512796890017163,0.002018847876864099,1.4433797041620796e-05
0.06499710958226668,0.0020513791464847084,1.5451353797457997e-05
0.06479850408516517,0.002083828049901566,1.6485155596554564e-05
0.06453157425166713,0.0021161605694857743,1.75351527514014e-05
0.06419587225931975,0.002148342431113521,1.8601278501551224e-05
0.06379108182172208,0.0021803391696337813,1.968344890173805e-05
0.06331701898464417,0.0022121161948353727,2.0781562742855336e-05
0.06277363250885494,0.0022436388577087474,2.1895501505991367e-05
0.062161003833284594,0.002274872516794282,2.3025129349617125e-05
0.06147934661399392,0.0023057826044061017,2.417029312991722e-05
0.06072900583731925,0.00233633469251893,2.533082245414848e-05
0.05991045651038711,0.0023664945581058565,2.6506529766804677e-05
0.0590243019380698,0.0023962282477179705,2.7697210468260634e-05
0.05807127159968473,0.0024255021411024092,2.8902643065465727e-05
0.057052218639522846,0.002454283013662211,3.012258935415688e-05
0.05596811698385903,0.0024825380975680563,3.1356794631964446e-05
0.054820058096286095,0.0025102351413380927,3.260498794169098e-05
0.05360924738536895,0.0025373424677085066,3.386688234395263e-05
0.05233700028350494,0.002563829029625725,3.514217521828619e-05
0.051004738021707616,0.002589664464202028,3.6430548591743134e-05
0.049613983129768516,0.002614819144489897,3.773166949391612e-05
0.048166354694721226,0.0026392642289460194,3.90451903372751e-05
0.04666356341327737,0.002662971708473019,4.037074932162986e-05
