frame_number,force
0,614.9994155467338
1,614.9876627976307
2,614.9753894419985
3,614.962581900544
4,614.9492304699818
5,614.9353294817248
6,614.9208774294208
7,614.9058770658522
8,614.890335469798
9,614.8742640835003
10,614.8576787215195
11,614.8405995520033
12,614.8230510517907
13,614.8050619372702
14,614.7866650733354
15,614.7678973628708
16,614.7487996189583
17,614.7294164217049
18,614.7097959614368
19,614.6899898697168
20,614.6700530389857
21,614.650043430863
22,614.6300218728085
23,614.6100518431822
24,614.5901992453827
25,614.5705321722304
26,614.5511206618633
27,614.5320364459798
28,614.513352690267
29,614.4951437256549
30,614.4774847683394
31,614.460451626777
32,614.444120394891
33,614.4285671319379
34,614.4138675303797
35,614.4000965736006
36,614.3873281855886
37,614.3756348749887
38,614.3650873763175
39,614.3557542915813
40,614.3477017360826
41,614.3409929927532
42,614.3356881798667
43,614.3318439373022
44,614.3295131364486
45,614.3287446182843
46,614.3295829633079
47,614.3320682960939
48,614.3362361264445
49,614.3421172283233
50,614.3497375569585
51,614.359118203771
52,614.3702753882361
53,614.3832204854364
54,614.3979600877763
55,614.4144960989804
56,614.4328258580676
57,614.4529422906089
58,614.4748340843774
59,614.4984858864736
60,614.5238785189955
61,614.5509892101188
62,614.5797918370093
63,614.6102571765265
64,614.642353159417
65,614.6760451237595
66,614.7112960637351
67,614.7480668702262
68,614.7863165601505
69,614.8260024916667
70,614.8670805624994
71,614.909505388801
72,614.9532304624721
73,614.998208285699
74,615.0443904825155
75,615.0917278881843
76,615.1401706179039
77,615.189668116791
78,615.2401691934944
79,615.2916220403066
80,615.343974243203
81,615.3971727856069
82,615.4511640497573
83,615.5058938193803
84,615.5613072870931
85,615.617349069538
86,615.6739632325347
87,615.7310933275372
88,615.7886824396209
89,615.8466732463465
90,615.9050080863184
91,615.9636290359992
92,616.022477993145
93,616.0814967647864
94,616.1406271571057
95,616.1998110641803
96,616.2589905526434
97,616.3181079397665
98,616.3771058632055
99,616.4359273416718
100,616.4945158270045
101,616.5528152492838
102,616.6107700575562
103,616.6683252593033
104,616.7254264617903
105,616.7820199177577
106,616.8380525767805
107,616.8934721426202
108,616.9482271365123
109,617.0022669664254
110,617.0555420022491
111,617.108003656077
112,617.159604465416
113,617.2102981759053
114,617.2600398195442
115,617.3087857846702
116,617.3564938746329
117,617.4031233527876
118,617.4486349718682
119,617.4929909861585
120,617.5361551455417
121,617.5780926715927
122,617.6187702171724
123,617.6581558121255
124,617.696218798431
125,617.7329297582628
126,617.7682604377736
127,617.8021836683554
128,617.8346732863555
129,617.8657040521904
130,617.8952515703926
131,617.9232922129044
132,617.9498030485647
133,617.9747617821766
134,617.9981467067647
135,618.0199366726048
136,618.0401110763272
137,618.0586498730408
138,618.0755336140801
139,618.0907435124808
140,618.1042615374336
141,618.1160705377787
142,618.1261543933664
143,618.134498192079
144,618.1410884296837
145,618.1459132294971
146,618.148962578908
147,618.1502285797982
148,618.1497057095953
149,618.1473910890945
150,618.1432847524155
151,618.1373899137579
152,618.1297132253129
153,618.1202650209633
154,618.1090595410444
155,618.0961151341454
156,618.0814544327312
157,618.0651045003724
158,618.0470969495849
159,618.0274680304666
160,618.0062586911381
161,617.9835146111666
162,617.9592862087591
163,617.9336286219998
164,617.9066016640797
165,617.87826975235
166,617.8487018110577
167,617.817971147842
168,617.7861553045217
169,617.7533358833614
170,617.7195983507141
171,617.6850318204565
172,617.6497288197585
173,617.6137850395525
174,617.5772990717875
175,617.5403721352188
176,617.5031077909384
177,617.4656116481524
178,617.4279910601566
179,617.3903548102047
180,617.3528127869158
181,617.3154756490264
182,617.278454479795
183,617.2418604322094
184,617.2058043670893
185,617.1703964870197
186,617.1357459696789
187,617.1019606044148
188,617.0691464358723
189,617.0374074182976
190,617.0068450840744
191,616.9775582300247
192,616.94964262489
193,616.9231907412046
194,616.8982915145443
195,616.8750301327169
196,616.8534878566551
197,616.8337418736693
198,616.8158651827088
199,616.7999265106332
200,616.7859902580913
201,616.774116473186
202,616.7643608506534
203,616.7567747539421
204,616.7514052574313
205,616.7482952058821
206,616.7474832879115
207,616.7490041197442
208,616.752888334928
209,616.7591626753131
210,616.7678500783949
211,616.7789697559774
212,616.7925372590674
213,616.8085645241824
214,616.8270598970006
215,616.8480281305065
216,616.8714703563395
217,616.8973840295964
218,616.9257628485484
219,616.9565966514753
220,616.9898712932093
221,617.025568504231
222,617.0636657354449
223,617.104135992022
224,617.1469476598159
225,617.1920643278265
226,617.2394446101101
227,617.2890419704268
228,617.3408045527003
229,617.3946750200525
230,617.4505904048948
231,617.5084819723953
232,617.5682750996223
233,617.6298891728175
234,617.6932375054927
235,617.7582272800986
236,617.8247595157533
237,617.892729064127
238,617.9620246353006
239,618.0325288551728
240,618.1041183555617
241,618.1766638975855
242,618.2500305284424
243,618.324077771268
244,618.3986598470748
245,618.473625926909
246,618.5488204116735
247,618.6240832369127
248,618.6992502003171
249,618.7741533105865
250,618.8486211571553
251,618.922479300784
252,618.995550685113
253,619.0676560691302
254,619.1386144801073
255,619.2082436859286
256,619.2763606851042
257,619.3427822125526
258,619.4073252594804
259,619.4698076060281
260,619.5300483653674
261,619.5878685376704
262,619.6430915720747
263,619.6955439345459
264,619.7450556792066
265,619.791461020191
266,619.8345989004813
267,619.874313553705
268,619.9104550547361
269,619.9428798552292
270,619.9714513006937
271,619.996040126142
272,620.0165249277109
273,620.0327926080041
274,620.0447387930922
275,620.0522682190328
276,620.0552950856464
277,620.0537433753813
278,620.0475471355211
279,620.0366507224509
280,620.021009006877
281,620.000587538727
282,619.9753626702117
283,619.9453216354688
284,619.9104625853515
285,619.8707945761387
286,619.8263375111874
287,619.7771220350124
288,619.7231893801102
289,619.6645911678869
290,619.601389165771
291,619.5336550026425
292,619.4614698443097
293,619.384924030507
294,619.3041166751974
295,619.2191552328442
296,619.1301550343674
297,619.0372387973498
298,618.940536115653
299,618.8401829340715
300,618.7363210138615
301,618.629097394555
302,618.5186638565937
303,618.4051763886954
304,618.2887946638834
305,618.1696815282752
306,618.0480025064023
307,617.9239253260265
308,617.7976194646014
309,617.669255718929
310,617.5390057989513
311,617.4070419457972
312,617.2735365733206
313,617.1386619317508
314,617.002589791835
315,616.8654911478092
316,616.7275359375441
317,616.5888927783263
318,616.4497287171506
319,616.3102089951747
320,616.1704968267645
321,616.0307531937815
322,615.8911366551863
323,615.7518031709387
324,615.6129059380935
325,615.4745952364052
326,615.3370182807631
327,615.2003190781537
328,615.0646382873674
329,614.930113080193
330,614.7968770031974
331,614.6650598392508
332,614.5347874679127
333,614.4061817240013
334,614.2793602541999
335,614.1544363722307
336,614.0315189137767
337,613.9107120928384
338,613.7921153614626
339,613.6758232747001
340,613.5619253623163
341,613.4505060084409
342,613.3416443401812
343,613.235414126294
344,613.1318836872928
345,613.0311158188396
346,612.9331677307962
347,612.8380910046772
348,612.7459315723032
349,612.6567297181252
350,612.5705201068961
351,612.4873318371998
352,612.407188520225
353,612.3301083825625
354,612.2561043917814
355,612.1851844037668
356,612.1173513308149
357,612.0526033290982
358,611.9909340035684
359,611.932332628017
360,611.8767843780261
361,611.824270574751
362,611.774768937625
363,611.7282538440985
364,611.6846965946013
365,611.6440656812447
366,611.6063270594034
367,611.5714444220173
368,611.5393794768604
369,611.5100922268294
370,611.4835412525815
371,611.4596839960691
372,611.438477043196
373,611.4198764040682
374,611.4038377896762
375,611.3903168838033
376,611.3792696085591
377,611.3706523817498
378,611.3644223644852
379,611.3605376976859
380,611.3589577261491
381,611.3596432085636
382,611.3625565115199
383,611.3676617853403
384,611.3749251195713
385,611.3843146761564
386,611.3958007985377
387,611.4093560952406
388,611.4249554968413
389,611.4425762855041
390,611.4621980964797
391,611.4838028912599
392,611.5073749025241
393,611.5329005514712
394,611.5603683384558
395,611.5897687080474
396,611.6210938896581
397,611.6543377147487
398,611.6894954114559
399,611.7265633774911
400,611.7655389323552
401,611.8064200501525
402,611.8492050745022
403,611.8938924173968
404,611.940480244433
405,611.9889661494653
406,612.0393468221553
407,612.0916177120627
408,612.1457726929245
409,612.2018037304553
410,612.2597005562433
411,612.3194503492814
412,612.3810374257248
413,612.4444429369073
414,612.5096445755487
415,612.5766162903495
416,612.6453280095182
417,612.7157453739954
418,612.7878294813628
419,612.8615366418617
420,612.9368181486285
421,613.0136200649931
422,613.0918830323883
423,613.1715421029555
424,613.2525266011204
425,613.3347600181538
426,613.4181599432133
427,613.5026380338462
428,613.588100028563
429,613.6744458038036
430,613.7615694774007
431,613.8493595603662
432,613.9376991582313
433,614.0264662220624
434,614.1155338477848
435,614.2047706209122
436,614.2940410025207
437,614.3832057516319
438,614.4721223791721
439,614.5606456291292
440,614.6486279829867
441,614.7359201837374
442,614.8223717758882
443,614.9078316580011
444,614.9921486445262
445,615.0751720339017
446,615.156752180061
447,615.2367410644374
448,615.3149928652737
449,615.3913645207444
450,615.4657162823735
451,615.5379122555354
452,615.607820924438
453,615.675315659747
454,615.7402752077578
455,615.8025841605393
456,615.8621334066704
457,615.9188205620716
458,615.9725503801459
459,616.0232351402184
460,616.0707950131961
461,616.1151584034761
462,616.1562622663209
463,616.194052400129
464,616.2284837131166
465,616.2595204636694
466,616.287136472985
467,616.3113153078858
468,616.3320504311968
469,616.349345316991
470,616.3632135282778
471,616.3736787552043
472,616.3807748124665
473,616.3845455953152
474,616.3850449942986
475,616.3823367696123
476,616.3764943864778
477,616.3676008131996
478,616.3557482835023
479,616.3410380247547
480,616.3235799540124
481,616.3034923442682
482,616.2809014633743
483,616.2559411876308
484,616.228752591471
485,616.1994835145985
486,616.1682881084419
487,616.1353263645086
488,616.1007636276665
489,616.0647700974256
490,616.0275203200906
491,615.9891926743212
492,615.949968852228
493,615.9100333377262
494,615.8695728834415
495,615.8287759869601
496,615.7878323665996
497,615.7469324363101
498,615.7062667790094
499,615.6660256177848
500,615.6263982848249
501,615.5875726883795
502,615.5497347783979
503,615.513068011805
504,615.477752818637
505,615.4439660702943
506,615.4118805509911
507,615.381664433328
508,615.3534807589841
509,615.3274869257468
510,615.3038341822478
511,615.282667131801
512,615.2641232468344
513,615.248332395787
514,615.2354163849719
515,615.2254885185012
516,615.2186531795754
517,615.2150054361384
518,615.2146306731597
519,615.2176042529688
520,615.223991204509
521,615.2338459423212
522,615.2472120163416
523,615.2641218938245
524,615.2845967746636
525,615.3086464412266
526,615.3362691437856
527,615.3674515227922
528,615.4021685694423
529,615.4403836260149
530,615.4820484273583
531,615.5271031846615
532,615.5754767122975
533,615.6270865981008
534,615.6818394170962
535,615.7396309885734
536,615.8003466763621
537,615.8638617318791
538,615.9300416789963
539,615.998742739335
540,616.0698122965234
541,616.1430893980745
542,616.218405293318
543,616.2955840049812
544,616.3744429308136
545,616.45479347081
546,616.5364416755651
547,616.6191889120014
548,616.7028325435292
549,616.7871666221629
550,616.8719825901779
551,616.9570699887923
552,617.042217171242
553,617.1272120174528
554,617.2118426472273
555,617.2958981284937
556,617.3791691768921
557,617.4614488429658
558,617.5425331835977
559,617.6222219150397
560,617.7003190457124
561,617.776633487615
562,617.8509796454393
563,617.9231779823542
564,617.9930555612266
565,618.0604465599857
566,618.1251927598348
567,618.187144004889
568,618.2461586315584
569,618.302103865814
570,618.3548561866398
571,618.4043016544075
572,618.4503362031758
573,618.4928658956921
574,618.5318071394022
575,618.5670868614728
576,618.5986426408575
577,618.6264227956285
578,618.6503864240593
579,618.6705033982453
580,618.6867543094033
581,618.6991303643943
582,618.707633233473
583,618.7122748498456
584,618.7130771622798
585,618.7100718426616
586,618.7032999508293
587,618.6928115591578
588,618.6786653393384
589,618.6609281138024
590,618.6396743743553
591,618.6149857706944
592,618.5869505714736
593,618.555663100604
594,618.5212231517742
595,618.4837353847099
596,618.4433087071228
597,618.4000556464773
598,618.3540917158209
599,618.3055347781662
600,618.2545044141311
601,618.2011212974456
602,618.1455065824017
603,618.0877813065428
604,618.0280658111274
605,617.9664791813094
606,617.9031387075503
607,617.8381593694653
608,617.7716533430336
609,617.7037295319305
610,617.6344931237538
611,617.5640451721035
612,617.4924822057751
613,617.4198958667172
614,617.3463725790008
615,617.271993251773
616,617.19683301974
617,617.1209610249415
618,617.0444402435436
619,616.967327361234
620,616.8896727004441
621,616.8115202018049
622,616.732907460983
623,616.6538658207056
624,616.5744205168081
625,616.4945908766579
626,616.4143905680618
627,616.3338278965318
628,616.2529061485483
629,616.1716239783005
630,616.0899758353723
631,616.0079524309023
632,615.9255412396149
633,615.8427270345057
634,615.7594924499733
635,615.6758185682721
636,615.5916855236626
637,615.5070731185782
638,615.4219614462817
639,615.3363315145435
640,615.2501658646656
641,615.1634491797397
642,615.0761688756369
643,614.9883156680595
644,614.8998841090811
645,614.8108730869387
646,614.7212862834162
647,614.6311325839287
648,614.5404264362094
649,614.4491881541318
650,614.3574441636204
651,614.2652271880344
652,614.1725763711033
653,614.079537336471
654,613.9861621839057
655,613.8925094230616
656,613.7986438462939
657,613.7046363425028
658,613.6105636544553
659,613.5165080826067
660,613.4225571391114
661,613.3288031562566
662,613.2353428538931
663,613.1422768706431
664,613.0497092638979
665,612.9577469839185
666,612.8664993275639
667,612.7760773770547
668,612.6865934287378
669,612.5981604163286
670,612.5108913327982
671,612.4248986549849
672,612.3402937750451
673,612.2571864429459
674,612.1756842243236
675,612.0958919781119
676,612.0179113581953
677,611.941840342831
678,611.8677727947721
679,611.7957980541952
680,611.7260005658591
681,611.6584595413731
682,611.5932486569845
683,611.5304357868845
684,611.4700827717193
685,611.4122452219591
686,611.3569723561673
687,611.3043068749108
688,611.2542848717085
689,611.206935782763
690,611.1622823771522
691,611.1203407885415
692,611.0811205883768
693,611.0446248992417
694,611.010850545981
695,610.9797882415079
696,610.9514228039783
697,610.9257334021925
698,610.9026938264478
699,610.882272782324
700,610.86443420487
701,610.8491375903864
702,610.836338342653
703,610.8259881302423
704,610.8180352515642
705,610.8124250044812
706,610.8091000576552
707,610.8080008211505
708,610.8090658140441
709,610.8122320267681
710,610.8174352756264
711,610.8246105465302
712,610.8336923247343
713,610.8446149075452
714,610.8573126977197
715,610.8717204763108
716,610.8877736545919
717,610.9054085052314
718,610.9245623732071
719,610.9451738673478
720,610.9671830339333
721,610.9905315143301
722,611.0151626890292
723,611.0410218107146
724,611.0680561292663
725,611.0962150119489
726,611.1254500621563
727,611.1557152396273
728,611.1869669838735
729,611.2191643409268
730,611.2522690917577
731,611.2862458792191
732,611.3210623293853
733,611.3566891626856
734,611.3931002900526
735,611.4302728893216
736,611.4681874573683
737,611.5068278340361
738,611.5461811947977
739,611.5862380102823
740,611.6269919721075
741,611.6684398856321
742,611.7105815311149
743,611.7534194953807
744,611.7969589766798
745,611.8412075660535
746,611.8861750089657
747,611.9318729510678
748,611.9783146718623
749,612.0255148098623
750,612.073489082693
751,612.1222540055119
752,612.1718266112422
753,612.2222241762888
754,612.2734639553609
755,612.3255629285364
756,612.378537562844
757,612.4324035895814
758,612.4871757975449
759,612.5428678414069
760,612.5994920638457
761,612.6570593297946
762,612.7155788711885
763,612.7750581406076
764,612.8355026722548
765,612.8969159489543
766,612.9592992744934
767,613.022651651628
768,613.0869696671828
769,613.1522473866333
770,613.2184762612038
771,613.2856450509377
772,613.3537397675321
773,613.4227436408264
774,613.4926371123854
775,613.5633978585282
776,613.6350008437488
777,613.7074184042269
778,613.7806203602433
779,613.8545741557368
780,613.9292450229351
781,614.0045961700555
782,614.0805889905239
783,614.1571832927435
784,614.2343375497412
785,614.3120091678496
786,614.3901547731087
787,614.4687305135376
788,614.5476923748556
789,614.6269965064347
790,614.7065995531741
791,614.7864589879175
792,614.8665334384402
793,614.9467830031347
794,615.0271695500983
795,615.1076569950211
796,615.1882115539266
797,615.2688019674955
798,615.349399694443
799,615.4299790722122
800,615.5105174440462
801,615.5909952523374
802,615.6713960991092
803,615.7517067755742
804,615.831917263712
805,615.9120207134183
806,615.9920133988967
807,616.0718946576832
808,616.151666815168
809,616.2313350968232
810,616.3109075296896
811,616.3903948340109
812,616.4698103051606
813,616.5491696852389
814,616.6284910229671
815,616.7077945199711
816,616.7871023613047
817,616.8664385281437
818,616.9458285908916
819,617.0252994815175
820,617.1048792448568
821,617.1845967697352
822,617.264481501916
823,617.3445631417446
824,617.4248713297897
825,617.5054353236702
826,617.5862836689254
827,617.6674438666412
828,617.7489420408059
829,617.8308026086966
830,617.913047957609
831,617.9956981310412
832,618.0787705274084
833,618.1622796145499
834,618.2462366632992
835,618.3306495030571
836,618.4155223017451
837,618.50085537194
838,618.5866450044549
839,618.6728833301122
840,618.7595582099231
841,618.8466531534146
842,618.9341472645301
843,619.0220152145363
844,619.1102272417489
845,619.1987491783835
846,619.2875425050147
847,619.3765644328121
848,619.465768013198
849,619.5551022742939
850,619.6445123836507
851,619.7339398370983
852,619.8233226738308
853,619.9125957178829
854,620.0016908458064
855,620.0905372797971
856,620.1790619050746
857,620.2671896101291
858,620.3548436483376
859,620.4419460191439
860,620.5284178664227
861,620.6141798908701
862,620.6991527724564
863,620.7832575983225
864,620.8664162910451
865,620.9485520318467
866,621.0295896730877
867,621.1094561344659
868,621.1880807779739
869,621.2653957577074
870,621.3413363417781
871,621.4158412046155
872,621.4888526887246
873,621.5603170355237
874,621.6301845852307
875,621.6984099458793
876,621.7649521314678
877,621.8297746691193
878,621.8928456750511
879,621.9541378991177
880,622.0136287376897
881,622.071300214659
882,622.1271389303334
883,622.1811359779045
884,622.2332868271512
885,622.2835911752818
886,622.3320527653624
887,622.3786791734283
888,622.4234815658508
889,622.4664744288846
890,622.5076752729179
891,622.5471043149626
892,622.5847841439607
893,622.620739374106
894,622.6549962915153
895,622.6875824995521
896,622.7185265679655
897,622.7478576905517
898,622.7756053551007
899,622.8017990281552
900,622.8264678560647
901,622.8496403832711
902,622.8713442887012
903,622.8916061413321
904,622.9104511762882
905,622.9279030930994
906,622.9439838778526
907,622.9587136507726
908,622.9721105401745
909,622.984190582758
910,622.9949676491179
911,623.0044533926016
912,623.0126572195335
913,623.0195862792912
914,623.0252454733343
915,623.0296374827208
916,623.0327628138045
917,623.0346198618819
