frame_number,force
0,500.11917000003757
1,500.6829011246874
2,501.230885551387
3,501.7486991417932
4,502.2243253335345
5,502.64884167143356
6,503.01665969915575
7,503.32537480577014
8,503.5753527610508
9,503.7692022072052
10,503.91125561647016
11,504.0071207599796
12,504.0633014166322
13,504.0868500913755
14,504.08502091975964
15,504.06492764470937
16,504.03324692619896
17,503.99600906892454
18,503.9584850043756
19,503.9251390158143
20,503.8996009442613
21,503.88462525817164
22,503.8820306242049
23,503.8926336285172
24,503.91619916363436
25,503.9514335772936
26,503.9960481642156
27,504.04691564964907
28,504.100328517152
29,504.1523496657354
30,504.19922498318954
31,504.2378040860658
32,504.26589961280774
33,504.28252041556465
34,504.28793934076594
35,504.2835896911639
36,504.27181466453413
37,504.2555160496979
38,504.2377616973245
39,504.2214147550547
40,504.2088377934342
41,504.20170229164194
42,504.20090842692935
43,504.2066020680537
44,504.21826652619916
45,504.2348657060161
46,504.2550238361024
47,504.277233428885
48,504.3000725172656
49,504.3223945941513
50,504.3434551135332
51,504.3629600561279
52,504.3810462301031
53,504.39821739986724
54,504.415264317676
55,504.4331885880896
56,504.453129654028
57,504.476272608326
58,504.5037114866017
59,504.53626803189724
60,504.57430521839706
61,504.6175954272611
62,504.66528601891287
63,504.71596892312056
64,504.76784049524235
65,504.8189413171521
66,504.8674689713601
67,504.91213910410556
68,504.95253818657784
69,504.9893877632008
70,505.02464069256
71,505.06136027858224
72,505.10338666674636
73,505.15484830613053
74,505.21960629224617
75,505.300725521362
76,505.40005768173205
77,505.5179908122741
78,505.6533664001745
79,505.80351836308944
80,505.9643854074012
81,506.13068481746217
82,506.29617016903427
83,506.45399608598785
84,506.5971859505559
85,506.7191680597518
86,506.8143263360448
87,506.8785052120576
88,506.90941298783616
89,506.9068786350221
90,506.87292783627316
91,506.8116548450997
92,506.7288829669675
93,506.6316333337977
94,506.52745677201983
95,506.42371645091237
96,506.32692831973105
97,506.24226198844684
98,506.17327061946395
99,506.12186352445536
100,506.0884819963996
101,506.0724067821812
102,506.0721223579779
103,506.0856844054754
104,506.11106255573077
105,506.1464359251123
106,506.1904016999076
107,506.24204325835177
108,506.3008240888781
109,506.366330606709
110,506.43794868004613
111,506.5145839246014
112,506.5945135146738
113,506.67541024482375
114,506.75453325463815
115,506.8290411219513
116,506.89635133623966
117,506.95445585002756
118,507.00211878261615
119,507.0389231529906
120,507.0651772683638
121,507.0817241138136
122,507.08971368645615
123,507.0903941408496
124,507.0849586335563
125,507.0744695031084
126,507.0598758789128
127,507.0421262208606
128,507.02234003631395
129,507.0019619575537
130,506.98281043434287
131,506.96696764746315
132,506.95652311812313
133,506.95324818671577
134,506.9583074431905
135,506.9720920465761
136,506.99420740419583
137,507.02359882242945
138,507.05877268765556
139,507.09806444951624
140,507.1399119899255
141,507.18310734226446
142,507.22700577117706
143,507.2716607371118
144,507.31784014953223
145,507.36688234266467
146,507.4203760721082
147,507.47969378551295
148,507.54545822153875
149,507.6170582317423
150,507.69233468871
151,507.7675307757833
152,507.8375532022907
153,507.8965308302627
154,507.9385887888021
155,507.9586900475076
156,507.9533593497865
157,507.9211270029611
158,507.86261678289304
159,507.78031330372255
160,507.678122077285
161,507.5608565652565
162,507.4337694291965
163,507.3022084625651
164,507.17142105505184
165,507.0464643819108
166,506.9321369288164
167,506.83285929359334
168,506.75248829328933
169,506.6941047356946
170,506.65982859476145
171,506.6506816129361
172,506.6664806011544
173,506.7057492463129
174,506.76567306786603
175,506.84214598113164
176,506.929946221938
177,507.02305249379674
178,507.11508921221986
179,507.19987078572126
180,507.27198992042
181,507.32736980359994
182,507.36368961108644
183,507.3806034279737
184,507.3797021743723
185,507.364214850255
186,507.3385047007884
187,507.3074682429177
188,507.2759596254022
189,507.24832698342027
190,507.2280886515447
191,507.2177358994009
192,507.21863569348835
193,507.23100493288644
194,507.2539297414878
195,507.2854201853078
196,507.3225207582554
197,507.3615147627393
198,507.39824283215745
199,507.42850938178134
200,507.44850868730543
201,507.4551918591885
202,507.44651888535157
203,507.421578480108
204,507.38059006614475
205,507.3248132157788
206,507.2563858261492
207,507.1781097821623
208,507.09320778428577
209,507.0050769652322
210,506.9170557920915
211,506.83220805044255
212,506.7531235288097
213,506.681740808324
214,506.6192044146949
215,506.5657686642034
216,506.5207565539977
217,506.4825812796025
218,506.44883643584683
219,506.41644907039375
220,506.3818763104048
221,506.3413316657979
222,506.2910470907275
223,506.22758274447494
224,506.1481767505694
225,506.05110089635275
226,505.93597212490704
227,505.80396189083393
228,505.6578446390288
229,505.50184317548633
230,505.3412653454054
231,505.1819669326971
232,505.02970482030275
233,504.8894650096088
234,504.7648667109728
235,504.6577461183571
236,504.56800193378143
237,504.4937445725025
238,504.4317398675328
239,504.37807873884304
240,504.32894720036586
241,504.2813360763114
242,504.2335311883606
243,504.1852657294032
244,504.137494962361
245,504.09185648136605
246,504.04997224023987
247,504.0127902513929
248,503.98013922884616
249,503.95059496160616
250,503.9216621996653
251,503.89019176334705
252,503.85290754806726
253,503.8069211682766
254,503.75014567335455
255,503.68156013732965
256,503.6013112086031
257,503.5106564087512
258,503.4117534043303
259,503.30729900545816
260,503.20004643009287
261,503.0922751064378
262,502.9853251485752
263,502.87931452353297
264,502.7731242506148
265,502.66467596959575
266,502.55145525310144
267,502.43116911448504
268,502.30238409929984
269,502.16499133859156
270,502.020391551539
271,501.87136745325813
272,501.7216864793003
273,501.57553226295346
274,501.43688589270494
275,501.3089664590441
276,501.1938092924324
277,501.0920292382812
278,501.0027923626388
279,500.92399467548734
280,500.8526139631407
281,500.7851679310911
282,500.7181947870058
283,500.6486818818614
284,500.57439793732004
285,500.4941137213678
286,500.4077101384984
287,500.3161768582405
288,500.2215086383066
289,500.12651076795964
290,500.0345264895267
291,499.949097988325
292,499.873575871133
293,499.8107109280718
294,499.7622892062326
295,499.7288775508821
296,499.7097175621033
297,499.7027651915229
298,499.70485187073496
299,499.71194507722566
300,499.7194947851381
301,499.7228502100774
302,499.7177137527238
303,499.7005811242088
304,499.6691186380174
305,499.6224448373146
306,499.5612889455876
307,499.4879904663425
308,499.40630741319154
309,499.32103109589184
310,499.2374533745016
311,499.1607754813258
312,499.0955659328589
313,499.0453613596192
314,499.0124672985021
315,498.99797125933907
316,499.0019352662869
317,499.0236929515446
318,499.06215095646894
319,499.11600748843136
320,499.1838555919893
321,499.26420246269544
322,499.35546381015916
323,499.4559707047744
324,499.5639866722254
325,499.6777149260062
326,499.79528837107466
327,499.91475930012837
328,500.0341248479827
329,500.1514272977344
330,500.2649409914214
331,500.37340715363825
332,500.4762450894535
333,500.57367843357423
334,500.66674310103855
335,500.75715565703433
336,500.8470271249672
337,500.93843915600246
338,501.0329519658542
339,501.13114646694135
340,501.23229644109136
341,501.334240565816
342,501.43349952741005
343,501.5256522927736
344,501.6059358951159
345,501.6699786377186
346,501.7145420923752
347,501.7381411206679
348,501.74142927389886
349,501.7272781055054
350,501.7005402494012
351,501.6675521816276
352,501.63548330872567
353,501.6116610868054
354,501.6029909463536
355,501.61554298485817
356,501.65430624937994
357,501.72304614789056
358,501.82417760327695
359,501.9585994316294
360,502.1254963199754
361,502.3221616745653
362,502.5439125494243
363,502.7841658395699
364,503.0347269076296
365,503.28630512737976
366,503.5292217638478
367,503.7542299613181
368,503.95334097699066
369,504.1205532378523
370,504.2524005151444
371,504.3482511930848
372,504.41029943881153
373,504.4432138858461
374,504.45346666834723
375,504.44843966825465
376,504.43546249389027
377,504.42095317764
378,504.4098009892109
379,504.405065299515
380,504.407994411725
381,504.41831739268014
382,504.4347346675148
383,504.455519707116
384,504.47913401948455
385,504.50475015968885
386,504.5325809389827
387,504.563938012797
388,504.60099535518987
389,504.6463043059806
390,504.70217370229653
391,504.77006742481177
392,504.85016855167135
393,504.941211221351
394,505.04060304242086
395,505.1447870553686
396,505.24975205606324
397,505.3515914872635
398,505.447016693906
399,505.53374528632327
400,505.6107098344583
401,505.67805689904384
402,505.73692872808186
403,505.7890562677474
404,505.83625010151246
405,505.87992361752174
406,505.92077586235877
407,505.9586998357834
408,505.99290986430924
409,506.02223615466727
410,506.04551630483144
411,506.0620040783948
412,506.07170628465843
413,506.0755605996098
414,506.0753954708111
415,506.07366388560513
416,506.072998473063
417,506.0756816258817
418,506.0831461427465
419,506.0956059919169
420,506.1118731042612
421,506.12937483041907
422,506.14436280279534
423,506.1522870881793
424,506.1482893838714
425,506.1277485609891
426,506.08680073313127
427,506.02276273169963
428,505.934413068871
429,505.82212154283246
430,505.6878576179638
431,505.53512903213255
432,505.36888175938293
433,505.19533705819066
434,505.02170315022335
435,504.85572453840484
436,504.7051026587517
437,504.57687775463467
438,504.4768736402536
439,504.4092872840303
440,504.37647100744954
441,504.3789173349431
442,504.4154287110087
443,504.48343789553223
444,504.5794252344533
445,504.6993558938742
446,504.8390538119098
447,504.9944468125306
448,505.1616464117581
449,505.3368631615545
450,505.5162130068626
451,505.69552933639284
452,505.8703133900399
453,506.0359009580888
454,506.1878280388459
455,506.3223078316075
456,506.43671206297563
457,506.5299608714779
458,506.60275168124195
459,506.6575978507855
460,506.69868605356976
461,506.73157371667116
462,506.7627417215163
463,506.799025312141
464,506.846978950278
465,506.9122622033451
466,506.99913261600597
467,507.11009721782085
468,507.24573305536154
469,507.404662343607
470,507.5836623574239
471,507.77789372702773
472,507.98123255596937
473,508.18668535331835
474,508.3868527007723
475,508.57439707400664
476,508.74247083055377
477,508.88507281914497
478,508.99731994690177
479,509.07563672359794
480,509.1178804270862
481,509.1234304742689
482,509.09326701035417
483,509.0300382203942
484,508.9380817436656
485,508.8233475213016
486,508.6931807305177
487,508.55595689450064
488,508.4205932073726
489,508.2959682900135
490,508.1902727111695
491,508.1103174325257
492,508.0608648105757
493,508.04409268025637
494,508.05931554090705
495,508.10305049829685
496,508.16944479572675
497,508.25100442805723
498,508.33950017500973
499,508.4268944107628
500,508.50614226287695
501,508.5717682839917
502,508.62017983676685
503,508.64972973117483
504,508.6605750403695
505,508.6543928778716
506,508.6340088154659
507,508.60298228303435
508,508.56518901654664
509,508.5244385100257
510,508.48414946443364
511,508.44708435045794
512,508.41514251409313
513,508.38923566091995
514,508.369287051707
515,508.35437740782237
516,508.34301832084014
517,508.33349544305065
518,508.3241981912938
519,508.3138434056326
520,508.30152237510083
521,508.2865608285768
522,508.26825437927624
523,508.24558559301784
524,508.217025555708
525,508.18048941949587
526,508.13347477964487
527,508.07337169314735
528,507.9978935661055
529,507.9055429711745
530,507.7960061322155
531,507.67037633859087
532,507.5311451151657
533,507.38196133492636
534,507.2272187142932
535,507.071566233671
536,506.91943654089346
537,506.77466614146556
538,506.64025213312806
539,506.5182594463483
540,506.40986410925524
541,506.315497257707
542,506.2350449515846
543,506.1680631608031
544,506.11398331369236
545,506.07229706202696
546,506.04270574130703
547,506.02520620097414
548,506.02007978684276
549,506.0277703818941
550,506.04867763212883
551,506.08292591167685
552,506.1301693362305
553,506.1894655363898
554,506.2592308257837
555,506.3372895063907
556,506.4210322913487
557,506.5076888386143
558,506.5946955610748
559,506.6801027174457
560,506.7629262149581
561,506.84333654073833
562,506.92260646557526
563,507.0027992100566
564,507.0862445514218
565,507.1749043053774
566,507.26976182557553
567,507.3703725217185
568,507.47467648811255
569,507.5791094991413
570,507.6789784091137
571,507.76901275943067
572,507.84397846172106
573,507.89924406336985
574,507.93121631211824
575,507.9375973343176
576,507.91745521139705
577,507.87114115642726
578,507.80011999765594
579,507.70678791877407
580,507.5943261433918
581,507.4666013521991
582,507.3280985604858
583,507.1838640671025
584,507.0394325331202
585,506.9007057167027
586,506.77374273353786
587,506.6644197628736
588,506.5779362259849
589,506.5181999125907
590,506.4872027543833
591,506.48455537995034
592,506.5073376258456
593,506.5503419099887
594,506.6066804262959
595,506.66864594037736
596,506.72867526638487
597,506.7802505104569
598,506.81858466867135
599,506.84099241352186
600,506.84693481444486
601,506.83780173956126
602,506.81652635957875
603,506.78712503718555
604,506.7542434353166
605,506.72276693948015
606,506.697520177877
607,506.6830490796366
608,506.6834609403962
609,506.7022920823294
610,506.74237344864434
611,506.805673722183
612,506.8931201886509
613,507.00442044183666
614,507.13792058362856
615,507.2905400585651
616,507.45782900603393
617,507.6341947230273
618,507.81331906601326
619,507.98873085413044
620,508.15443073993305
621,508.305433874843
622,508.4381258027101
623,508.55040467306424
624,508.6416583939856
625,508.71265345395113
626,508.7653863538433
627,508.80289933979833
628,508.82902710786465
629,508.8480406325831
630,508.8641865441263
631,508.88116683233096
632,508.90163913401585
633,508.92682812621047
634,508.95632535499226
635,508.9881250419322
636,509.01890146585185
637,509.0444849873435
638,509.0604514821444
639,509.0627219670986
640,509.04808163125864
641,509.0145520787045
642,508.961566301974
643,508.8899103624316
644,508.80143540607526
645,508.69861080820186
646,508.58404603830303
647,508.46011393606676
648,508.3287631248983
649,508.1915514690974
650,508.0498916102099
651,507.90546370162537
652,507.76070616918497
653,507.6192562788777
654,507.4862064394227
655,507.3680789551524
656,507.2724800406522
657,507.20744387417744
658,507.1805141972155
659,507.1976558247253
660,507.2621537694613
661,507.3737161694333
662,507.5279998979137
663,507.71670352552525
664,507.9282481803051
665,508.14894065153163
666,508.3644221723153
667,508.56116931393876
668,508.7278285411126
669,508.8562155600469
670,508.94187953563727
671,508.98421375468865
672,508.98617366359275
673,508.95371268834583
674,508.89504704110794
675,508.81982781711946
676,508.7382716666554
677,508.6603020681477
678,508.59476523983756
679,508.5487805979124
680,508.5272617264591
681,508.5326217849353
682,508.56467447816885
683,508.62074744849315
684,508.69601698507796
685,508.78404739531464
686,508.8774880572874
687,508.96885570426355
688,509.05130959558755
689,509.11931406332405
690,509.1690879326728
691,509.1987767794155
692,509.2083438604362
693,509.19923239941664
694,509.17389236089207
695,509.1352907196798
696,509.0865237707362
697,509.0306036551165
698,508.9704097716834
699,508.9087240596966
700,508.84824856618525
701,508.7915418749885
702,508.7408796844216
703,508.6980984209707
704,508.6644901640462
705,508.6407910619828
706,508.6272713253999
707,508.62390845009
708,508.63060561348345
709,508.64739900816346
710,508.6745829040019
711,508.71268306879125
712,508.7622428088596
713,508.82344677566346
714,508.89567115540166
715,508.97708952127925
716,509.06446355866757
717,509.1531999563707
718,509.2376761501732
719,509.31176605500804
720,509.3694612542304
721,509.4054862621378
722,509.4158346863899
723,509.3981860743785
724,509.3521809866631
725,509.2795300730187
726,509.1839288223424
727,509.0707633952878
728,508.9466274364957
729,508.81870883129
730,508.69412723412137
731,508.57929964434913
732,508.4793933484595
733,508.39790745201316
734,508.33641117524553
735,508.2944600487919
736,508.26970924059384
737,508.25823738013594
738,508.2550705987727
739,508.25485280378854
740,508.25256189671074
741,508.2441487845785
742,508.2269908325737
743,508.20009415315053
744,508.16402769889805
745,508.1206158975258
746,508.0724587140852
747,508.0223852197208
748,507.9729606735228
749,507.9261409948866
750,507.88310854662467
751,507.8442592988147
752,507.8092744601991
753,507.77721303664913
754,507.74660098010025
755,507.7155426954555
756,507.68190117834473
757,507.6435622873468
758,507.5987421165608
759,507.5462617638472
760,507.485720491066
761,507.41752843240334
762,507.34279361394414
763,507.2630926054399
764,507.1801857501256
765,507.09574994506073
766,507.01118547306106
767,506.9275213567059
768,506.84541400054303
769,506.76521387462697
770,506.6870673171612
771,506.61102534271714
772,506.5371413601644
773,506.46554752395315
774,506.3965051131504
775,506.33042949650957
776,506.2678930040402
777,506.20960694853795
778,506.1563787404425
779,506.10903766141774
780,506.0683282089998
781,506.0347822092585
782,506.00859478363736
783,505.98953441938227
784,505.97690565457225
785,505.9695634746888
786,505.9659685685217
787,505.9642708213906
788,505.9624042087418
789,505.95817586768294
790,505.9493466229056
791,505.93372226946
792,505.909287183251
793,505.8744027331475
794,505.82806124705644
795,505.77014647003307
796,505.7016288167517
797,505.62463186068493
798,505.5423362008711
799,505.45872166561907
800,505.3781828039162
801,505.3050859943434
802,505.243359208122
803,505.1961977063151
804,505.1659253469929
805,505.15399609542527
806,505.16108629463633
807,505.1872219880486
808,505.2318911336284
809,505.29410254607785
810,505.37237961538875
811,505.4647091681579
812,505.5684833134736
813,505.6804708804427
814,505.796848329203
815,505.9133162334279
816,506.02532179910145
817,506.12838841596
818,506.2185166411907
819,506.29258423504757
820,506.348658838785
821,506.3861526281176
822,506.4057862961394
823,506.4093783205411
824,506.39951487018817
825,506.37916293032316
826,506.35126697494036
827,506.3183512445713
828,506.28215784694885
829,506.2433703876459
830,506.2014765723409
831,506.154803002817
832,506.10072184390236
833,506.0359968406263
834,505.9572133866866
835,505.861224314414
836,505.7455405400785
837,505.6086099178294
838,505.44996126308973
839,505.2702316611362
840,505.07112353160255
841,504.85533982247705
842,504.62652093233663
843,504.38916812228376
844,504.1485071647804
845,503.91024274097
846,503.6801827491559
847,503.46375796561193
848,503.2655046412635
849,503.08859739411133
850,502.93450846301613
851,502.802835496727
852,502.691308600921
853,502.595978024776
854,502.51158887683107
855,502.43214122613375
856,502.35159843600695
857,502.2646599783629
858,502.1674830133134
859,502.0582300808402
860,501.9373416904076
861,501.80748648089957
862,501.67321392594334
863,501.54039026188195
864,501.41551420555425
865,501.3049940871117
866,501.2144471475721
867,501.14807443714295
868,501.10817579198135
869,501.09488362454584
870,501.10618403920563
871,501.13824556709534
872,501.18600828651466
873,501.2439323227423
874,501.3067801574256
875,501.3703037051662
876,501.4317151203548
877,501.48984696210977
878,501.544966558869
879,501.5982943417761
880,501.651353014699
881,501.705312789169
882,501.7604933103636
883,501.8161436517255
884,501.87055127058244
885,501.9214423210248
886,501.96656130916256
887,502.00428182324197
888,502.0341010824923
889,502.05690132670435
890,502.0749148754642
891,502.09139344133945
892,502.11004029996974
893,502.13431167180534
894,502.16672780538676
895,502.2083401995211
896,502.25846649019667
897,502.3147356249149
