frame_number,force
0,873.8209643120744
1,873.8577242454448
2,873.8904754949688
3,873.9190203313234
4,873.9431660839278
5,873.9627259851795
6,873.9775200326164
7,873.9873758576246
8,873.9921295885238
9,873.9916266961219
10,873.9857228109045
11,873.9742845024157
12,873.9571900127487
13,873.9343299374167
14,873.9056078482284
15,873.870940854016
16,873.8302600962538
17,873.7835111781079
18,873.7306545272228
19,873.6716656939382
20,873.6065355870592
21,873.5352706490598
22,873.4578929723504
23,873.3744403580816
24,873.2849663185765
25,873.1895400238625
26,873.0882461921759
27,872.9811849236047
28,872.8684714748899
29,872.750235971926
30,872.6266230554718
31,872.4977914556781
32,872.3639134921821
33,872.2251744981847
34,872.081772168902
35,871.9339158373148
36,871.7818256831606
37,871.6257318837006
38,871.465873716034
39,871.3024986207076
40,871.1358612359264
41,870.9662224113331
42,870.7938482100424
43,870.6190089072594
44,870.4419779933469
45,870.2630311885957
46,870.0824454761679
47,869.9004981585978
48,869.717465941486
49,869.5336240454055
50,869.3492453440867
51,869.1645995246296
52,868.9799522644647
53,868.7955644201411
54,868.6116912244236
55,868.4285814901065
56,868.2464768208721
57,868.0656108311069
58,867.8862083778043
59,867.7084848088037
60,867.5326452328719
61,867.3588838181705
62,867.1873831257575
63,867.0183134836891
64,866.8518324055036
65,866.6880840550726
66,866.5271987587361
67,866.3692925658895
68,866.2144668606358
69,866.0628080287594
70,865.9143871852467
71,865.7692599678772
72,865.6274664025896
73,865.4890308467088
74,865.3539620166799
75,865.2222531073438
76,865.0938820093983
77,864.9688116301752
78,864.8469903205621
79,864.7283524082354
80,864.6128188342983
81,864.5002978870252
82,864.3906860235148
83,864.2838687684476
84,864.1797216787199
85,864.0781113629705
86,863.9788965457662
87,863.8819291674591
88,863.7870555121749
89,863.694117357723
90,863.6029531422205
91,863.5133991426736
92,863.425290660435
93,863.3384632072936
94,863.2527536840371
95,863.1680015409522
96,863.0840499076528
97,863.0007466788501
98,862.9179455436553
99,862.8355069482487
100,862.7532989843002
101,862.6711981978578
102,862.5890903155229
103,862.5068708866812
104,862.4244458424297
105,862.341731973488
106,862.258657330461
107,862.1751615498862
108,862.0911961085231
109,862.006724506769
110,861.9217223807245
111,861.836177542008
112,861.7500899448962
113,861.663471580988
114,861.5763463017406
115,861.4887495690851
116,861.4007281343823
117,861.3123396464642
118,861.2236521905977
119,861.1347437621024
120,861.0457016808584
121,860.9566219552718
122,860.8676086059901
123,860.7787729610372
124,860.6902329350464
125,860.6021123052459
126,860.514539995573
127,860.427649378597
128,860.3415776034859
129,860.2564649567212
130,860.1724542601705
131,860.0896903088379
132,860.0083193488105
133,859.9284885947491
134,859.8503457853254
135,859.7740387739258
136,859.699715150653
137,859.6275218903382
138,859.5576050204717
139,859.4901093034226
140,859.4251779291884
141,859.3629522172095
142,859.3035713273789
143,859.2471719810882
144,859.1938881934577
145,859.1438510180471
146,859.0971883052983
147,859.0540244758145
148,859.0144803093839
149,858.9786727504664
150,858.9467147307171
151,858.9187150091645
152,858.8947780310504
153,858.8750038069998
154,858.8594878147013
155,858.8483209249545
156,858.8415893523064
157,858.8393746278697
158,858.8417535896228
159,858.8487983848673
160,858.8605764807596
161,858.8771506810318
162,858.8985791489575
163,858.9249154377488
164,858.9562085301848
165,858.9925028899113
166,859.0338385274804
167,859.0802510843082
168,859.1317719370029
169,859.1884283232005
170,859.2502434887352
171,859.3172368550518
172,859.3894242054133
173,859.4668178886218
174,859.5494270390789
175,859.6372578113152
176,859.7303136257273
177,859.8285954214092
178,859.9321019126039
179,860.0408298470152
180,860.1547742658113
181,860.2739287657582
182,860.3982857634792
183,860.5278367607956
184,860.6625726091386
185,860.8024837705829
186,860.9475605730822
187,861.0977934575203
188,861.2531732139902
189,861.4136912044951
190,861.5793395691749
191,861.750111413081
192,861.9260009701436
193,862.1070037402999
194,862.2931165951593
195,862.4843378475967
196,862.6806672816228
197,862.8821061406605
198,863.0886570743072
199,863.3003240449381
200,863.5171121959468
201,863.7390276836962
202,863.9660774759457
203,864.1982691204264
204,864.4356104879527
205,864.6781094948554
206,864.9257738097441
207,865.1786105496385
208,865.4366259702662
209,865.6998251547473
210,865.9682117041402
211,866.2417874326089
212,866.5205520693873
213,866.8045029692618
214,867.0936348329578
215,867.3879394386256
216,867.6874053854688
217,867.9920178501002
218,868.3017583550454
219,868.6166045470219
220,868.9365299806537
221,869.2615039015091
222,869.5914910209507
223,869.9264512746614
224,870.2663395572896
225,870.6111054273368
226,870.9606927783526
227,871.3150394738853
228,871.6740769444423
229,872.037729745696
230,872.4059150789536
231,872.7785422771734
232,873.1555122618287
233,873.5367169775755
234,873.9220388133049
235,874.3113500198606
236,874.7045121362581
237,875.1013754374355
238,875.5017784172599
239,875.9055473206402
240,876.3124957380581
241,876.7224242743997
242,877.1351203016144
243,877.5503578019332
244,877.9678973057224
245,878.3874859257277
246,878.8088574874961
247,879.231732754419
248,879.6558197452867
249,880.0808141422108
250,880.50639978665
251,880.9322492607552
252,881.3580245505292
253,881.7833777868211
254,882.2079520599682
255,882.6313823037432
256,883.0532962440916
257,883.4733154079403
258,883.891056186786
259,884.3061309485854
260,884.7181491901566
261,885.1267187217413
262,885.5314468757057
263,885.931941731653
264,886.3278133496748
265,886.7186750024142
266,887.104144396023
267,887.4838448703964
268,887.8574065700155
269,888.2244675779743
270,888.5846750070335
271,888.9376860425124
272,889.2831689323168
273,889.6208039195412
274,889.9502841130652
275,890.271316291431
276,890.583621635023
277,890.8869363813782
278,891.1810123987963
279,891.4656176746992
280,891.7405367172832
281,892.0055708711931
282,892.2605385495809
283,892.5052753859313
284,892.7396343096827
285,892.9634855499887
286,893.1767165717399
287,893.3792319472337
288,893.5709531658841
289,893.7518183834379
290,893.9217821115661
291,894.0808148486603
292,894.2289026531712
293,894.3660466616315
294,894.4922625544656
295,894.607579973836
296,894.7120418990694
297,894.8057039864418
298,894.888633881082
299,894.9609105094165
300,895.0226233608219
301,895.0738717668403
302,895.1147641854211
303,895.1454174963128
304,895.1659563122721
305,895.1765123093577
306,895.1772235782906
307,895.1682339977859
308,895.1496926301044
309,895.1217531388093
310,895.084573228506
311,895.0383141059067
312,894.9831399610564
313,894.919217467406
314,894.8467152996218
315,894.7658036680215
316,894.6766538680004
317,894.5794378419821
318,894.4743277505569
319,894.3614955486465
320,894.241112562146
321,894.1133490611078
322,893.9783738272637
323,893.8363537159655
324,893.6874532148107
325,893.5318340030279
326,893.3696545172769
327,893.2010695308726
328,893.0262297540332
329,892.8452814621429
330,892.6583661577561
331,892.4656202711398
332,892.2671749037487
333,892.0631556187035
334,891.8536822818767
335,891.6388689567044
336,891.4188238552874
337,891.1936493476459
338,890.9634420302327
339,890.7282928540524
340,890.4882873118743
341,890.2435056830614
342,889.9940233337697
343,889.739911070093
344,889.481235542124
345,889.2180596975095
346,888.9504432835134
347,888.6784433968734
348,888.4021150809353
349,888.121511969586
350,887.8366869772448
351,887.5476930337743
352,887.2545838626886
353,886.9574147999718
354,886.6562436485685
355,886.3511315604408
356,886.0421439349747
357,885.729351320298
358,885.4128303029772
359,885.0926643714096
360,884.7689447388008
361,884.4417711128242
362,884.1112524005907
363,883.777507338964
364,883.4406650413381
365,883.100865453029
366,882.7582597087624
367,882.4130103874137
368,882.0652916608296
369,881.715289334804
370,881.3632007809937
371,881.0092347590531
372,880.6536111289599
373,880.29656045435
374,879.9383234980972
375,879.5791506110005
376,879.2193010135762
377,878.8590419702455
378,878.4986478549844
379,878.1383991077083
380,877.7785810811818
381,877.4194827792074
382,877.0613954884249
383,876.7046113083326
384,876.3494215871849
385,875.9961152750697
386,875.6449772092316
387,875.2962863497536
388,874.9503139853916
389,874.607321929571
390,874.2675607257552
391,873.9312678802431
392,873.5986661392819
393,873.2699618259793
394,872.9453432503598
395,872.624979203036
396,872.3090175401912
397,871.997583865865
398,871.6907803171513
399,871.3886844581966
400,871.0913482891326
401,870.7987973763122
402,870.5110301111037
403,870.2280171062866
404,869.9497007409409
405,869.6759948654782
406,869.406784677947
407,869.1419267815136
408,868.8812494313595
409,868.6245529767508
410,868.3716105004296
411,868.1221686533216
412,867.8759486789253
413,867.6326476192804
414,867.3919396929031
415,867.153477834008
416,866.9168953814751
417,866.6818079050319
418,866.447815154577
419,866.2145031164638
420,865.9814461587677
421,865.748209247124
422,865.5143502138661
423,865.2794220653404
424,865.0429753147152
425,864.8045603297688
426,864.5637296864057
427,864.320040518485
428,864.0730568531562
429,863.8223519193846
430,863.5675104167891
431,863.3081307325706
432,863.043827095735
433,862.774231659734
434,862.4989965070077
435,862.2177955714444
436,861.9303264769604
437,861.6363122920449
438,861.335503201407
439,861.0276780966658
440,860.7126460877688
441,860.3902479353818
442,860.0603574025276
443,859.7228825220815
444,859.3777667756647
445,859.0249901789247
446,858.6645702680307
447,858.296562982424
448,857.9210634392343
449,857.538206594778
450,857.1481677879148
451,856.7511631591561
452,856.3474499387725
453,855.9373265967735
454,855.5211328473703
455,855.0992495005534
456,854.672098154097
457,854.2401407204842
458,853.8038787844011
459,853.3638527874425
460,852.9206410379792
461,852.4748585460907
462,852.0271556856826
463,851.5782166874988
464,851.1287579671309
465,850.6795262915127
466,850.2312967864833
467,849.7848707873948
468,849.3410735343493
469,848.900751713108
470,848.4647708421807
471,848.0340125068234
472,847.6093714421685
473,847.1917524702818
474,846.7820672987556
475,846.3812311907166
476,845.9901595176951
477,845.6097642080459
478,845.240950104953
479,844.8846112495493
480,844.5416271064079
481,844.2128587508173
482,843.8991450398263
483,843.6012987915407
484,843.3201029989436
485,843.0563071051515
486,842.8106233664987
487,842.5837233285051
488,842.3762344382186
489,842.1887368153847
490,842.0217602048534
491,841.8757811333201
492,841.751220294081
493,841.648440183262
494,841.5677430095177
495,841.5093688963364
496,841.4734943922256
497,841.4602313000778
498,841.469625833334
499,841.5016581031288
500,841.5562419376464
501,841.6332250328452
502,841.7323894321771
503,841.8534523312032
504,841.9960672008399
505,842.1598252208585
506,842.3442570137595
507,842.5488346683351
508,842.7729740416811
509,843.0160373274912
510,843.2773358768923
511,843.5561332560674
512,843.8516485228732
513,844.1630597030056
514,844.4895074452
515,844.8300988344414
516,845.1839113418372
517,845.5499968889785
518,845.9273860027312
519,846.3150920337429
520,846.7121154094373
521,847.1174478906397
522,847.530076800446
523,847.9489891942608
524,848.3731759406637
525,848.8016356837087
526,849.2333786586694
527,849.6674303351904
528,850.1028348639894
529,850.5386583056818
530,850.9739916233784
531,851.4079534242512
532,851.8396924385694
533,852.2683897277375
534,852.6932606159897
535,853.1135563432945
536,853.5285654390398
537,853.9376148173978
538,854.3400705967123
539,854.735338647265
540,855.1228648742833
541,855.5021352455323
542,855.8726755747547
543,856.2340510735033
544,856.5858656849674
545,856.9277612144092
546,857.2594162717447
547,857.5805450427401
548,857.8908959064186
549,858.1902499174339
550,858.4784191731047
551,858.7552450853291
552,859.020596577541
553,859.2743682261878
554,859.5164783652232
555,859.7468671712369
556,859.9654947462673
557,860.1723392148577
558,860.367394851029
559,860.5506702494098
560,860.7221865532174
561,860.8819757502808
562,861.0300790465755
563,861.1665453246976
564,861.2914296929553
565,861.4047921298244
566,861.506696228145
567,861.5972080428046
568,861.6763950444129
569,861.7443251799609
570,861.8010660401277
571,861.8466841317743
572,861.8812442533012
573,861.9048089702618
574,861.9174381892029
575,861.9191888288121
576,861.9101145883542
577,861.8902658136826
578,861.8596894610552
579,861.8184291589552
580,861.7665253679467
581,861.704015637839
582,861.6309349600897
583,861.547316212073
584,861.4531906891542
585,861.3485887201564
586,861.2335403609472
587,861.1080761592425
588,860.9722279819615
589,860.8260298951499
590,860.6695190853444
591,860.5027368096858
592,860.3257293600452
593,860.1385490246726
594,859.9412550303359
595,859.7339144491297
596,859.5166030568522
597,859.2894061332973
598,859.0524191980071
599,858.805748677403
600,858.5495125007254
601,858.2838406231973
602,858.0088754755355
603,857.724772339367
604,857.4316996482357
605,857.1298392138572
606,856.819386377362
607,856.5005500857314
608,856.1735528941941
609,855.8386308954966
610,855.4960335765433
611,855.1460236024157
612,854.7888765276957
613,854.4248804354135
614,854.0543355046626
615,853.6775535087809
616,853.2948572468337
617,852.9065799120625
618,852.5130644020102
619,852.1146625760135
620,851.7117344663412
621,851.3046474493788
622,850.8937753831699
623,850.4794977178257
624,850.0621985863597
625,849.6422658853209
626,849.2200903563045
627,848.7960646800863
628,848.3705825944863
629,847.9440380456679
630,847.5168243813126
631,847.0893335935531
632,846.6619556194036
633,846.2350777060916
634,845.8090838479836
635,845.3843543008223
636,844.9612651774528
637,844.5401881266647
638,844.1214900935519
639,843.7055331570589
640,843.2926744391561
641,842.883266080231
642,842.477655275954
643,842.076184371455
644,841.6791910091541
645,841.2870083272245
646,840.8999652063977
647,840.5183865634172
648,840.1425936897389
649,839.7729046339441
650,839.4096346254242
651,839.0530965349385
652,838.7036013650978
653,838.3614587616379
654,838.0269775349556
655,837.7004661804957
656,837.3822333857767
657,837.0725885111374
658,836.7718420310147
659,836.4803059228117
660,836.1982939907772
661,835.9261221122272
662,835.6641083927494
663,835.4125732161928
664,835.1718391751541
665,834.9422308691658
666,834.72407456103
667,834.517697686045
668,834.3234282132
669,834.1415938611559
670,833.9725211748511
671,833.8165344708688
672,833.6739546612888
673,833.5450979669694
674,833.430274532607
675,833.3297869577652
676,833.243928760172
677,833.1729827894815
678,833.1172196107273
679,833.0768958763985
680,833.0522527046287
681,833.0435140793355
682,833.0508852872738
683,833.0745514072223
684,833.1146758673501
685,833.1713990873448
686,833.2448372216056
687,833.335081018729
688,833.442194811073
689,833.5662156469139
690,833.707152576819
691,833.8649861051143
692,834.0396678163256
693,834.2311201850988
694,834.439236576418
695,834.6638814408158
696,834.9048907065737
697,835.1620723679981
698,835.4352072663817
699,835.7240500583919
700,836.0283303646173
701,836.3477540880596
702,836.6820048886244
703,837.0307457961502
704,837.3936209418921
705,837.7702573864492
706,838.1602670204451
707,838.5632485130077
708,838.9787892826891
709,839.4064674659866
710,839.8458538597926
711,840.2965138157258
712,840.7580090660688
713,841.2298994624326
714,841.7117446092902
715,842.2031053759501
716,842.7035452728384
717,843.2126316804802
718,843.7299369215134
719,844.2550391673813
720,844.7875231725563
721,845.3269808306533
722,845.8730115489004
723,846.4252224402941
724,846.9832283360505
725,847.5466516240224
726,848.1151219209349
727,848.6882755876686
728,849.2657550982691
729,849.8472082758857
730,850.4322874123706
731,851.0206482917663
732,851.6119491404397
733,852.2058495281287
734,852.802009245146
735,853.4000871817864
736,853.9997402364818
737,854.6006222790891
738,855.2023831947386
739,855.8046680318511
740,856.4071162752123
741,857.009361261605
742,857.611029751964
743,858.2117416708619
744,858.8111100215037
745,859.4087409819117
746,860.0042341850269
747,860.597183181826
748,861.1871760826098
749,861.7737963677491
750,862.3566238555311
751,862.9352358116699
752,863.5092081831808
753,864.0781169388092
754,864.6415394983717
755,865.1990562335168
756,865.7502520227677
757,866.294717844747
758,866.8320523949124
759,867.361863712105
760,867.8837708013659
761,868.3974052391973
762,868.9024127474133
763,869.3984547224597
764,869.8852097087101
765,870.362374806375
766,870.829667006754
767,871.2868244497588
768,871.7336076014983
769,872.1698003531867
770,872.5952110458418
771,873.0096734273961
772,873.413047549635
773,873.8052206117583
774,874.1861077555544
775,874.5556528148704
776,874.9138290199635
777,875.2606396554855
778,875.5961186689368
779,875.920331224693
780,876.2333741978692
781,876.5353766024698
782,876.8264999488822
783,877.1069385262927
784,877.376919605875
785,877.6367035605546
786,877.8865838966504
787,878.1268871917891
788,878.3579729324165
789,878.5802332433749
790,878.794092501785
791,879.0000068280896
792,879.1984634483381
793,879.3899799230226
794,879.5751032385642
795,879.7544087580605
796,879.9284990287946
797,880.0980024459315
798,880.2635717747138
799,880.4258825362178
800,880.5856312628672
801,880.743533628802
802,880.900322457775
803,881.0567456091875
804,881.2135637423984
805,881.3715479608184
806,881.5314773399642
807,881.6941363465039
808,881.8603121572476
809,882.0307918876091
810,882.2063597384237
811,882.3877940686833
812,882.5758644006918
813,882.77132836447
814,882.9749285904525
815,883.1873895630291
816,883.4094144513637
817,883.6416819374402
818,883.884843064138
819,884.1395181283549
820,884.4062936461584
821,884.6857194188984
822,884.9783057309058
823,885.2845207100365
824,885.60478788124
825,885.9394839405712
826,886.2889367731925
827,886.6534237343084
828,887.033170206789
829,887.4283484439362
830,887.8390767013993
831,888.2654186592634
832,888.7073831333677
833,889.1649240729623
834,889.6379408394338
835,890.1262787584649
836,890.6297299362562
837,891.1480343293033
838,891.6808810564286
839,892.2279099413529
840,892.7887132740885
841,893.3628377792393
842,893.949786778197
843,894.5490225303754
844,895.1599687366901
845,895.7820131868166
846,896.414510530312
847,897.0567851506067
848,897.7081341203889
849,898.3678302172034
850,899.0351249791736
851,899.7092517822681
852,900.3894289217575
853,901.0748626807764
854,901.7647503681231
855,902.4582833060995
856,903.1546497483337
857,903.8530377079354
858,904.55263767799
859,905.2526452287435
860,905.9522634684363
861,906.6507053572659
862,907.3471958658129
863,908.0409739700376
864,908.7312944751865
865,909.4174296617064
866,910.0986707480048
867,910.7743291669016
868,911.4437376539872
869,912.1062511468328
870,912.7612474949208
871,913.4081279821247
872,914.0463176666856
873,914.6752655473114
874,915.2944445674278
875,915.9033514721609
876,916.5015065342286
877,917.0884531657173
878,917.6637574329939
879,918.2270074920501
880,918.777812961459
881,919.3158042497253
882,919.8406318532537
883,920.3519656407709
884,920.84949413986
885,921.3329238408661
886,921.8019785322685
887,922.2563986795138
888,922.6959408565654
889,923.120377236593
890,923.529495145808
891,923.9230966829498
892,924.3009984066264
893,924.6630310930202
894,925.0090395659855
895,925.3388825995207
896,925.652432889844
897,925.9495770922861
898,926.2302159173889
899,926.4942642801793
900,926.7416514955756
901,926.9723215110653
902,927.1862331656489
903,927.383360462202
904,927.5636928392702
905,927.7272354281363
906,927.8740092818123
907,928.0040515641738
908,928.1174156893832
909,928.2141714037888
910,928.2944048045517
911,928.3582182914018
912,928.4057304501428
913,928.4370758684698
914,928.4524048858079
915,928.4518832791094
916,928.435691886435
917,928.4040261701305
