frame_number,force
0,873.7799553717665
1,873.8189309354453
2,873.8545081838362
3,873.8864567472702
4,873.9145445124387
5,873.9385392176739
6,873.9582101389611
7,873.9733298318728
8,873.9836758920745
9,873.989032698164
10,873.9891931045781
11,873.9839600573303
12,873.9731481102357
13,873.9565848240838
14,873.9341120359666
15,873.9055869902248
16,873.8708833265556
17,873.829891925924
18,873.7825216209471
19,873.7286997820158
20,873.6683727915993
21,873.6015064179226
22,873.5280860978825
23,873.4481171380249
24,873.3616248405208
25,873.2686545583366
26,873.1692716810655
27,873.0635615497725
28,872.9516292944811
29,872.8335995820383
30,872.7096162577589
31,872.5798418638791
32,872.4444570212002
33,872.3036596654723
34,872.1576641363521
35,872.0067001250385
36,871.8510114966749
37,871.6908550121008
38,871.5264989772699
39,871.3582218479512
40,871.1863108151772
41,871.0110603951463
42,870.8327710457752
43,870.6517478303637
44,870.46829914676
45,870.2827355378752
46,870.095368596283
47,869.9065099715351
48,869.7164704823947
49,869.5255593267809
50,869.3340833716636
51,869.1423464968888
52,868.9506489632994
53,868.7592867768404
54,868.5685510254405
55,868.3787271724569
56,868.1900942975202
57,868.0029242815272
58,867.8174809372032
59,867.6340190910436
60,867.452783627371
61,867.2740085094529
62,867.0979157935736
63,866.9247146487697
64,866.7546003892993
65,866.587753521298
66,866.4243388020453
67,866.2645043119595
68,866.1083805453765
69,865.9560795328416
70,865.8076940119364
71,865.6632966656277
72,865.5229394486546
73,865.3866530247333
74,865.2544463402526
75,865.1263063624087
76,865.0021980092309
77,864.8820642944712
78,864.7658267030421
79,864.6533858040791
80,864.5446220986196
81,864.4393970876242
82,864.3375545365041
83,864.2389219072742
84,864.1433119285396
85,864.0505242748869
86,863.9603473303789
87,863.8725600156201
88,863.7869336633084
89,863.7032339321197
90,863.621222752481
91,863.5406602994553
92,863.461306986814
93,863.3829254721907
94,863.3052826562756
95,863.2281516503695
96,863.1513136789824
97,863.0745598810203
98,862.9976929761286
99,862.9205287701783
100,862.8428974823332
101,862.7646448837592
102,862.6856332447771
103,862.6057420934718
104,862.5248687945847
105,862.4429289625893
106,862.3598567258202
107,862.2756048579263
108,862.1901447886181
109,862.1034664992422
110,862.0155783030501
111,861.926506507667
112,861.8362949581189
113,861.7450044601426
114,861.6527120832424
115,861.5595103416874
116,861.4655062510961
117,861.3708202592792
118,861.2755850532072
119,861.1799442500906
120,861.0840509888461
121,860.9880664459827
122,860.8921583055937
123,860.7964992176238
124,860.7012652818313
125,860.6066345944986
126,860.5127858902158
127,860.4198973049101
128,860.3281452810909
129,860.2377036308138
130,860.1487427644782
131,860.0614290855352
132,859.9759245449266
133,859.8923863450838
134,859.8109667801752
135,859.7318131957084
136,859.6550680462947
137,859.5808690260345
138,859.5093492434687
139,859.4406374150373
140,859.3748580579687
141,859.3121316720584
142,859.252574905825
143,859.1963007054806
144,859.1434184466705
145,859.0940340498768
146,859.0482500806828
147,859.0061658359779
148,858.9678774169419
149,858.9334777893982
150,858.9030568320251
151,858.8767013734822
152,858.8544952212848
153,858.8365191879858
154,858.8228511224033
155,858.8135659528585
156,858.8087357439342
157,858.8084297593036
158,858.8127145153903
159,858.8216538086903
160,858.8353087042755
161,858.8537374810322
162,858.8769955363065
163,858.9051352568482
164,858.9382058653529
165,858.9762532543504
166,859.0193198215951
167,859.0674443216909
168,859.120661746245
169,859.1790032403546
170,859.2424960587043
171,859.3111635614155
172,859.3850252486376
173,859.4640968335215
174,859.5483903536781
175,859.6379143187993
176,859.7326738872454
177,859.8326710614175
178,859.9379048939879
179,860.0483717031325
180,860.1640653005145
181,860.2849772378773
182,860.411097076487
183,860.542412679936
184,860.6789105273009
185,860.8205760420162
186,860.9673939318152
187,861.1193485350741
188,861.2764241680711
189,861.4386054667015
190,861.6058777157392
191,861.7782271582489
192,861.9556412762079
193,862.1381090308039
194,862.3256210485514
195,862.5181697391748
196,862.7157493343456
197,862.9183558423983
198,863.1259869207609
199,863.3386416720605
200,863.556320371126
201,863.779024130785
202,864.0067545164702
203,864.2395131225445
204,864.4773011254282
205,864.7201188297058
206,864.9679652237995
207,865.2208375615783
208,865.4787309850454
209,865.7416382008539
210,866.0095492203958
211,866.282451170326
212,866.5603281779521
213,866.8431613339613
214,867.1309287334155
215,867.4236055949152
216,867.7211644569783
217,868.0235754487023
218,868.3308066273585
219,868.6428243689169
220,868.9595937902576
221,869.281079175278
222,869.6072443719262
223,869.9380531247368
224,870.2734693093203
225,870.6134570410228
226,870.9579806367124
227,871.3070044134469
228,871.6604923105651
229,872.0184073252005
230,872.3807107575508
231,872.7473612703101
232,873.1183137739389
233,873.4935181554537
234,873.872917874397
235,874.2564484559208
236,874.6440359167342
237,875.0355951642696
238,875.4310284122902
239,875.8302236570776
240,876.2330532569501
241,876.6393726533663
242,877.0490192641431
243,877.4618115700671
244,877.8775484074641
245,878.296008471787
246,878.71695003106
247,879.140110844004
248,879.5652082764999
249,879.9919396106869
250,880.4199825413629
251,880.8489958532774
252,881.2786202711484
253,881.7084794732918
254,882.1381812597748
255,882.5673188661374
256,882.9954724138105
257,883.4222104882746
258,883.8470918345586
259,884.2696671560327
260,884.6894809983011
261,885.1060736984497
262,885.5189833814403
263,885.9277479868022
264,886.3319073070749
265,886.7310050159116
266,887.1245906617644
267,887.5122216041729
268,887.8934648729983
269,888.2678989352446
270,888.6351153584144
271,888.9947203625278
272,889.3463362543549
273,889.6896027375304
274,890.0241780917373
275,890.3497402131804
276,890.6659875070975
277,890.9726396217873
278,891.2694380142107
279,891.5561463410874
280,891.8325506761071
281,892.0984595608841
282,892.3537039023087
283,892.5981367317709
284,892.8316328432603
285,893.0540883276478
286,893.2654200188872
287,893.4655648644707
288,893.6544792281862
289,893.8321381291646
290,893.9985344183381
291,894.1536778925619
292,894.2975943477203
293,894.4303245743145
294,894.5519233017661
295,894.6624581011009
296,894.7620082596762
297,894.8506636454217
298,894.9285235810398
299,894.9956957504768
300,895.052295160407
301,895.0984431780059
302,895.1342666627644
303,895.1598972050823
304,895.175470478959
305,895.1811257109457
306,895.1770052627975
307,895.1632543213441
308,895.1400206866805
309,895.1074546488102
310,895.0657089421496
311,895.0149387657982
312,894.9553018557654
313,894.8869585949434
314,894.8100721474966
315,894.7248086045355
316,894.6313371263187
317,894.5298300635807
318,894.4204630378016
319,894.303414957678
320,894.178867948064
321,894.0470071702593
322,893.9080205190912
323,893.7620981908316
324,893.6094321242456
325,893.4502153240331
326,893.2846410821226
327,893.1129021176993
328,892.9351896596056
329,892.7516924932919
330,892.5625959907624
331,892.3680811394136
332,892.1683235850271
333,891.9634927038209
334,891.7537507176417
335,891.5392518654859
336,891.3201416434281
337,891.0965561234034
338,890.8686213594566
339,890.6364528882466
340,890.4001553283895
341,890.1598220806288
342,889.9155351289339
343,889.6673649427465
344,889.415370482768
345,889.159599315517
346,888.9000878441179
347,888.6368616643446
348,888.3699360562052
349,888.0993166219794
350,887.8250000811313
351,887.5469752314451
352,887.2652240843087
353,886.9797231784808
354,886.6904450688119
355,886.3973599751822
356,886.1004375658365
357,885.79964884123
358,885.4949680803384
359,885.1863748104523
360,884.8738557630198
361,884.5574067817402
362,884.2370346538561
363,883.912758839751
364,883.5846130788934
365,883.2526468528437
366,882.9169266896731
367,882.5775372989166
368,882.234582530862
369,881.8881861570992
370,881.5384924704043
371,881.1856667023866
372,880.8298952583457
373,880.4713857702884
374,880.1103669690539
375,879.7470883736655
376,879.3818197914761
377,879.0148506186736
378,878.6464889284682
379,878.2770603335696
380,877.9069066100286
381,877.5363840715928
382,877.1658616880351
383,876.7957189478292
384,876.4263434751897
385,876.0581284234291
386,875.6914696789946
387,875.3267629205501
388,874.9644005827706
389,874.6047687747465
390,874.2482441996741
391,873.895191118166
392,873.5459583932703
393,873.2008766503362
394,872.8602555774621
395,872.5243813824175
396,872.1935144125479
397,871.8678869387493
398,871.5477011039566
399,871.2331270384421
400,870.9243011460727
401,870.6213245676062
402,870.3242618314698
403,870.0331397101105
404,869.7479463079585
405,869.468630411259
406,869.1951011297643
407,868.9272278576013
408,868.6648405764756
409,868.4077305173382
410,868.1556511857038
411,867.9083197429317
412,867.665418724784
413,867.4265980717108
414,867.1914774417893
415,866.9596487753151
416,866.7306790787637
417,866.5041133941328
418,866.279477915904
419,866.0562832120617
420,865.8340275008596
421,865.6121999349816
422,865.39028385023
423,865.1677599448243
424,864.9441093652727
425,864.7188166836219
426,864.4913727564176
427,864.2612774560671
428,864.0280422612519
429,863.7911926883945
430,863.550270544837
431,863.3048359872037
432,863.0544693738601
433,862.7987729074201
434,862.53737207176
435,862.2699168769844
436,861.9960829334221
437,861.7155723813462
438,861.4281147073456
439,861.1334674806695
440,860.8314170414095
441,860.5217791665924
442,860.20439973252
443,859.8791553848745
444,859.5459542233291
445,859.2047365043093
446,858.8554753637591
447,858.4981775611782
448,858.132884246066
449,857.7596717463845
450,857.3786523747691
451,856.9899752433552
452,856.5938270739957
453,856.1904329874394
454,855.7800572521129
455,855.3630039712178
456,854.9396176871297
457,854.5102838841129
458,854.0754293722366
459,853.6355225366416
460,853.1910734386432
461,852.7426337597716
462,852.2907965853614
463,851.836196027612
464,851.3795066871302
465,850.9214429474957
466,850.4627580919555
467,850.0042432269981
468,849.54672599404
469,849.0910690464794
470,848.6381682655193
471,848.18895068705
472,847.7443721154486
473,847.3054144076142
474,846.873082419035
475,846.4484006104149
476,846.0324093177626
477,845.6261606923032
478,845.2307143205383
479,844.8471325395171
480,844.4764754681338
481,844.119795782758
482,843.778133274689
483,843.4525092361016
484,843.1439207280239
485,842.8533347869558
486,842.581682625944
487,842.3298538824573
488,842.0986909613869
489,841.8889835195598
490,841.7014631399502
491,841.5367982483649
492,841.3955893298282
493,841.2783645036416
494,841.1855755136736
495,841.1175941831871
496,841.0747093728921
497,841.0571244700011
498,841.0649554263053
499,841.0982293544643
500,841.15688368466
501,841.2407658798627
502,841.3496337059966
503,841.4831560506085
504,841.6409142793976
505,841.8224041158272
506,842.0270380269783
507,842.2541480991173
508,842.5029893875063
509,842.772743724572
510,843.0625239676964
511,843.3713786632607
512,843.6982970986768
513,844.0422147103573
514,844.4020188136229
515,844.7765546203109
516,845.164631510022
517,845.5650295190411
518,845.9765060050457
519,846.3978024367811
520,846.8276512491489
521,847.2647826982793
522,847.7079316488463
523,848.1558442263045
524,848.6072842683297
525,849.0610395118482
526,849.515927455492
527,849.9708008424657
528,850.4245527145298
529,850.8761209942007
530,851.3244925607437
531,851.7687067954922
532,852.2078585810048
533,852.6411007463953
534,853.0676459592507
535,853.4867680717326
536,853.8978029324617
537,854.3001486773129
538,854.6932655141632
539,855.0766750205948
540,855.4499589792586
541,855.8127577813145
542,856.1647684321316
543,856.5057421950647
544,856.8354819100788
545,857.1538390249317
546,857.4607103773866
547,857.7560347679258
548,858.0397893642809
549,858.3119859812767
550,858.572667281085
551,858.8219029393481
552,859.059785821151
553,859.2864282073733
554,859.5019581076533
555,859.706515692533
556,859.9002498749966
557,860.0833150697733
558,860.25586815575
559,860.4180656621384
560,860.5700611940732
561,860.7120031088056
562,860.8440324484748
563,860.9662811293573
564,861.0788703825868
565,861.1819094394988
566,861.2754944550031
567,861.3597076618823
568,861.4346167463036
569,861.5002744314033
570,861.5567182530436
571,861.6039705098974
572,861.6420383690111
573,861.6709141090807
574,861.6905754877897
575,861.7009862255456
576,861.7020966031928
577,861.6938441743172
578,861.676154594519
579,861.6489425717696
580,861.6121129431388
581,861.5655618821861
582,861.5091782381062
583,861.4428450045574
584,861.366440914998
585,861.2798421612789
586,861.1829242302396
587,861.0755638481826
588,860.9576410176121
589,860.8290411265348
590,860.6896571070305
591,860.539391614521
592,860.3781591920845
593,860.205888377917
594,860.0225237119807
595,859.8280276018305
596,859.6223820168125
597,859.4055899914299
598,859.1776769293208
599,858.9386917068811
600,858.688707580012
601,858.4278228999788
602,858.1561616458131
603,857.8738737810853
604,857.5811354421621
605,857.2781489637223
606,856.9651427463774
607,856.6423709715813
608,856.3101131697747
609,855.9686736469372
610,855.6183807720171
611,855.2595861247884
612,854.8926635022128
613,854.5180077816855
614,854.136033641066
615,853.7471741374328
616,853.3518791486185
617,852.9506136840351
618,852.5438560743307
619,852.1320960522842
620,851.7158327389335
621,851.2955725490056
622,850.8718270291155
623,850.4451106427728
624,850.0159385198958
625,849.5848241950323
626,849.1522773647083
627,848.7188016969639
628,848.2848927242726
629,847.8510358465716
630,847.4177044672272
631,846.985358283435
632,846.5544417527835
633,846.1253827572984
634,845.6985914846156
635,845.2744595433661
636,844.8533593253067
637,844.4356436186473
638,844.021645466545
639,843.6116782560084
640,843.2060360190166
641,842.8049939290722
642,842.408808979612
643,842.0177208335413
644,841.6319528356928
645,841.2517131829079
646,840.8771962496112
647,840.5085840693589
648,840.1460479742689
649,839.7897503940628
650,839.4398468134499
651,839.09648787973
652,838.7598216434437
653,838.4299959070119
654,838.1071606511433
655,837.791470505269
656,837.4830872249635
657,837.1821821362437
658,836.8889385049723
659,836.6035537897216
660,836.3262417368701
661,836.0572342754514
662,835.7967831658489
663,835.5451613524193
664,835.3026639687171
665,835.0696089481677
666,834.846337203377
667,834.6332123513419
668,834.430619976062
669,834.2389664321877
670,834.0586772030015
671,833.8901948331785
672,833.7339764614784
673,833.5904909820207
674,833.4602158670292
675,833.3436336898293
676,833.2412283938341
677,833.153481359578
678,833.0808673252627
679,833.0238502151036
680,832.9828789247059
681,832.958383107012
682,832.9507689995917
683,832.9604153353914
684,832.987669382579
685,833.0328431617445
686,833.0962098885678
687,833.1780006872394
688,833.2784016159026
689,833.3975510420435
690,833.5355374038812
691,833.6923973925085
692,833.8681145873724
693,834.0626185742647
694,834.2757845704864
695,834.5074335757879
696,834.7573330596077
697,835.0251981862507
698,835.3106935722913
699,835.61343556518
700,835.9329950261945
701,836.2689005916044
702,836.6206423737764
703,836.987676052441
704,837.3694272978909
705,837.7652964617093
706,838.1746634652186
707,838.5968928117265
708,839.0313386474306
709,839.477349797706
710,839.934274709517
711,840.4014662361543
712,840.8782862063202
713,841.3641097239256
714,841.8583291478174
715,842.3603577048302
716,842.8696326966495
717,843.3856182687767
718,843.9078077154946
719,844.4357252980674
720,844.9689275562465
721,845.5070040970198
722,846.0495778505128
723,846.5963047915037
724,847.1468731351225
725,847.7010020245775
726,848.2584397349932
727,848.8189614208419
728,849.3823664382137
729,849.9484752807701
730,850.5171261795094
731,851.0881714277176
732,851.6614735004483
733,852.2369010423506
734,852.814324800401
735,853.3936135803633
736,853.9746303071314
737,854.5572282682971
738,855.1412476167822
739,855.7265122019913
740,856.3128267895461
741,856.8999747180306
742,857.4877160292014
743,858.0757860976029
744,858.6638947770226
745,859.2517260733298
746,859.8389383438276
747,860.4251650115655
748,861.0100157703728
749,861.5930782440117
750,862.1739200513562
751,862.7520912200999
752,863.3271268863775
753,863.8985502174385
754,864.4658754966488
755,865.0286113121872
756,865.5862637936037
757,866.1383398456104
758,866.6843503350167
759,867.2238131916248
760,867.7562563858294
761,868.2812207460172
762,868.798262580012
763,869.3069560685677
764,869.8068954057813
765,870.2976966698045
766,870.7789994155279
767,871.2504679894658
768,871.7117925778721
769,872.1626900119301
770,872.6029043656474
771,873.0322073900074
772,873.4503988299236
773,873.8573066684178
774,874.252787335982
775,874.6367259147245
776,875.0090363591812
777,875.3696617487235
778,875.7185745791508
779,876.055777094246
780,876.3813016542803
781,876.6952111381704
782,876.997599377113
783,877.2885916181865
784,877.5683450161298
785,877.8370491499625
786,878.0949265578755
787,878.3422332790706
788,878.5792593858039
789,878.8063294841476
790,879.0238031593971
791,879.2320753423959
792,879.4315765754952
793,879.6227731592766
794,879.8061671620098
795,879.9822962736437
796,880.151733487291
797,880.3150865959929
798,880.4729975007829
799,880.6261413338656
800,880.7752254028323
801,880.9209879561062
802,881.0641967594382
803,881.2056474642891
804,881.3461617456358
805,881.4865851900807
806,881.6277849231967
807,881.7706469738583
808,881.91607337901
809,882.064979033335
810,882.2182882852305
811,882.3769312751597
812,882.5418400082219
813,882.713944153675
814,882.8941665718465
815,883.0834185814107
816,883.2825949940004
817,883.4925689560783
818,883.7141866487558
819,883.9482619049926
820,884.1955708116133
821,884.4568463717764
822,884.732773310954
823,885.0239831133648
824,885.3310493737772
825,885.6544835417834
826,885.9947311240319
827,886.3521683958577
828,886.7270996577128
829,887.1197550554801
830,887.5302889705323
831,887.9587789773964
832,888.4052253625417
833,888.8695511935456
834,889.3516029220933
835,889.8511514985328
836,890.3678939721052
837,890.9014555494955
838,891.4513920839636
839,892.0171929681951
840,892.5982844062224
841,893.1940330411761
842,893.8037499137083
843,894.4266947211715
844,895.0620803424362
845,895.7090775887285
846,896.3668201370062
847,897.034409599599
848,897.7109206829828
849,898.3954063902285
850,899.0869032259158
851,899.784436367859
852,900.4870247742849
853,901.1936861958427
854,901.9034420586021
855,902.6153221788716
856,903.3283692667898
857,904.0416431760755
858,904.7542248620148
859,905.4652200167216
860,906.1737623584459
861,906.8790165590445
862,907.5801807985524
863,908.2764889367393
864,908.9672122904659
865,909.651661006407
866,910.3291850228744
867,910.9991746195763
868,911.6610605569974
869,912.3143138076613
870,912.9584448828567
871,913.5930027634207
872,914.2175734523541
873,914.8317781783034
874,915.4352712892781
875,916.0277378834379
876,916.6088912279706
877,917.1784700185751
878,917.7362355318312
879,918.2819687218405
880,918.8154673111886
881,919.3365429241088
882,919.8450183071217
883,920.3407246805889
884,920.8234992636663
885,921.2931830135304
886,921.7496186156046
887,922.1926487541732
888,922.6221146832878
889,923.0378551081861
890,923.4397053793355
891,923.8274969964303
892,924.2010574192358
893,924.56021018395
894,924.904775322796
895,925.2345700781442
896,925.5494098935575
897,925.8491096578994
898,926.1334851766105
899,926.4023548436452
900,926.6555414848705
901,926.8928743381384
902,927.1141911284801
903,927.3193401911303
904,927.5081825918071
905,927.6805941937123
906,927.8364676242211
907,927.9757141002988
908,928.0982650789849
909,928.2040737068969
910,928.29311605034
911,928.3653920954454
912,928.4209265157715
913,928.459769211782
914,928.4819956306558
915,928.4877068756573
916,928.4770296137599
917,928.4501157899849
