frame_number,force
0,873.7538047373826
1,873.7937801390354
2,873.8306564747219
3,873.8641796169077
4,873.8940905942337
5,873.9201277410757
6,873.9420289718512
7,873.9595341276984
8,873.9723873394306
9,873.9803393526643
10,873.98314976746
11,873.9805891528802
12,873.9724410046924
13,873.9585035220827
14,873.9385911867813
15,873.9125361347108
16,873.8801893166635
17,873.8414214525022
18,873.7961237927468
19,873.7442087085375
20,873.6856101326787
21,873.6202838723589
22,873.548207811875
23,873.4693820218574
24,873.3838287883003
25,873.2915925701627
26,873.1927398897491
27,873.087359154925
28,872.9755604045172
29,872.8574749587035
30,872.733254949097
31,872.6030727023253
32,872.4671199558366
33,872.3256068924551
34,872.1787609897386
35,872.026825692842
36,871.870058934944
37,871.708731542314
38,871.5431255666646
39,871.3735325860746
40,871.2002520121287
41,871.0235894379366
42,870.843855059098
43,870.661362196755
44,870.4764259484459
45,870.2893619883114
46,870.1004855331892
47,869.9101104845588
48,869.7185487461206
49,869.5261097019496
50,869.333099823559
51,869.1398223612081
52,868.9465770690966
53,868.7536599161583
54,868.5613627421719
55,868.3699728299179
56,868.179772375199
57,867.9910378459014
58,867.8040392286799
59,867.6190391688599
60,867.4362920169967
61,867.2560428023063
62,867.0785261548285
63,866.9039651934135
64,866.7325703879904
65,866.5645383960189
66,866.4000508685314
67,866.2392732241162
68,866.0823533987814
69,865.9294205904164
70,865.780584023628
71,865.635931764137
72,865.4955296146663
73,865.3594201281595
74,865.2276217790608
75,865.1001283373263
76,864.976908489415
77,864.8579057438598
78,864.7430386479398
79,864.6322013288416
80,864.5252643572202
81,864.4220759137334
82,864.3224632244411
83,864.226234223335
84,864.1331793990837
85,864.0430737854633
86,863.955679060027
87,863.8707457232284
88,863.7880153388708
89,863.7072228245966
90,863.6280987869987
91,863.5503718985781
92,863.4737713119519
93,863.3980291001207
94,863.3228827006225
95,863.2480773277491
96,863.1733683048548
97,863.0985232636621
98,863.0233241619868
99,862.9475690826529
100,862.8710737893346
101,862.7936730266865
102,862.7152215623499
103,862.6355949777939
104,862.5546902236975
105,862.4724259631446
106,862.3887427301493
107,862.3036029297172
108,862.2169906984884
109,862.1289116345393
110,862.0393923956464
111,861.9484801612444
112,861.8562419542948
113,861.76276382107
114,861.6681498661474
115,861.5725211376129
116,861.476014356356
117,861.3787804847063
118,861.2809831344638
119,861.1827968237918
120,861.0844051053015
121,860.9859985996964
122,860.887772978149
123,860.7899269435561
124,860.6926602659224
125,860.5961719265609
126,860.5006584184534
127,860.4063122405539
128,860.313320615775
129,860.2218644539649
130,860.1321175697688
131,860.0442461528393
132,859.9584084782565
133,859.8747548389671
134,859.7934276773541
135,859.7145618876594
136,859.638285254476
137,859.5647189859407
138,859.4939782965589
139,859.4261729979432
140,859.3614080669215
141,859.2997841740589
142,859.2413981653002
143,859.1863434942488
144,859.1347106051634
145,859.0865872683835
146,859.0420588705263
147,859.0012086617407
148,858.9641179620498
149,858.9308663285151
150,858.9015316848893
151,858.8761904163796
152,858.8549174349715
153,858.8377862250858
154,858.8248688827634
155,858.8162361603818
156,858.8119575203439
157,858.8121011871204
158,858.8167341747949
159,858.8259222641964
160,858.8397299110167
161,858.8582200788495
162,858.8814540021996
163,858.9094908910649
164,858.9423875924125
165,858.9801982276434
166,859.022973828867
167,859.0707619976363
168,859.1236066059372
169,859.1815475521161
170,859.2446205772998
171,859.3128571428965
172,859.3862843679166
173,859.4649250258489
174,859.5487976015197
175,859.6379164045331
176,859.7322917282399
177,859.8319300384925
178,859.9368341799675
179,860.0470035973551
180,860.1624345775073
181,860.2831205219462
182,860.4090522566197
183,860.5402183799612
184,860.6766056448149
185,860.8181993672574
186,860.9649838553565
187,861.116942850913
188,861.2740599759699
189,861.4363191743831
190,861.6037051380752
191,861.7762037068563
192,861.9538022283198
193,862.1364898602691
194,862.3242577945288
195,862.5170993807178
196,862.7150101334977
197,862.9179876162999
198,863.1260312049154
199,863.3391417409687
200,863.5573210872792
201,863.7805715981804
202,864.0088955211853
203,864.2422943509152
204,864.480768159597
205,864.7243149301432
206,864.972929918426
207,865.2266050709823
208,865.485328522419
209,865.7490841929757
210,866.0178515019338
211,866.2916052079491
212,866.5703153835022
213,866.8539475274773
214,867.1424628173569
215,867.4358185007851
216,867.733968424774
217,868.0368636975901
218,868.344453471269
219,868.6566858221241
220,868.9735086950884
221,869.2948708672926
222,869.620722877982
223,869.9510178678419
224,870.2857122735608
225,870.6247663323092
226,870.9681443611996
227,871.315814784147
228,871.6677498827487
229,872.023925253082
230,872.3843189601057
231,872.7489103938924
232,873.1176788432174
233,873.4906018113752
234,873.8676531084179
235,874.2488007638184
236,874.6340048127025
237,875.0232150160374
238,875.4163685797349
239,875.8133879391717
240,876.2141786735814
241,876.6186276078945
242,877.0266011476878
243,877.4379438786267
244,877.8524774483802
245,878.2699997374976
246,878.6902843162865
247,879.1130801787511
248,879.5381117431599
249,879.9650791101517
250,880.3936585702345
251,880.8235033511935
252,881.2542445935347
253,881.6854925409707
254,882.1168379333283
255,882.5478535898208
256,882.9780961710757
257,883.4071081084805
258,883.8344196874303
259,884.2595512656081
260,884.6820156011554
261,885.1013202633574
262,885.5169701010517
263,885.9284697462314
264,886.3353261277457
265,886.7370509645203
266,887.1331632046276
267,887.5231913782482
268,887.9066758377235
269,888.2831708645655
270,888.6522466299219
271,889.0134909998384
272,889.3665111787078
273,889.7109351842875
274,890.0464131466741
275,890.3726184218679
276,890.6892485079784
277,890.9960257498557
278,891.2926978185346
279,891.5790379576429
280,891.8548449991047
281,892.1199431611528
282,892.3741816492263
283,892.6174340844509
284,892.8495977864992
285,893.0705929378112
286,893.2803616534302
287,893.478866975112
288,893.6660918014111
289,893.8420377588584
290,894.0067240146575
291,894.1601860297749
292,894.3024742528364
293,894.4336527585083
294,894.5537978382207
295,894.6629965563859
296,894.7613452914595
297,894.8489482871205
298,894.9259162434777
299,894.9923649811266
300,895.0484142115648
301,895.0941864451974
302,895.129806062667
303,895.1553985674369
304,895.1710900290954
305,895.17700671884
306,895.173274931244
307,895.1600209803155
308,895.1373713541404
309,895.105453010926
310,895.064393798176
311,895.0143229744202
312,894.9553718102648
313,894.8876742449231
314,894.8113675757922
315,894.7265931589552
316,894.6334970959438
317,894.5322308779365
318,894.4229519541973
319,894.3058241875215
320,894.1810181578834
321,894.0487112795345
322,893.909087707068
323,893.7623380194099
324,893.6086586836021
325,893.4482513111528
326,893.281321729422
327,893.1080788990165
328,892.9287337124964
329,892.7434977074381
330,892.5525817210945
331,892.356194509961
332,892.1545413566542
333,891.9478226860565
334,891.7362327115326
335,891.5199581307745
336,891.2991768892826
337,891.074057027142
338,890.844755622112
339,890.6114178394445
340,890.3741760956718
341,890.1331493398382
342,889.8884424530042
343,889.6401457673826
344,889.3883347102017
345,889.1330695822086
346,888.8743954845703
347,888.6123424107509
348,888.3469255222769
349,888.0781456286323
350,887.8059898911087
351,887.5304327690659
352,887.2514372251418
353,886.9689562005954
354,886.6829343598943
355,886.3933100863147
356,886.1000176931171
357,885.8029898023725
358,885.5021598370828
359,885.197464570833
360,884.8888466816323
361,884.5762572622625
362,884.2596582467881
363,883.939024719257
364,883.6143470750206
365,883.2856330090378
366,882.9529093109237
367,882.6162234536301
368,882.2756449695933
369,881.9312666126244
370,881.583205305155
371,881.2316028704802
372,880.8766265506964
373,880.518469312811
374,880.1573499449017
375,879.7935129391583
376,879.4272281508829
377,879.0587902156253
378,878.6885177024867
379,878.3167519798878
380,877.9438557702306
381,877.5702113725393
382,877.1962185383741
383,876.8222919966128
384,876.4488586373255
385,876.0763543832228
386,875.7052207962067
387,875.3359014818857
388,874.9688383629162
389,874.6044678921609
390,874.2432172714132
391,873.8855007345153
392,873.5317159469795
393,873.1822405664722
394,872.8374289969752
395,872.497609354146
396,872.163080644872
397,871.8341101557711
398,871.5109310446788
399,871.1937401324307
400,870.8826958955452
401,870.577916663902
402,870.2794790348286
403,869.9874165275246
404,869.701718514767
405,869.4223294760243
406,869.1491486162911
407,868.8820298913645
408,868.620782474395
409,868.3651716881262
410,868.1149204107107
411,867.8697109433994
412,867.6291873117615
413,867.3929579618958
414,867.1605988081105
415,866.9316565860476
416,866.705652463701
417,866.4820858605563
418,866.260438419572
419,866.040178068012
420,865.8207630960318
421,865.6016461821488
422,865.3822783035832
423,865.1621124836985
424,864.9406073444436
425,864.7172304457001
426,864.4914614022123
427,864.2627947694198
428,864.0307426832203
429,863.7948372314446
430,863.5546325327094
431,863.3097065027096
432,863.0596622965048
433,862.8041294263529
434,862.5427645679074
435,862.2752520816287
436,862.0013042881533
437,861.7206615450979
438,861.433092179341
439,861.1383923324983
440,860.8363857749697
441,860.5269237347768
442,860.209884775217
443,859.885174744612
444,859.5527268138586
445,859.2125016125808
446,858.8644874717858
447,858.5087007799267
448,858.1451864589826
449,857.7740185646553
450,857.3953010085887
451,857.0091683927328
452,856.6157869394078
453,856.2153554953912
454,855.8081065835433
455,855.3943074721894
456,854.974261232623
457,854.5483077579233
458,854.1168247188392
459,853.680228434055
460,853.2389746353447
461,852.7935591148454
462,852.3445182497655
463,851.892429404431
464,851.4379112075026
465,850.9816236945096
466,850.5242682966111
467,850.066587648913
468,849.6093651853772
469,849.1534244803216
470,848.6996282896483
471,848.2488772423661
472,847.8021081377294
473,847.3602918141831
474,846.9244305687698
475,846.4955551154148
476,846.0747210765923
477,845.6630050075726
478,845.2614999579756
479,844.8713105821629
480,844.4935478184542
481,844.1293231684133
482,843.7797426214331
483,843.4459002839181
484,843.1288717829133
485,842.8297075187157
486,842.5494258397373
487,842.2890062075442
488,842.049382413904
489,841.8314359089461
490,841.6359893027927
491,841.4638001107721
492,841.315554819943
493,841.1918633581852
494,841.0932540441854
495,841.0201690862632
496,840.9729606824047
497,840.9518877579198
498,840.9571133630782
499,840.9887027405383
500,841.0466220627106
501,841.1307378344669
502,841.2408169549876
503,841.376527429784
504,841.5374397187405
505,841.7230287010179
506,841.9326762358611
507,842.165674300279
508,842.4212286875855
509,842.6984632514764
510,842.9964246770977
511,843.3140877544822
512,843.6503611231361
513,844.004093451624
514,844.3740800138204
515,844.7590696238822
516,845.1577718929167
517,845.5688647678385
518,845.9910023040039
519,846.4228226094333
520,846.8629558848402
521,847.3100324744217
522,847.7626908385479
523,848.2195853598167
524,848.6793938959784
525,849.1408249959288
526,849.6026246996644
527,850.063582850286
528,850.5225388541804
529,850.9783868344367
530,851.4300801347117
531,851.8766351451156
532,852.3171344344614
533,852.7507291841317
534,853.1766409300616
535,853.5941626291648
536,854.0026590713492
537,854.4015666591977
538,854.7903925789474
539,855.1687133911682
540,855.5361730770907
541,855.892480584134
542,856.2374069187823
543,856.5707818363102
544,856.8924901771861
545,857.2024679004068
546,857.5006978642241
547,857.787205405441
548,858.0620537705665
549,858.3253394549022
550,858.5771875075925
551,858.8177468608366
552,859.0471857388255
553,859.2656871963918
554,859.4734448305561
555,859.6706587024673
556,859.8575315036976
557,860.0342649982457
558,860.2010567672424
559,860.3580972764473
560,860.5055672794159
561,860.6436355627878
562,860.7724570327584
563,860.8921711330538
564,861.0029005779027
565,861.1047503815182
566,861.1978071669538
567,861.282138737384
568,861.3577938897914
569,861.4248024466899
570,861.4831754782191
571,861.5329056849415
572,861.5739679111177
573,861.6063197609423
574,861.6299022976491
575,861.6446408157375
576,861.650445685684
577,861.6472132761396
578,861.6348269621714
579,861.6131582315945
580,861.5820679039643
581,861.5414074758575
582,861.491020601611
583,861.4307447142095
584,861.3604127896775
585,861.2798552585418
586,861.1889020650323
587,861.0873848672171
588,860.975139362742
589,860.8520077184404
590,860.7178410763765
591,860.572502100443
592,860.415867516309
593,860.2478305874205
594,860.0683034661446
595,859.877219364904
596,859.6745345060704
597,859.4602298270114
598,859.2343124327716
599,858.9968168001079
600,858.7478057428685
601,858.4873711519137
602,858.215634524288
603,857.932747296192
604,857.6388909924046
605,857.3342772019039
606,857.0191473871957
607,856.6937725346049
608,856.3584526531996
609,856.0135161280695
610,855.6593189287195
611,855.2962436680758
612,854.9246985046485
613,854.5451158802774
614,854.1579510877243
615,853.7636806650762
616,853.3628006168261
617,852.9558244649753
618,852.543281137963
619,852.125712709506
620,851.7036720017697
621,851.2777200673394
622,850.8484235635267
623,850.4163520335287
624,849.9820751148585
625,849.5461597058851
626,849.1091671313943
627,848.6716503525952
628,848.2341512645337
629,847.7971981173733
630,847.3613030924721
631,846.9269600627257
632,846.4946425676891
633,846.0648020340531
634,845.6378662701945
635,845.2142382602675
636,844.7942952769711
637,844.3783883202678
638,843.9668418736985
639,843.5599539570702
640,843.1579964496789
641,842.761215661214
642,842.3698331332395
643,841.9840466592924
644,841.6040315162464
645,841.2299419047125
646,840.8619126017404
647,840.5000608336188
648,840.1444883791853
649,839.7952839140611
650,839.4525256017246
651,839.116283926714
652,838.7866247510754
653,838.4636125627449
654,838.1473138762833
655,837.8378007406016
656,837.5351543027913
657,837.2394683719073
658,836.9508529234135
659,836.6694374845882
660,836.3953743411353
661,836.1288415025356
662,835.8700453574716
663,835.6192229434928
664,835.3766437519675
665,835.1426109949576
666,834.9174622758833
667,834.7015696269293
668,834.4953388974775
669,834.2992084959031
670,834.1136475012673
671,833.9391531717431
672,833.7762478831272
673,833.6254755354819
674,833.4873974718519
675,833.3625879616006
676,833.2516293112468
677,833.1551066751313
678,833.0736026432227
679,833.0076916812744
680,832.9579344904797
681,832.9248723448349
682,832.9090214601816
683,832.9108674512156
684,832.9308599386007
685,832.9694073728919
686,833.026872142286
687,833.1035660274516
688,833.1997460611458
689,833.3156108459332
690,833.451297381304
691,833.606878450433
692,833.7823606144837
693,833.9776828580897
694,834.1927159236957
695,834.4272623640769
696,834.6810573308335
697,834.9537701038566
698,835.245006356339
699,835.5543111426489
700,835.8811725882431
701,836.22502624722
702,836.5852600749394
703,836.961219945895
704,837.3522156344644
705,837.7575271670682
706,838.1764114462602
707,838.608109041183
708,839.0518510371346
709,839.5068658400279
710,839.9723858377869
711,840.447653829139
712,840.9319291391207
713,841.4244933470169
714,841.9246555564333
715,842.4317571431264
716,842.9451759266292
717,843.4643297231363
718,843.9886792450224
719,844.5177303166562
720,845.0510353796096
721,845.5881942653785
722,846.1288542220248
723,846.6727091934595
724,847.2194983648473
725,847.7690040010657
726,848.3210486138873
727,848.8754914978615
728,849.4322246798024
729,849.9911683378069
730,850.5522657625754
731,851.115477950685
732,851.680777931292
733,852.2481449341889
734,852.8175585109607
735,853.3889927241812
736,853.962410521411
737,854.5377584093345
738,855.1149615378421
739,855.6939192939094
740,856.274501490565
741,856.8565452182561
742,857.439852407499
743,858.0241881356534
744,858.6092796978281
745,859.1948164501407
746,859.7804504194218
747,860.3657976558312
748,860.9504402856923
749,861.5339292032232
750,862.1157873226157
751,862.6955132979517
752,863.2725856112241
753,863.8464669291278
754,864.4166086334099
755,864.9824554336009
756,865.543449976065
757,866.0990373721568
758,866.6486695791891
759,867.1918095762171
760,867.7279352802386
761,868.2565431494897
762,868.7771514227967
763,869.2893029502657
764,869.7925675817349
765,870.2865440930887
766,870.7708616438115
767,871.2451807728179
768,871.7091939567126
769,872.1626257748777
770,872.6052327443647
771,873.0368029000697
772,873.457155200389
773,873.8661388352306
774,874.2636325030982
775,874.6495437107994
776,875.023808137146
777,875.3863890909927
778,875.7372770823132
779,876.0764895141589
780,876.4040704972128
781,876.7200907879743
782,877.024647853118
783,877.3178660633403
784,877.5998970192493
785,877.870920009106
786,878.1311425927868
787,878.3808012984936
788,878.6201624098159
789,878.8495228128595
790,879.0692108686153
791,879.279587275768
792,879.4810458924201
793,879.6740144884128
794,879.8589554006408
795,880.0363660628382
796,880.2067793824854
797,880.3707639443551
798,880.5289240324232
799,880.6818994733605
800,880.8303653073967
801,880.9750312826147
802,881.1166411517345
803,881.2559717356186
804,881.3938317118278
805,881.5310600910673
806,881.6685243562973
807,881.8071182524329
808,881.947759222852
809,882.0913854899399
810,882.2389527715551
811,882.3914306164605
812,882.5497983347103
813,882.715040500039
814,882.8881420131011
815,883.0700827338705
816,883.2618317133436
817,883.4643410749848
818,883.6785396133115
819,883.9053261908966
820,884.1455630278984
821,884.4000689914571
822,884.6696130044076
823,884.9549076994217
824,885.2566034421885
825,885.5752828357414
826,885.9114558006873
827,886.2655553049906
828,886.6379337928138
829,887.0288603374025
830,887.4385185233793
831,887.8670050524265
832,888.3143290607143
833,888.780412130964
834,889.2650889741661
835,889.7681087482017
836,890.2891369761883
837,890.827758026238
838,891.3834781148715
839,891.9557287988064
840,892.5438709243591
841,893.1471990068894
842,893.7649460106093
843,894.3962884924409
844,895.0403520661821
845,895.6962171368028
846,896.3629248491569
847,897.0394831914203
848,897.7248731925196
849,898.4180551556003
850,899.1179748762996
851,899.8235698032315
852,900.5337751046363
853,901.2475296060068
854,901.9637815580325
855,902.6814941853455
856,903.3996509598433
857,904.1172605423308
858,904.8333613427732
859,905.5470256594791
860,906.2573633687226
861,906.9635251468001
862,907.6647052130355
863,908.3601435826433
864,909.0491278155629
865,909.7309942474408
866,910.4051286943392
867,911.0709666296377
868,911.7279928349687
869,912.3757405268739
870,913.0137899619347
871,913.6417665300224
872,914.2593383588202
873,914.8662134695929
874,915.4621365396558
875,916.0468853380304
876,916.6202669067949
877,917.1821135625032
878,917.7322787913403
879,918.2706331100015
880,918.7970599620503
881,919.3114517160512
882,919.813705827745
883,920.3037212257954
884,920.7813949793943
885,921.2466193038092
886,921.6992789538776
887,922.1392490444316
888,922.5663933223339
889,922.9805629002395
890,923.3815954501587
891,923.769314848103
892,924.1435312611542
893,924.504041671842
894,924.850630833986
895,925.1830726448741
896,925.5011319054604
897,925.8045664312007
898,926.0931294736788
899,926.3665724128994
900,926.6246476765481
901,926.8671118343464
902,927.0937288055707
903,927.3042731092813
904,927.4985330820714
905,927.6763139885537
906,927.8374409555704
907,927.9817616708231
908,928.1091487982004
909,928.2195020740686
910,928.3127500607496
911,928.3888515456126
912,928.4477965866216
913,928.4896072159219
914,928.5143378191204
915,928.5220752088231
916,928.5129384097869
917,928.4870781723015
