frame_number,force
0,825.6536800051719
1,825.6811496540354
2,825.7087238960092
3,825.7365069219741
4,825.7646021136118
5,825.7931116278243
6,825.8221359702253
7,825.8517735571294
8,825.8821202671822
9,825.9132689852246
10,825.9453091418786
11,825.9783262525789
12,826.0124014595431
13,826.0476110798621
14,826.084026162732
15,826.121712058788
16,826.1607280042813
17,826.2011267223738
18,826.2429540433293
19,826.2862485451914
20,826.3310412168888
21,826.3773551464809
22,826.4252052379388
23,826.4745979600897
24,826.5255311313754
25,826.5779937443211
26,826.6319658339046
27,826.6874183939628
28,826.7443133454051
29,826.8026035597599
30,826.862232941404
31,826.9231365711458
32,826.9852409125356
33,827.0484640809102
34,827.1127161742608
35,827.1778996647074
36,827.2439098494424
37,827.3106353599716
38,827.377958727956
39,827.4457570049755
40,827.5139024324803
41,827.5822631573163
42,827.6507039875381
43,827.7190871825117
44,827.7872732703647
45,827.8551218847934
46,827.9224926122714
47,827.9892458398228
48,828.0552435927544
49,828.1203503513693
50,828.1844338358901
51,828.247365749573
52,828.3090224712889
53,828.3692856904527
54,828.4280429786504
55,828.4851882932056
56,828.5406224082491
57,828.5942532689509
58,828.645996264765
59,828.695774418229
60,828.7435184875545
61,828.7891669842671
62,828.8326661110334
63,828.873969628326
64,828.9130386606217
65,828.9498414530785
66,828.9843530885239
67,829.0165551731124
68,829.0464354982475
69,829.0739876866513
70,829.0992108311249
71,829.1221091347047
72,829.1426915601187
73,829.1609714947217
74,829.1769664348934
75,829.1906976918985
76,829.2021901198422
77,829.2114718654566
78,829.2185741385541
79,829.2235310009148
80,829.2263791707077
81,829.2271578397466
82,829.2259085016078
83,829.2226747890554
84,829.2175023190538
85,829.2104385431071
86,829.2015326001307
87,829.1908351688355
88,829.1783983168519
89,829.1642753443723
90,829.1485206206975
91,829.1311894124888
92,829.1123377025356
93,829.0920219975764
94,829.0702991238078
95,829.0472260096934
96,829.0228594574339
97,828.9972559065336
98,828.9704711947227
99,828.9425603226093
100,828.9135772287774
101,828.8835745817985
102,828.8526035949345
103,828.820713868163
104,828.7879532606169
105,828.7543677948262
106,828.7200015926963
107,828.6848968422771
108,828.6490937940896
109,828.6126307859217
110,828.5755442953183
111,828.5378690190579
112,828.4996379784451
113,828.4608826483262
114,828.421633106977
115,828.3819182039557
116,828.3417657436037
117,828.3012026825567
118,828.2602553401618
119,828.218949621171
120,828.1773112503478
121,828.1353660180008
122,828.0931400333071
123,828.0506599789753
124,828.0079533579242
125,827.9650487219103
126,827.9219758735194
127,827.878766035143
128,827.8354519802715
129,827.7920681238071
130,827.7486505698064
131,827.7052371170882
132,827.6618672247779
133,827.6185819404454
134,827.5754237929442
135,827.5324366509792
136,827.4896655479821
137,827.4471564747038
138,827.4049561426501
139,827.3631117231797
140,827.32167056837
141,827.2806799206267
142,827.2401866180859
143,827.2002368017125
144,827.1608756282118
145,827.1221469918399
146,827.0840932587671
147,827.0467550192989
148,827.0101708648046
149,826.9743771967289
150,826.9394080745849
151,826.9052951087272
152,826.8720674023024
153,826.8397515452161
154,826.8083716612073
155,826.7779495069859
156,826.7485046198896
157,826.7200545081838
158,826.6926148766676
159,826.6661998798127
160,826.6408223951216
161,826.616494310269
162,826.5932268184216
163,826.5710307165683
164,826.5499167016537
165,826.5298956589372
166,826.5109789364865
167,826.4931785995537
168,826.4765076593939
169,826.4609802727473
170,826.4466119098084
171,826.4334194894101
172,826.4214214805273
173,826.4106379694339
174,826.4010906922708
175,826.3928030338699
176,826.3857999954087
177,826.3801081349355
178,826.3757554848369
179,826.3727714488031
180,826.3711866786751
181,826.371032929585
182,826.3723428903271
183,826.3751499849839
184,826.3794881415224
185,826.3853915232816
186,826.3928942197684
187,826.4020298941389
188,826.4128313866548
189,826.4253302763635
190,826.4395564063839
191,826.4555373807071
192,826.4732980423232
193,826.4928599442438
194,826.5142408266751
195,826.5374541143975
196,826.5625084472114
197,826.5894072528813
198,826.6181483676702
199,826.6487237059832
200,826.6811189787214
201,826.7153134595039
202,826.7512797982009
203,826.7889838814061
204,826.8283847393809
205,826.8694344989706
206,826.9120783821593
207,826.9562547499414
208,827.0018951909627
209,827.0489246544747
210,827.0972616278082
211,827.1468183591953
212,827.1975011266084
213,827.2492105525021
214,827.3018419636323
215,827.3552857945755
216,827.4094280327414
217,827.4641507014098
218,827.5193323762313
219,827.5748487305277
220,827.6305731057444
221,827.6863771048343
222,827.7421312072388
223,827.7977054039906
224,827.8529698504811
225,827.9077955331411
226,827.9620549452881
227,828.015622767069
228,828.0683765445872
229,828.120197363287
230,828.1709705098272
231,828.220586114963
232,828.2689397680432
233,828.3159330925852
234,828.3614742728574
235,828.4054785236832
236,828.4478684990271
237,828.4885746380553
238,828.5275354493301
239,828.5646977342877
240,828.6000167505156
241,828.6334563147334
242,828.6649888458984
243,828.6945953504826
244,828.722265353522
245,828.7479967795952
246,828.7717957877496
247,828.7936765643088
248,828.8136610775979
249,828.8317787984314
250,828.8480663894846
251,828.8625673656645
252,828.8753317267245
253,828.8864155629129
254,828.8958806345123
255,828.9037939265183
256,828.91022717991
257,828.9152564007014
258,828.9189613475615
259,828.9214249988277
260,828.9227330005267
261,828.9229730985447
262,828.922234560193
263,828.9206075925752
264,828.9181827666091
265,828.9150504558739
266,828.9113002988914
267,828.9070206925926
268,828.9022983240136
269,828.8972177467081
270,828.8918610074666
271,828.8863073273747
272,828.880632839375
273,828.8749103827707
274,828.8692093534393
275,828.8635956067363
276,828.8581314080631
277,828.8528754238139
278,828.8478827432338
279,828.8432049203409
280,828.838890025133
281,828.8349826946766
282,828.8315241767101
283,828.8285523605053
284,828.8261017918695
285,828.8242036714287
286,828.8228858374312
287,828.8221727358062
288,828.8220853811007
289,828.8226413126614
290,828.8238545511166
291,828.8257355604646
292,828.8282912207436
293,828.8315248155384
294,828.8354360377159
295,828.8400210158926
296,828.8452723632929
297,828.851179250029
298,828.8577274997047
299,828.8648997117876
300,828.8726754121636
301,828.881031234982
302,828.8899411383309
303,828.8993766538234
304,828.9093071664361
305,828.9197002175747
306,828.9305218225969
307,828.9417367938734
308,828.9533090614146
309,828.9652019845898
310,828.9773786497692
311,828.9898021492506
312,829.0024358368192
313,829.015243555433
314,829.0281898331215
315,829.041240043947
316,829.0543605314638
317,829.0675186924126
318,829.0806830187987
319,829.0938230976578
320,829.1069095700832
321,829.1199140540937
322,829.1328090390408
323,829.1455677619526
324,829.1581640778312
325,829.1705723357683
326,829.1827672710026
327,829.1947239208695
328,829.2064175709521
329,829.2178237365173
330,829.2289181827043
331,829.2396769845315
332,829.2500766249789
333,829.2600941270655
334,829.2697072146163
335,829.2788944961683
336,829.2876356660615
337,829.2959117151098
338,829.3037051407608
339,829.3110001451195
340,829.3177828099075
341,829.3240412399202
342,829.3297656692316
343,829.3349485261127
344,829.3395844533887
345,829.343670281536
346,829.3472049528413
347,829.3501893962688
348,829.3526263537506
349,829.3545201592947
350,829.3558764731538
351,829.3567019749344
352,829.3570040219178
353,829.3567902815097
354,829.3560683489499
355,829.3548453625252
356,829.3531276282416
357,829.350920264766
358,829.348226878366
359,829.3450492768975
360,829.3413872311608
361,829.3372382904815
362,829.3325976571534
363,829.3274581219923
364,829.3218100616149
365,829.315641497652
366,829.3089382185627
367,829.3016839649791
368,829.2938606786736
369,829.2854488130579
370,829.2764277000423
371,829.2667759649707
372,829.2564719793077
373,829.2454943406361
374,829.2338223711755
375,829.2214366282303
376,829.2083194213225
377,829.19445533065
378,829.1798317203924
379,829.1644392392927
380,829.1482723007716
381,829.1313295356724
382,829.1136142118651
383,829.0951346152714
384,829.0759043860035
385,829.055942801912
386,829.0352750011401
387,829.0139321358447
388,828.9919514508407
389,828.9693762830778
390,828.9462559801501
391,828.9226457378641
392,828.8986063577598
393,828.8742039254171
394,828.8495094099002
395,828.8245981844981
396,828.7995494696484
397,828.774445700764
398,828.7493718260911
399,828.7244145420926
400,828.699661476015
401,828.6752003272854
402,828.6511179811296
403,828.627499609195
404,828.6044277729193
405,828.5819815455336
406,828.5602356675905
407,828.5392597489182
408,828.5191175275215
409,828.4998661936312
410,828.4815557849312
411,828.4642286571349
412,828.4479190330353
413,828.4326526333406
414,828.4184463937147
415,828.4053082735524
416,828.3932371621764
417,828.382222886867
418,828.3722463243748
419,828.3632796138269
420,828.35528646538
421,828.3482225567374
422,828.3420360089239
423,828.3366679329484
424,828.3320530393119
425,828.3281203020041
426,828.3247936675107
427,828.3219927981352
428,828.3196338386384
429,828.3176301962492
430,828.3158933261695
431,828.3143335169232
432,828.3128606712967
433,828.3113850786741
434,828.3098181735007
435,828.308073273228
436,828.306066288107
437,828.3037163948366
438,828.3009466663223
439,828.2976846507084
440,828.2938628943823
441,828.2894194055226
442,828.2842980566423
443,828.2784489261729
444,828.2718285802619
445,828.2644002965228
446,828.256134231618
447,828.2470075344745
448,828.2370044067246
449,828.2261161115912
450,828.2143409319156
451,828.2016840774414
452,828.1881575409147
453,828.1737799023475
454,828.1585760812542
455,828.1425770376944
456,828.1258194240123
457,828.1083451897508
458,828.0902011422556
459,828.0714384655461
460,828.0521122009856
461,828.0322806952788
462,828.0120050233922
463,827.9913483951055
464,827.9703755538916
465,827.9491521762372
466,827.9277442789781
467,827.906217642101
468,827.8846372545889
469,827.8630667905495
470,827.8415681214108
471,827.8202008675601
472,827.7990219904804
473,827.7780854251889
474,827.7574417525466
475,827.7371379111258
476,827.7172169484724
477,827.6977178117285
478,827.6786751774557
479,827.6601193199332
480,827.6420760167528
481,827.6245664906877
482,827.6076073873227
483,827.5912107880607
484,827.575384257525
485,827.5601309232858
486,827.5454495847482
487,827.5313348473436
488,827.5177772781877
489,827.5047635802633
490,827.4922767837095
491,827.4802964542085
492,827.4687989189808
493,827.4577575103458
494,827.4471428255979
495,827.4369230007943
496,827.4270639955739
497,827.4175298865221
498,827.4082831673998
499,827.3992850550185
500,827.3904957995085
501,827.3818749978502
502,827.3733819103901
503,827.3649757811885
504,827.3566161635783
505,827.3482632521094
506,827.3398782217316
507,827.3314235750335
508,827.3228634984251
509,827.3141642279967
510,827.3052944251973
511,827.2962255613712
512,827.2869323085004
513,827.2773929313083
514,827.2675896736242
515,827.2575091306547
516,827.2471425995017
517,827.2364864023895
518,827.2255421788824
519,827.2143171436966
520,827.2028243057679
521,827.1910826429985
522,827.1791172265375
523,827.1669592888779
524,827.1546462308808
525,827.1422215633403
526,827.1297347788355
527,827.117241149789
528,827.1048014492342
529,827.0924815922828
530,827.0803521991436
531,827.0684880843828
532,827.0569676806449
533,827.0458724070901
534,827.0352859932221
535,827.0252937682449
536,827.0159819253345
537,827.0074367697051
538,826.9997439593259
539,826.9929877475097
540,826.9872502368884
541,826.9826106541325
542,826.979144654229
543,826.9769236622776
544,826.976014259427
545,826.9764776178258
546,826.9783689880823
547,826.9817372422934
548,826.9866244756479
549,826.9930656688424
550,827.0010884117924
551,827.0107126870768
552,827.0219507101854
553,827.0348068232319
554,827.0492774392724
555,827.0653510355771
556,827.083008195882
557,827.1022217031554
558,827.1229566851189
559,827.1451708144396
560,827.1688145643648
561,827.1938315189129
562,827.2201587350219
563,827.2477271529134
564,827.2764620506277
565,827.3062835387105
566,827.3371070906085
567,827.3688441033261
568,827.4014024820815
569,827.4346872429011
570,827.468601128247
571,827.5030452320849
572,827.5379196317996
573,827.5731240250265
574,827.6085583696976
575,827.6441235252369
576,827.679721892105
577,827.7152580463044
578,827.750639364966
579,827.7857766381784
580,827.8205846606181
581,827.8549827949438
582,827.8888954981919
583,827.9222528027833
584,827.9549907447453
585,827.9870517329064
586,828.0183848542002
587,828.0489461119729
588,828.0786985961419
589,828.1076125859497
590,828.1356655877927
591,828.1628423119857
592,828.1891345930711
593,828.2145412583699
594,828.239067949358
595,828.2627269003427
596,828.2855366784844
597,828.3075218882713
598,828.3287128426288
599,828.3491452024947
600,828.368859587195
601,828.3879011591405
602,828.4063191876686
603,828.4241665973769
604,828.4414995056229
605,828.4583767525273
606,828.4748594257546
607,828.4910103818006
608,828.5068937650759
609,828.5225745254661
610,828.5381179344233
611,828.5535890991804
612,828.569052474602
613,828.5845713730372
614,828.6002074745634
615,828.6160203423071
616,828.6320669484015
617,828.6484012149729
618,828.6650735725843
619,828.6821305376741
620,828.6996143113034
621,828.717562403084
622,828.7360072853
623,828.7549760826013
624,828.7744903025798
625,828.7945656126533
626,828.8152116691633
627,828.8364320050028
628,828.8582239816136
629,828.8805788094136
630,828.9034816380617
631,828.9269117154619
632,828.9508426127449
633,828.9752425116093
634,829.0000745499298
635,829.0252972212968
636,829.050864824304
637,829.0767279578813
638,829.1028340591456
639,829.1291279794434
640,829.155552592728
641,829.1820494288086
642,829.2085593226604
643,829.2350230700627
644,829.2613820798006
645,829.2875790138258
646,829.3135584087332
647,829.3392672740811
648,829.3646556649456
649,829.3896772273313
650,829.4142897154438
651,829.4384554793522
652,829.4621419203334
653,829.4853219096477
654,829.5079741651886
655,829.5300835797492
656,829.5516414945669
657,829.5726459122826
658,829.5931016446152
659,829.6130203918507
660,829.6324207533115
661,829.6513281698326
662,829.6697748008388
663,829.6877993402276
664,829.7054467769747
665,829.7227681075908
666,829.7398200075107
667,829.7566644671865
668,829.7733683967392
669,829.7900032012316
670,829.8066443273957
671,829.823370781999
672,829.8402646214662
673,829.8574104114605
674,829.8748946540361
675,829.8928051795344
676,829.9112305016179
677,829.9302591370315
678,829.9499788957999
679,829.9704761509593
680,829.9918350988561
681,830.0141370218589
682,830.0374595655259
683,830.0618760418806
684,830.0874547693069
685,830.1142584580336
686,830.1423436490435
687,830.1717602136107
688,830.2025509198568
689,830.2347510711808
690,830.2683882195322
691,830.3034819546706
692,830.3400437687367
693,830.3780769934862
694,830.4175768057609
695,830.4585302956286
696,830.500916591053
697,830.5447070326478
698,830.5898653919883
699,830.6363481273701
700,830.6841046720211
701,830.7330777513238
702,830.783203726897
703,830.8344129660117
704,830.8866302346863
705,830.9397751119182
706,830.9937624208891
707,831.048502671409
708,831.1039025074122
709,831.1598651545793
710,831.2162908655645
711,831.2730773625975
712,831.3301202782216
713,831.3873135943521
714,831.4445500786373
715,831.5017217164361
716,831.5587201370523
717,831.6154370338843
718,831.6717645793981
719,831.727595836813
720,831.7828251707184
721,831.8373486586299
722,831.891064505255
723,831.9438734613434
724,831.995679249223
725,832.0463889970592
726,832.0959136832038
727,832.1441685907688
728,832.1910737711628
729,832.2365545141831
730,832.2805418211896
731,832.3229728763093
732,832.3637915084767
733,832.4029486350955
734,832.4404026771822
735,832.4761199362788
736,832.5100749246321
737,832.5422506411093
738,832.5726387857891
739,832.6012399064867
740,832.6280634709171
741,832.653127858911
742,832.6764602704151
743,832.6980965473301
744,832.7180809104458
745,832.7364656160054
746,832.7533105387794
747,832.768682689482
748,832.7826556742131
749,832.7953091031688
750,832.806727955613
751,832.8170019077053
752,832.8262246287464
753,832.8344930499985
754,832.8419066091018
755,832.8485664722739
756,832.8545747357268
757,832.8600336076586
758,832.86504457364
759,832.8697075510219
760,832.874120040727
761,832.8783762865986
762,832.8825664536047
763,832.8867758368546
764,832.891084113042
765,832.8955646441634
766,832.9002838404044
767,832.9053005855949
768,832.9106657254588
769,832.916421617151
770,832.9226017390515
771,832.9292303620198
772,832.936322285769
773,832.9438826454057
774,832.9519067930414
775,832.9603802581286
776,832.9692787887227
777,832.9785684751588
778,832.9882059577251
779,832.9981387201301
780,833.0083054701831
781,833.018636607855
782,833.0290547789308
783,833.0394755102138
784,833.0498079202505
785,833.0599554981517
786,833.0698169422504
787,833.079287049525
788,833.0882576453112
789,833.0966185408877
790,833.104258505007
791,833.1110662351931
792,833.1169313155029
793,833.121745148748
794,833.1254018524866
795,833.1277991093189
796,833.1288389630878
797,833.128428553583
798,833.1264807834739
799,833.1229149125512
800,833.1176570756224
801,833.1106407214038
802,833.1018069708311
803,833.0911048947183
804,833.0784917123406
805,833.0639329138642
806,833.0474023106882
807,833.0288820190171
808,833.008362383036
809,832.9858418442573
810,832.961326762839
811,832.9348311957475
812,832.9063766364584
813,832.8759917212315
814,832.8437119067045
815,832.8095791222188
816,832.7736413986604
817,832.7359524742859
818,832.6965713769046
819,832.6555619810875
820,832.6129925393448
821,832.5689351875434
822,832.5234654267027
823,832.4766615851858
824,832.4286042667293
825,832.3793757900471
826,832.3290596247587
827,832.2777398270596
828,832.2255004781064
829,832.1724251288778
830,832.1185962566085
831,832.0640947388569
832,832.0089993515854
833,831.9533862977876
834,831.8973287738119
835,831.8408965815257
836,831.7841557950882
837,831.7271684907523
838,831.6699925466127
839,831.6126815164358
840,831.5552845776583
841,831.4978465491002
842,831.4404079705498
843,831.3830052351989
844,831.3256707667304
845,831.2684332345652
846,831.2113178023117
847,831.1543464049939
848,831.097538049959
849,831.0409091351539
850,830.9844737777767
851,830.9282441463698
852,830.872230789551
853,830.8164429542113
854,830.7608888854775
855,830.70557610083
856,830.650511631888
857,830.5957022291643
858,830.5411545269011
859,830.4868751666049
860,830.4328708793125
861,830.3791485283291
862,830.3257151163161
863,830.2725777629643
864,830.219743661718
865,830.1672200257628
866,830.115014034345
867,830.0631327900736
868,830.0115832959585
869,829.9603724578412
870,829.9095071144429
871,829.8589940944073
872,829.8088402978938
873,829.7590527992025
874,829.7096389661943
875,829.6606065916887
876,829.6119640315078
877,829.5637203432024
878,829.5158854187816
879,829.4684701044298
880,829.4214863008023
881,829.3749470390492
882,829.3288665295738
883,829.2832601820629
884,829.2381445961164
885,829.1935375216752
886,829.1494577878796
887,829.1059251988872
888,829.0629603961573
889,829.0205846885344
890,828.9788198535623
891,828.9376879151897
892,828.8972109038907
893,828.8574106049903
894,828.8183083000266
895,828.7799245050476
896,828.7422787092288
897,828.7053891169105
898,828.66927239584
899,828.6339434343529
900,828.5994151107425
901,828.5656980786285
902,828.532800571716
903,828.5007282297464
904,828.4694839457532
905,828.4390677341414
906,828.4094766197013
907,828.3807045487689
908,828.3527423247529
909,828.3255775707678
910,828.2991947217027
911,828.2735750466527
912,828.2486967008441
913,828.2245348047172
914,828.20106154699
915,828.1782463083478
916,828.1560558028265
