acceleration,velocity,displacement
0.018541633207355596,0.0,0.0
0.01737697833338041,8.979652885184003e-06,2.2449132212960007e-09
0.016214920294874414,1.737762754224771e-05,8.834233328153929e-09
0.015058037293196932,2.5195866939265546e-05,1.9477606948532244e-08
0.013908870625367045,3.243759391890654e-05,3.3885972163075264e-08
0.01276990711585295,3.910728835421154e-05,5.1772192731354786e-08
0.011643562542607894,4.521065576882675e-05,7.285167876211435e-08
0.010532166290649405,5.075458797714107e-05,9.684298969860631e-08
0.009437947404947222,5.574711640104023e-05,1.2346841579315165e-07
0.00836302215955715,6.019735879216632e-05,1.5245453459145328e-07
0.007309383216598465,6.411546013620523e-05,1.8353273932354616e-07
0.006278890417650465,6.751252854476746e-05,2.1643973649378934e-07
0.005273263228429558,7.040056695628746e-05,2.5091801036905306e-07
0.004294074841320451,7.279240147372497e-05,2.8671625247655617e-07
0.0033427479245103932,7.470160716518268e-05,3.2358975463628306e-07
0.002420551988560514,7.614243214345041e-05,3.613007644634413e-07
0.0015286023228873885,7.712972072131238e-05,3.99618802679632e-07
0.000667860439828746,7.767883641199142e-05,4.383209419629579e-07
-0.00016086404798793381,7.780558550995163e-05,4.771920474434437e-07
-0.0009569102036736119,7.752614194703624e-05,5.160249793076906e-07
-0.0017197612972151299,7.685697407181405e-05,5.546207583124032e-07
-0.0024490392121456895,7.581477394447385e-05,5.927886953164752e-07
-0.003144497870898178,7.441638967371288e-05,6.303464862210218e-07
-0.0038060158446693044,7.267876124482102e-05,6.671202739506552e-07
-0.004433588329185662,7.061886020135727e-05,7.029446793121998e-07
-0.005027318673710521,6.825363345063323e-05,7.376628027251974e-07
-0.0055874096482767125,6.559995137013642e-05,7.711261989303899e-07
-0.006114154622739772,6.26745603023823e-05,8.031948268485196e-07
-0.006607928810696878,5.949403944402313e-05,8.337369767851209e-07
-0.007069180706786293,5.607476206465234e-05,8.626291771622898e-07
-0.007498423824273767,5.243286093188733e-05,8.897560829114247e-07
-0.007896228823045479,4.8584197770057513e-05,9.150103475869109e-07
-0.008263216104579002,4.454433653815139e-05,9.382924811639632e-07
-0.008600048938937548,4.032852027727225e-05,9.59510695367819e-07
-0.008907427179873594,3.5951651247569464e-05,9.785807382490294e-07
-0.009186081616583993,3.142827404845507e-05,9.954257195730356e-07
-0.009436768999164919,2.677256139451784e-05,1.009975928433779e-06
-0.009660267754109142,2.1998302206199327e-05,1.022168644333958e-06
-0.009857374380934326,1.711889167243846e-05,1.0319479428036175e-06
-0.010028900502767555,1.2147322951512989e-05,1.0392644964596053e-06
-0.010175670537507165,7.096180191444309e-06,1.0440753722453447e-06
-0.010298519956032605,1.9776325680593667e-06,1.0463438254352207e-06
-0.010398294092010289,-3.196570943951357e-06,1.0460390908412477e-06
-0.010475847463028841,-8.41510633271114e-06,1.043136171522082e-06
-0.01053204355768177,-1.3667079087888792e-05,1.037615625166932e-06
-0.010567755040062304,-1.894202873732481e-05,1.0294633482106286e-06
-0.010583864321335443,-2.4229933577674248e-05,1.0186703576318788e-06
-0.010581264442142161,-2.9521215768543648e-05,1.0052325702953243e-06
-0.010560860192882476,-3.480674692729981e-05,9.891505796213634e-07
-0.010523569372263678,-4.007785431858635e-05,9.704294293098919e-07
-0.010470324059856425,-4.5326327676616377e-05,9.490783838110912e-07
-0.010402071767461357,-5.0544426633445825e-05,9.251106952335757e-07
-0.0103197763356408,-5.572488865922137e-05,8.985433664104089e-07
-0.010224418447056356,-6.086093735489566e-05,8.693969099068796e-07
-0.01011699563387276,-6.594629087512793e-05,8.376951028493738e-07
-0.009998521667530921,-7.097517020047885e-05,8.034647375804721e-07
-0.00987002524040311,-7.594230692746235e-05,7.667353682984868e-07
-0.009732547880114795,-8.084295020759183e-05,7.275390540147233e-07
-0.009587141075577755,-8.567287244651496e-05,6.859100983511966e-07
-0.009434862633585934,-9.042837337380588e-05,6.418847868961163e-07
-0.009276772317707058,-9.510628211162914e-05,5.955011230247575e-07
-0.009113926839801506,-9.970395690100627e-05,5.467985632715987e-07
-0.008947374281358661,-0.00010421928218129631,4.958177535010231e-07
-0.008778148028441459,-0.00010865066275874635,4.426002672660124e-07
-0.008607260319546903,-0.00011299701484574344,3.8718834786489e-07
-0.00843569552611415,-0.00011725775380715871,3.2962465570166447e-07
-0.00826440329816684,-0.00012143277851322895,2.699520226215676e-07
-0.00809429170517333,-0.000125522452264064,2.0821321492724434e-07
-0.007926220490518223,-0.00012952758031298687,1.4445070678298163e-07
-0.007760994548091349,-0.00013344938407263925,7.870646568657511e-08
-0.007599357726996534,-0.00013728947214141122,1.1021751633062486e-08
-0.007441987073267467,-0.00014104980834147722,-5.856306848765962e-08
-0.007289487620209125,-0.00014473267701484637,-1.3000868982674052e-07
-0.007142387835515436,-0.00014834064587877752,-2.032770205501465e-07
-0.007001135822775496,-0.00015187652679335027,-2.783313137181784e-07
-0.006866096363285233,-0.00015534333483986545,-3.5513627912648234e-07
-0.006737548878684036,-0.00015874424615035777,-4.3365817437403813e-07
-0.006615686396053625,-0.00016208255496904218,-5.138648746538882e-07
-0.0065006155975249336,-0.00016536163046743682,-5.95725921013008e-07
-0.006392358023864825,-0.00016858487387278427,-6.792125470980632e-07
-0.006290852465662541,-0.00017175567649516612,-7.642976846900508e-07
-0.0061959585179952184,-0.00017487737924108056,-8.509559486241126e-07
-0.006107461210712333,-0.00017795323417325745,-9.391636019776971e-07
-0.0060250765765319445,-0.00018098636862006853,-1.0288985026760287e-06
-0.005948457992265866,-0.000183979752262268,-1.1201400328966128e-06
-0.005877203119716342,-0.00018693616754026355,-1.2128690128472457e-06
-0.005810861271135803,-0.0001898581836379766,-1.3070676006418057e-06
-0.005748941025259019,-0.0001927481342120753,-1.4027191801043187e-06
-0.0056909179266525995,-0.0001956080989500532,-1.4998082383948508e-06
-0.005636242114833789,-0.0001984398889604248,-1.5983202353724703e-06
-0.00558434574867738,-0.00020124503592630258,-1.698241466594152e-06
-0.005534650114030797,-0.00020402478489197964,-1.7995589217987227e-06
-0.005486572325848314,-0.0002067800905019494,-1.902260140647205e-06
-0.005439531556669745,-0.0002095116164725789,-2.006333067390837e-06
-0.005392954740654061,-0.00021221973804690986,-2.111765906020709e-06
-0.005346281721583576,-0.00021490454716246928,-2.2185469773230538e-06
-0.005298969840072031,-0.00021756586005288318,-2.326664579126892e-06
-0.0052504979882451895,-0.00022020322700996248,-2.4361068508926032e-06
-0.0052003701882159595,-0.00022281594405407776,-2.5468616436586134e-06
-0.005148118760428128,-0.0002254030662912388,-2.6589163962449427e-06
-0.005093307139253777,-0.00022796342276615926,-2.772258018509292e-06
-0.005035532379040368,-0.0002304956326457328,-2.8868727823622654e-06
-0.004974427382231139,-0.00023299812258605068,-3.002746221170211e-06
-0.004909662864412674,-0.00023546914514771164,-3.1198630381036518e-06
-0.0048409490424065555,-0.00023790679812441646,-3.238207023921684e-06
-0.004768036998387534,-0.00024030904463461498,-3.357760984611442e-06
-0.004690719648631892,-0.00024267373379636983,-3.478506679219188e-06
-0.00460883223371713,-0.0002449986217669571,-3.6004247681100198e-06
-0.004522252246742821,-0.00024728139288707207,-3.723494771773527e-06
-0.004430898729526542,-0.0002495196806311394,-3.84769504015308e-06
-0.004334730894758155,-0.0002517110880372106,-3.9730027323201675e-06
-0.004233746069518341,-0.00025385320727827973,-4.09939380614904e-06
-0.004127976996401343,-0.00025594363804475967,-4.2268430174798005e-06
-0.004017488567519596,-0.0002579800044357399,-4.355323928099925e-06
-0.0039023740950869844,-0.00025995997010139156,-4.4848089217342085e-06
-0.0037827512314947,-0.000261881251433037,-4.6152692271178155e-06
-0.0036587576447640996,-0.0002637416286521017,-4.7466749471391e-06
-0.00353054654281182,-0.00026553895469899564,-4.878995092976874e-06
-0.0033982821307161275,-0.00026727116186737765,-5.012197622118468e-06
-0.003262135080449503,-0.0002689362661701691,-5.146249479127855e-06
-0.003122278087934718,-0.0002705323694622651,-5.281116638035964e-06
-0.0029788815819381054,-0.00027205765937973335,-5.416764145246463e-06
-0.002832109631227978,-0.00027351040718302485,-5.553156161887153e-06
-0.002682116074918692,-0.0002748889636095615,-5.690256004585299e-06
-0.0025290408834042224,-0.0002761917528491422,-5.828026183699975e-06
-0.0023730067490386575,-0.0002774172647572529,-5.966428438101574e-06
-0.0022141159065003704,-0.0002785640454211377,-6.1054237656461715e-06
-0.0020524471905616322,-0.0002796306861954032,-6.244972448550307e-06
-0.0018880533532957696,-0.00028061581133136755,-6.3850340729319995e-06
-0.0017209586804757466,-0.0002815180643398104,-6.525567541849794e-06
-0.0015511569613343556,-0.00028233609325026293,-6.6665310812473125e-06
-0.0013786098739129585,-0.00028306853495907474,-6.807882238299647e-06
-0.001203245852754845,-0.0002837139988907417,-6.949577871762101e-06
-0.0010249595048703627,-0.000284271050230148,-7.091574134042323e-06
-0.0008436116248762022,-0.00028473819301258463,-7.233826444853006e-06
-0.0006590298290063086,-0.00028511385337605524,-7.376289456450166e-06
-0.0004710097915921086,-0.00028539636328120486,-7.518917010614481e-06
-0.000279317039595737,-0.0002855839449890018,-7.661662087682033e-06
-8.368924460494835e-05,-0.000285674696560052,-7.804476748069296e-06
0.00011616105374340704,-0.0002856665786077674,-7.947312066861251e-06
0.0003205433520721338,-0.0002855574025063135,-8.090118062139772e-06
0.0005297857561028007,-0.0002853448202292698,-8.232843617823668e-06
0.0007442312456604698,-0.000285026315978829,-8.375436401875693e-06
0.0009642336585198125,-0.00028459919975278394,-8.517842780808596e-06
0.0011901534457314468,-0.0002840606029767211,-8.660007731490973e-06
0.0014223532786523435,-0.0002834074762956252,-8.80187475130906e-06
0.0016611935960514665,-0.00028263658957694923,-8.943385767777203e-06
0.0019070281702839387,-0.0002817445341353654,-9.084481048705281e-06
0.0021601997578661156,-0.0002807277271533279,-9.225099114027455e-06
0.0024210358858906076,-0.0002795824182423887,-9.365176650376384e-06
0.002689844807649885,-0.0002783046980690036,-9.504648429454232e-06
0.0029669116367215848,-0.0002768905089579107,-9.64344723121096e-06
0.003252494639915453,-0.00027533565738875143,-9.781503772797626e-06
0.003546821636590082,-0.00027363582831962507,-9.91874664422472e-06
0.0038500864208802442,-0.0002717866013052575,-1.005510225163094e-05
0.004162445106033313,-0.0002697834684235291,-1.0190494769063138e-05
0.004484012295489932,-0.00026762185407314825,-1.0324846099687307e-05
0.004814857010156929,-0.00026529713674673655,-1.0458075847392278e-05
0.005154998337324552,-0.0002628046729098662,-1.0590101299806429e-05
0.00550440081176298,-0.0002601398231225943,-1.0720837423814545e-05
0.005862969594521906,-0.00025729798052102307,-1.0850196874725448e-05
0.006230545571863469,-0.00025427460172942673,-1.097809002028806e-05
0.006606900541587053,-0.0002510652402010641,-1.1104424980770683e-05
0.006991732680926279,-0.00024766558189543575,-1.1229107686294808e-05
0.007384662502781067,-0.0002440714830995089,-1.1352041952543545e-05
0.0077852295067211055,-0.00024027901009713337,-1.1473129575842706e-05
0.00819288971162786,-0.00023628448029254612,-1.1592270448440125e-05
0.00860701421220199,-0.00023208450431158866,-1.1709362694591158e-05
0.009026888839730941,-0.00022767602854860544,-1.1824302827806207e-05
0.009451714949863218,-0.0002230563776012069,-1.193698592934366e-05
0.009880611325541825,-0.00021822329603235564,-1.204730584775205e-05
0.010312617171654733,-0.0002131749889080565,-1.2155155418987153e-05
0.010746696172841443,-0.00020791016057193244,-1.2260426706357151e-05
0.011181741572575664,-0.00020242805113557816,-1.2363011259284029e-05
0.011616582211380923,-0.00019672847018958902,-1.246280038961532e-05
0.012049989449359456,-0.00019081182727440391,-1.2559685463981318e-05
0.012480684901793597,-0.00018467915868661564,-1.2653558210471572e-05
0.012907348927787238,-0.00017833215022922043,-1.2744311037700531e-05
0.013328629814851183,-0.00017177315554356082,-1.2831837364143727e-05
0.013743153592168683,-0.00016500520969180585,-1.291603195545257e-05
0.014149534386316663,-0.00015803203769718452,-1.2996791267299816e-05
0.014546385208883803,-0.0001508580577983844,-1.3074013791173709e-05
0.014932329040125026,-0.00014348837923613218,-1.3147600400432338e-05
0.01530601005307736,-0.00013592879446283157,-1.3217454693857079e-05
0.015666104809701115,-0.00012818576574713696,-1.328348333390957e-05
0.016011333250104412,-0.00012026640623218558,-1.3345596376904402e-05
0.016340469288431757,-0.00011217845559755153,-1.3403707592361837e-05
0.016652350833005217,-0.00010393025056719228,-1.3457734768903023e-05
0.01694588907119683,-9.553069059114177e-05,-1.3507600004192606e-05
0.01722007689528939,-8.698919909952021e-05,-1.3553229976615272e-05
0.017473996377965182,-7.831568078120657e-05,-1.3594556196585454e-05
0.01770682522747402,-6.952047537984676e-05,-1.3631515235625717e-05
0.017917842173253085,-6.0614308529664984e-05,-1.3664048931603095e-05
0.018106431260593706,-5.160824017120329e-05,-1.3692104568778313e-05
0.018272085055418205,-4.251361109220031e-05,-1.3715635031594163e-05
0.018414406760807446,-3.33419881381439e-05,-1.3734598931401749e-05
0.01853311123095855,-2.41051086402024e-05,-1.3748960705596335e-05
0.01862802485986553,-1.4814824617496378e-05,-1.375869068891076e-05
0.018699084337452293,-5.483047318166922e-06,-1.3763765156894676e-05
0.018746334299777383,3.878307341140497e-06,-1.3764166341888931e-05
0.018769923936058697,1.325737190009952e-05,-1.3759882422078621e-05
0.018770102641231103,2.264237854442197e-05,-1.375090748446749e-05
0.018747214818246507,3.202170790929137e-05,-1.3737241462854063e-05
0.01870169394783118,4.1383935100810796e-05,-1.3718890052101536e-05
0.018634056058352815,5.0717872602356795e-05,-1.3695864600175744e-05
0.018544892735031557,6.001260980070289e-05,-1.366818197957498e-05
0.018434863797093436,6.925754893373414e-05,-1.363586443989137e-05
0.01830468975195013,7.844243732099503e-05,-1.3598939443327688e-05
0.01815514412531276,8.755739579031075e-05,-1.3557439485049861e-05
0.017987045770403352,9.659294326423977e-05,-1.3511401900286224e-05
0.017801251263937688,0.00010554001752282504,-1.3460868660089458e-05
0.01759864748485462,0.00011438999221002312,-1.3405886157656247e-05
0.017380144444159588,0.00012313469019227668,-1.3346504987055672e-05
0.017146668405976263,0.00013176639340481064,-1.32827797161564e-05
0.016899155324675657,0.00014027784933747363,-1.3214768655470829e-05
0.016638544619943806,0.0001486622743236285,-1.3142533624555553e-05
0.016365773308470367,0.00015691335380573203,-1.3066139717523212e-05
0.016081770501709444,0.000165025239758277,-1.298565506913221e-05
0.015787452273867537,0.00017299254545217124,-1.2901150622829599e-05
0.015483716914772457,0.00018081033774933124,-1.2812699902029224e-05
0.015171440604657936,0.00018847412712918885,-1.2720378785809593e-05
0.014851473568134401,0.00019597985567238694,-1.2624265290109199e-05
0.01452463677422336,0.00020332388325797638,-1.2524439355376608e-05
0.014191719246805044,0.0002105029722632335,-1.2420982641496306e-05
0.0138534760352605,0.00021751427108374988,-1.231397833065956e-05
0.013510626871474581,0.00022435529681043366,-1.2203510938686013e-05
0.01316385551372115,0.0002310239174067326,-1.2089666135131722e-05
0.012813809758650749,0.00023751833372482556,-1.1972530572348832e-05
0.012461102091698715,0.00024383706168741294,-1.1852191723495772e-05
0.012106310936735785,0.00024997891494452155,-1.1728737729337788e-05
0.011749982447543734,0.00025594298829059145,-1.160225725352901e-05
0.011392632755310227,0.00026172864209130496,-1.1472839345933537e-05
0.011034750558314549,0.00026733548791971115,-1.1340573313430784e-05
0.01067679992703963,0.0002727633755410497,-1.1205548597565594e-05
0.010319223207453567,0.00027801238132467296,-1.1067854658349164e-05
0.009962443932142784,0.00028308279810957207,-1.0927580863490603e-05
0.009606869679385744,0.0002879751265124542,-1.0784816382335096e-05
0.009252894843807643,0.00029269006764325256,-1.0639650083796169e-05
0.008900903298238373,0.0002972285171787641,-1.0492170437590665e-05
0.008551270937224981,0.0003015915607376299,-1.0342465418111567e-05
0.008204368096367131,0.00030578047049602795,-1.0190622410303153e-05
0.00786056183562291,0.00030979670297902545,-1.0036728116934389e-05
0.007520218060914149,0.0003136418979531597,-9.880868466701344e-06
0.007183703440344777,0.00031731787832847447,-9.723128522630935e-06
0.006851387051684046,0.0003208266509514817,-9.563592390310945e-06
0.006523641680810496,0.00032417040813460536,-9.402343125539423e-06
0.006200844681678973,0.00032735152972522774,-9.239462641074465e-06
0.005883378308682437,0.0003303725854728181,-9.075031612274954e-06
0.005571629441584605,0.0003332363374103849,-8.909129381554153e-06
0.005265988642825232,0.00033594574193148737,-8.741833861718684e-06
0.0049668485165451646,0.00033850395122133,-8.57322143843048e-06
0.004674601372414389,0.00034091431369356987,-8.403366872201754e-06
0.0043896362291083865,0.00034318037309395054,-8.232343200504874e-06
0.004112335221348335,0.0003453058659565647,-8.060221640742246e-06
0.0038430694989993633,0.00034729471713665166,-7.887071494968941e-06
0.0035821947204982218,0.00034915103319152604,-7.712960057386897e-06
0.0033300462466126913,0.00035087909343330375,-7.537952525730689e-06
0.0030869341472826257,0.0003524833385317776,-7.362111917739418e-06
0.0028531381510281104,0.00035396835660635525,-7.185498993954885e-06
0.0026289026810470246,0.00035533886681437404,-7.008172188099703e-06
0.002414432120878358,0.0003565997005148554,-6.830187546267395e-06
0.0022098864364078243,0.00035775578015417696,-6.651598676100137e-06
0.0020153772584543084,0.0003588120960778925,-6.47245670704212e-06
0.001830964505735418,0.00035977368151893994,-6.292810262642912e-06
0.0016566536064158404,0.00036064558604697775,-6.112705445751433e-06
0.0014923933633025639,0.0003614328477894073,-5.932185837292336e-06
0.0013380745016050766,0.00036214046475563426,-5.751292509156076e-06
0.0011935289310499632,0.000362773365613798,-5.570064051563718e-06
0.0010585297420200286,0.0003633363802820655,-5.388536615089752e-06
0.0009327919403376702,0.0003638342107026549,-5.206743967343572e-06
0.0008159739112975266,0.0003642714021655637,-5.024717564126517e-06
0.00070767959250234,0.0003646523155415137,-4.842486634699748e-06
0.0006074613256336492,0.00036498110077104766,-4.6600782806216075e-06
0.0005148233440911967,0.00036526167193847884,-4.477517587444226e-06
0.0004292258326402068,0.0003654976842326617,-4.2948277484014405e-06
0.0003500894731616129,0.00036569251305911216,-4.112030199078497e-06
0.00027680038051485964,0.0003658492355225313,-3.929144761933086e-06
0.00020871533902264643,0.0003659706144524157,-3.746189799439349e-06
0.00014516726276514664,0.0003660590851028626,-3.5631823745505293e-06
8.54708070260789e-05,0.0003661167446203104,-3.380138417119736e-06
2.892804944306196e-05,0.0003661453443344277,-3.1970728948810515e-06
-2.516585560154314e-05,0.0003661462848828881,-3.0139999875767226e-06
-7.751715702143402e-05,0.00036612061412973236,-2.8309332628235676e-06
-0.00012882822948883562,0.0003660690277831048,-2.6478858523453582e-06
-0.0001797926326631383,0.00036599187256756684,-2.4648706272576905e-06
-0.00023109057634478354,0.0003658891517653149,-2.28190037117447e-06
-0.000283384830805784,0.00036576053291352724,-2.0989879500047593e-06
-0.0003373170974840175,0.0003656053574314548,-1.916146477418514e-06
-0.00039350484500112683,0.0003654226519458335,-1.7333894750741919e-06
-0.00045253861600393807,0.0003652111410805822,-1.5507310268175879e-06
-0.0005149798089842392,0.00036496926147433517,-1.3681859261788585e-06
-0.0005813589291001667,0.0003646951767898141,-1.185769816612821e-06
-0.0006521742867874543,0.00036438679348584215,-1.0034993240439071e-06
-0.0007278911060764769,0.0003640417771376262,-8.2139218138804e-07
-0.0008089409877339052,0.00036365756911417357,-6.3946734482509e-07
