acceleration,velocity,displacement
-0.026574051177260753,0.0,0.0
-0.024886094202947413,-1.2865036345052042e-05,-3.2162590862630107e-09
-0.023201766687988103,-2.488700156778592e-05,-1.2654268564472502e-08
-0.021524671826931064,-3.6068611196515715e-05,-2.789317175554791e-08
-0.019858360557404687,-4.6414369292599653e-05,-4.851391687782676e-08
-0.01820630610529988,-5.5930535958275795e-05,-7.410014319054562e-08
-0.016571879325857113,-6.462508231606504e-05,-1.0423904775913083e-07
-0.014958325100480334,-7.25076334226494e-05,-1.3852222669380943e-07
-0.01336874005239832,-7.958939971086907e-05,-1.7654648497718904e-07
-0.011806051838094935,-8.588309768349239e-05,-2.1791460932577942e-07
-0.010273000247092006,-9.140286070478913e-05,-2.622360989228498e-07
-0.008772120302609768,-9.616414084221457e-05,-3.091278493096007e-07
-0.0073057275109618906,-0.00010018360279560748,-3.582147852190562e-07
-0.005875905368275226,-0.00010347901101541676,-4.0913043867181223e-07
-0.004484495202022816,-0.00010606911115799126,-4.6151746921516426e-07
-0.0031330884000881926,-0.00010797350705851901,-5.150281237692918e-07
-0.0018230210580696903,-0.00010921253442305848,-5.693246341396862e-07
-0.0005553710532279026,-0.00010980713245088288,-6.240795508581716e-07
0.0006690424705451173,-0.00010977871459655358,-6.789760126200307e-07
0.0018496572463778192,-0.00010914903966732285,-7.337079511859998e-07
0.0029861637168419296,-0.00010794008442651791,-7.879802322094599e-07
0.004078498633159472,-0.00010617391883901757,-8.415087330258437e-07
0.005126836520114807,-0.00010387258505069899,-8.940203589982729e-07
0.006131579135090202,-0.00010105798113689774,-9.452530005451721e-07
0.007093343084998028,-9.775175058187568e-05,-9.949554334748653e-07
0.008012945795619057,-9.397517836172141e-05,-1.0428871657107645e-06
0.008891390045957973,-8.974909440132715e-05,-1.0888182339015266e-06
0.009729847287124716,-8.509378506805648e-05,-1.1325289537688726e-06
0.010529639965497392,-8.002891325490096e-05,-1.1738096283496119e-06
0.011292223063574457,-7.457344749763299e-05,-1.2124602185377454e-06
0.012019165061157074,-6.87456004664501e-05,-1.248289980528766e-06
0.012712128513730164,-6.25627770727283e-05,-1.2811170749135606e-06
0.013372850451999912,-5.604153233129578e-05,-1.3107681522645666e-06
0.014003122821734156,-4.919753901286226e-05,-1.3370779201006062e-06
0.014604773193327671,-4.20455650090968e-05,-1.359888696106096e-06
0.015179645966829301,-3.459946021905756e-05,-1.3790499524131346e-06
0.015729584281623972,-2.6872152656944238e-05,-1.394417855632135e-06
0.016256412818653275,-1.8875653381874925e-05,-1.4058548071418397e-06
0.016761921659613786,-1.062106976230816e-05,-1.4132289879278855e-06
0.01724785133733948,-2.118626513069845e-06,-1.41641391199673e-06
0.017715879174055836,6.622306114778984e-06,-1.4152879920963027e-06
0.018167606969394207,1.5593177650641496e-05,-1.4097341211549476e-06
0.018604550076580018,2.4786216912135053e-05,-1.3996392725142535e-06
0.019028127890053433,3.4194386403793414e-05,-1.3848941216852713e-06
0.019439655751593427,4.381133231420513e-05,-1.3653926920057717e-06
0.01984033825984722,5.363133081706529e-05,-1.3410320262229542e-06
0.02023126394367897,6.364923136794684e-05,-1.311711885676701e-06
0.020613401237472156,7.386039766323462e-05,-1.2773344784189056e-06
0.020987595677706163,8.42606468920292e-05,-1.2378042172800896e-06
0.02135456822825438,9.484618786851933e-05,-1.1930275085899524e-06
0.02171491464226686,0.00010561355858614965,-1.1429125719762852e-06
0.022069105778922137,0.00011655956369144689,-1.087369291406886e-06
0.022417488804672082,0.00012768121233734545,-1.026309097399688e-06
0.022760289217361243,0.00013897565684285377,-9.596448801046383e-07
0.02309761364238748,0.00015044013255779095,-8.872909327544771e-07
0.023429453365294388,0.0001620718993097114,-8.091629247876015e-07
0.023755688581211326,0.00017386818479633783,-7.251779037610892e-07
0.024076093354512038,0.00018582613028026866,-6.352543249919376e-07
0.024390341290483054,0.00019794273894151743,-5.393121076864911e-07
0.02469801192439832,0.00021021482724523777,-4.372727161398023e-07
0.02499859782988785,0.0002226389796838093,-3.290592644075405e-07
0.025291512433641927,0.00023521150724969175,-2.1459664267416525e-07
0.025576098495779593,0.00024792840998204713,-9.381166336623054e-08
0.02585163717888872,0.0002607853439007142,3.3366775104459823e-08
0.026117357593575873,0.00027377759259383035,1.6700750922809597e-07
0.026372446684112677,0.00028690004366325246,3.071769182923667e-07
0.026616059309165642,0.000300147170161572,4.539387217485728e-07
0.026847328375161152,0.0003135130170826537,6.073537685596293e-07
0.027065374885055723,0.00032699119289770795,7.674798210547197e-07
0.027269317771540548,0.000340574866061857,9.343713357946109e-07
0.027458283396786222,0.0003542567663539387,1.1080792438985599e-06
0.027631414623209418,0.0003680291908589376,1.2886507332017789e-06
0.027787879386239195,0.0003818840143612998,1.4761290345068383e-06
0.02792687872469429,0.00039581270388903316,1.6705532140694216e-06
0.0280476542430954,0.0004098063371309806,1.871957974324425e-06
0.028149494989489855,0.0004238556244391269,2.080373464716952e-06
0.028231743730112967,0.0004379509341190276,2.2958251043564905e-06
0.028293802587999465,0.00045208232069855574,2.5183334180608864e-06
0.028335137990612207,0.00046623955584320867,2.7479138871963275e-06
0.02835528485560395,0.0004804121615547627,2.9845768165458204e-06
0.02835384995092506,0.0004945894452563949,3.2283272182486096e-06
0.028330514398748,0.0005087605363438132,3.4791647136486615e-06
0.028285035336486304,0.0005229144237776218,3.7370834536790203e-06
0.028217246782337158,0.0005370399943073277,4.0020720582002575e-06
0.0281270597669353,0.0005511260709446458,4.274113574513251e-06
0.02801446178885058,0.0005651614513335922,4.55318545508281e-06
0.02787951563957475,0.0005791349456906986,4.8392595543388835e-06
0.02772235763647704,0.0005930354140097116,5.132302144263986e-06
0.02754319530737872,0.0006068518022456755,5.4322739483278335e-06
0.027342304583403206,0.000620573177218371,5.739130193193846e-06
0.0271200265675355,0.0006341887600061056,6.052820677499965e-06
0.026876763949198103,0.000647687957635289,6.373289856910313e-06
0.026612977130923598,0.0006610603929053194,6.700476944545465e-06
0.026329180126693413,0.0006742959322197236,7.034316025826726e-06
0.02602593629122979,0.0006873847113242044,7.3747361867127076e-06
0.02570385395034706,0.0007003171588845986,7.721661654264909e-06
0.02536358201675893,0.0007130840178763751,8.075011948455153e-06
0.025005805678662396,0.0007256763648002305,8.434702044124304e-06
0.024631242234995347,0.0007380856267786449,8.800642542019022e-06
0.02424063713074736,0.0007503035966200806,9.172739847868704e-06
0.023834760227125818,0.0007623224459595489,9.550896358513611e-06
0.02341440232454087,0.0007741347365974655,9.935010654152865e-06
0.022980371939973206,0.000785733430163594,1.032497769584313e-05
0.02253349232866085,0.0007971118962307526,1.0720689027441716e-05
0.02207459873850786,0.0008082639189975448,1.1122032981248791e-05
0.02160453589524112,0.000819183702655982,1.1528894886662172e-05
0.021124155734530643,0.000829865875563425,1.1941157281217025e-05
0.020634315418635082,0.0008403054933517164,1.235870012344581e-05
0.02013587569045005,0.0008504980411289877,1.2781401007065986e-05
0.019629699617565347,0.0008604394349559915,1.320913537608723e-05
0.019116651756898508,0.0008701260227996075,1.364177674052613e-05
0.018597597729151764,0.0008795545851711201,1.4079196892518811e-05
0.018073404144878156,0.0008887223356396275,1.4521266122721498e-05
0.017544938790979233,0.0008976269213735919,1.4967853436974803e-05
0.017013070981138516,0.0009062664238166213,1.5418826773272356e-05
0.016478671988515287,0.0009146393595590347,1.587405321911627e-05
0.015942615493861775,0.0009227446814296291,1.6333399229363436e-05
0.015405777987428416,0.0009305817797999516,1.679673084467083e-05
0.014869039064866666,0.0009381504840630253,1.7263913910636575e-05
0.014333281563745229,0.0009454510642201784,1.7734814297707375e-05
0.013799391497302553,0.0009524842324854403,1.820929812188378e-05
0.01326825774918008,0.0009592511447970609,1.8687231966204402e-05
0.012740771493861401,0.0009657534021078213,1.9168483102930622e-05
0.012217825304959469,0.0009719930513075265,1.965291971628446e-05
0.011700311912655893,0.0009779725856119304,2.0140411125514323e-05
0.011189122573693021,0.0009836949442335176,2.0630828007975685e-05
0.010685145019660018,0.0009891635111318557,2.112404262181703e-05
0.010189260950818341,0.0009943821126244753,2.161992902775611e-05
0.009702343044186943,0.0009993550136232266,2.2118363309318035e-05
0.009225251446653468,0.0010040869122459367,2.2619223790785326e-05
0.008758829728603404,0.001008582932539751,2.3122391251981747e-05
0.008303900284755687,0.0010128486150430907,2.3627749138877457e-05
0.00786125918872622,0.001016889904911461,2.4135183768866096e-05
0.007431670535386193,0.001020713137342489,2.4644584529429583e-05
0.007015860337747716,0.0010243250200607725,2.5155844068780398e-05
0.006614510078955123,0.0010277326126649482,2.566885847696183e-05
0.006228250049293859,0.0010309433026970106,2.618352745580232e-05
0.005857652617495187,0.0010339647783637078,2.6699754476067498e-05
0.005503225591682144,0.0010368049979160021,2.7217446920137424e-05
0.00516540581677315,0.001039472155768116,2.7736516208558453e-05
0.004844553133877834,0.0010419746455057786,2.8256877908876928e-05
0.004540944798937523,0.0010443210199889824,2.877845182525062e-05
0.004254770430104001,0.0010465199487962428,2.9301162067446926e-05
0.003986127532069924,0.0010485801732867863,2.9824937097967683e-05
0.0037350176331643744,0.001050510459578095,3.0349709756183903e-05
0.0035013430658624284,0.0010523195497528517,3.0875417258516636e-05
0.0032849044219454096,0.0010540161116248037,3.140200117386105e-05
0.003085398720329357,0.0010556086874103723,3.192940737361985e-05
0.0029024183364810717,0.0010571056416745748,3.2457585955891085e-05
0.0027354507499231157,0.001058515108946176,3.2986491143546276e-05
0.002583879163161276,0.001059844941424447,3.3516081156138934e-05
0.0024469840314134054,0.0010611026572230906,3.404631805580082e-05
0.0023239455252103683,0.0010622953896122465,3.457716756750965e-05
0.0022138469337319847,0.001063429837726982,3.510859887434446e-05
0.002115679006322495,0.0010645122192119957,3.5640584388579206e-05
0.0020283452188080385,0.0010655482252682784,3.617309949969927e-05
0.0019506679352565498,0.0010665429785567946,3.670612230065554e-05
0.0018813954125510527,0.0010675009943937465,3.723963329389318e-05
0.001819209566616523,0.0010684261456385383,3.777361507890125e-05
0.0017627343925159607,0.0010693216316283213,3.830805202321796e-05
0.0017105449136960852,0.0010701899514548743,3.884292991898876e-05
0.0016611765326026327,0.001071032881816449,3.9378235627306595e-05
0.0016131346633988931,0.0010718514596154494,3.991395671266457e-05
0.001564904541075129,0.001072645969416568,4.045008106992257e-05
0.0015149611119372921,0.001073415935829821,4.098659654623417e-05
0.0014617789160931832,0.0010741601208368286,4.152349056040083e-05
0.0014038418759630318,0.0010748765260348426,4.2060749722118745e-05
0.0013396529075581133,0.0010755623997307229,4.259835945356014e-05
0.0012677432713600369,0.0010762142487754523,4.3136303615686684e-05
0.0011866815768691234,0.0010768278549875096,4.3674564141627424e-05
0.0010950823524514648,0.0010773982959698398,4.421312067936676e-05
0.0009916140936306564,0.0010779199700813604,4.475195024587956e-05
0.0008750067100273055,0.001078386625282275,4.529102689472047e-05
0.000744058303619841,0.0010787913915356866,4.5830321398924964e-05
0.0005976412276990049,0.0010791268164185163,4.636980095091351e-05
0.0004347073958472279,0.0010793849035744029,4.690942888091174e-05
0.00025429283112002885,0.0010795571536311448,4.7449164395213126e-05
5.5521463637665504e-05,0.0010796346072048343,4.798896233542212e-05
-0.00016239180336359362,0.0010796078896199027,4.8528772959628304e-05
-0.00040013873326473747,0.0010794672569857456,4.906854174627972e-05
-0.0006583160733334341,0.001079202643284096,4.960820922134718e-05
-0.0009374245186428603,0.0010788037081361018,5.014771080920223e-05
-0.0012378682877427045,0.0010782598849345055,5.068697670746988e-05
-0.0015599552717210196,0.0010775604290446396,5.122593178596467e-05
-0.001903897716455347,0.0010766944657975956,5.176449550967523e-05
-0.0022698133961417464,0.0010756510380194463,5.230258188562949e-05
-0.0026577272340554256,0.001074419152861897,5.284009943334983e-05
-0.0030675733289999623,0.0010729878277211332,5.3376951178495585e-05
-0.00349919735742708,0.0010713461350495264,5.391303466918825e-05
-0.00395235933647274,0.0010694832458760515,5.4448242014419645e-05
-0.004426736741059641,0.0010673884718566684,5.498245994385282e-05
-0.004921927964538791,0.0010650513056802689,5.551556988823706e-05
-0.0054374561038798,0.0010624614596631643,5.604744807957292e-05
-0.005972773046488874,0.0010596089023755721,5.65779656700826e-05
-0.0065272638368032605,0.0010564838931547491,5.710698886896518e-05
-0.007100251300582203,0.0010530770143704028,5.763437909584647e-05
-0.007691000900415665,0.0010493792013201533,5.8159993149769106e-05
-0.008298725789410726,0.0010453817696476967,5.868368339251107e-05
-0.008922592022129633,0.0010410764401948115,5.92052979449717e-05
-0.00956172387169146,0.0010364553612213564,5.9724680895325744e-05
-0.01021520919275262,0.0010315111279552453,6.0241672517619896e-05
-0.010882104769677927,0.0010262367994646378,6.075610949947487e-05
-0.011561441601378742,0.0010206259128718736,6.1267825177559e-05
-0.012252230090450442,0.0010146724949489164,6.17766497795142e-05
-0.012953465111241614,0.0010083710711484934,6.228241067103855e-05
-0.013664130927343485,0.0010017166721388471,6.278493260686039e-05
-0.014383205925080337,0.000994704837925741,6.328403798437653e-05
-0.015109667136924323,0.00098733161966024,6.377954709877302e-05
-0.01584249454477701,0.0009795935792398145,6.427127839849804e-05
-0.016580675165700703,0.0009714877868121951,6.475904874001105e-05
-0.01732320692453218,0.0009630118162896368,6.52426736407865e-05
-0.0180691023121325,0.0009541637389804706,6.572196752960403e-05
-0.018817391821230475,0.0009449421154471299,6.619674399321093e-05
-0.019567127147466078,0.0009353459857049558,6.666681601849895e-05
-0.020317384143365997,0.0009253748578822477,6.713199622939575e-05
-0.021067265516987815,0.0009150286954671593,6.75920971177331e-05
-0.021815903270540938,0.0009043079032702771,6.804693126741746e-05
-0.02256246087437663,0.0008932133122340477,6.849631157129355e-05
-0.02330613517234751,0.0008817461632223666,6.894005144015765e-05
-0.024046158017534236,0.0008699080899248962,6.937796500344446e-05
-0.02478179763618907,0.0008577011010114654,6.980986730117854e-05
-0.02551235970810433,0.000845127561675392,7.023557446685026e-05
-0.026237188139671196,0.000832190174713448,7.065490390094748e-05
-0.026955665499871842,0.0008188919613035622,7.106767443495172e-05
-0.027667213090951808,0.0008052362416558563,7.147370648569157e-05
-0.02837129063237419,0.0007912266157250248,7.187282220003679e-05
-0.02906739554661814,0.0007768669441802767,7.226484559001311e-05
-0.029755061845546226,0.0007621613298322355,7.264960265851625e-05
-0.030433858622422504,0.0007471140997152433,7.302692151590311e-05
-0.03110338815677491,0.000731729788020444,7.339663248783703e-05
-0.031763283645352205,0.0007160131200699123,7.375856821485963e-05
-0.03241320658964921,0.0006999689975111619,7.411256374425489e-05
-0.03305284389315752,0.0006836024848904602,7.44584566148553e-05
-0.033681904737132146,0.0006669187977328877,7.479608693551114e-05
-0.03430011730849516,0.0006499232922214809,7.512529745799973e-05
-0.034907225453604245,0.000632621456530956,7.544593364518783e-05
-0.035502985333121836,0.0006150189038342745,7.575784373527914e-05
-0.03608716215474872,0.0005971213669623068,7.606087880297829e-05
-0.03665952705540021,0.0005789346946597696,7.635489281838381e-05
-0.03721985419150248,0.0005604648493480439,7.663974270438577e-05
-0.03776791808426426,0.0005417179062791023,7.691528839329256e-05
-0.03830349126409894,0.0005227000539420114,7.718139288334784e-05
-0.03882634226138686,0.00050341759556064,7.74379222957235e-05
-0.039336233991399676,0.0004838769514974434,7.768474593248802e-05
-0.039832922576878954,0.00046408466235537375,7.792173633595123e-05
-0.040316156643984524,0.0004440473925501579,7.81487693496776e-05
-0.04078567711471292,0.00042377193411048355,7.836572418134277e-05
-0.041241217496403054,0.0004032652104577046,7.857248346748482e-05
-0.04168250463704485,0.0003825342799243426,7.876893334008033e-05
-0.042109259883084046,0.00036158633879431037,7.895496349475999e-05
-0.04252120055442541,0.000340428723684933,7.91304672603798e-05
-0.0429180416415753,0.0003190689131359328,7.929534166958502e-05
-0.04329949762910157,0.00029751452831826357,7.944948752994857e-05
-0.043665284356559954,0.0002757733328218482,7.95928094952336e-05
-0.04401512084214429,0.00025385323152217216,7.97252161363196e-05
-0.044348731012038824,0.0002317622685586264,7.98466200113398e-05
-0.04466584529615509,0.00020950862448157793,7.995693773459986e-05
-0.04496620206809677,0.00018710061264051497,8.005609004388037e-05
-0.0452495489227419,0.0001645466748928053,8.01440018657637e-05
-0.04551564379550216,0.0001418553767132443,8.02206023786652e-05
-0.045764255930755254,0.00011903540178167994,8.028582507328894e-05
-0.045995166703944386,9.609554612300503e-05,8.033960781026511e-05
-0.04620817029676608,7.304471187282742e-05,8.038189287476406e-05
-0.04640307422461773,4.989190074248147e-05,8.041262702791788e-05
-0.04657969972267422,2.6646207255658482e-05,8.043176155491742e-05
-0.046737882005128496,3.316811823707803e-06,8.043925230968727e-05
-0.04687747041284593,-2.00870262807858e-05,8.0435059756073e-05
-0.046998328460070515,-4.355597599901491e-05,8.041914900550305e-05
-0.04710033378984138,-6.708064156149288e-05,8.039148985111292e-05
-0.04718337805360289,-9.065156952235396e-05,8.035205679834196e-05
-0.04724736673829786,-0.00011425925572032914,8.030082909203129e-05
-0.04729221896724746,-0.00013789415214671548,8.023779074006453e-05
-0.04731786729734455,-0.00016154667371286348,8.016293053359963e-05
-0.04732425752836747,-0.0001852072049192915,8.007624206394159e-05
-0.047311348533350034,-0.0002088661064347209,7.997772373610308e-05
-0.04727911210776231,-0.00023251372159499898,7.986737877909565e-05
-0.047227532819511024,-0.0002561403828268173,7.97452152529902e-05
-0.04715660783422924,-0.0002797364179902524,7.961124605278593e-05
-0.04706634670230461,-0.00030329215662438586,7.946548890913227e-05
-0.04695677111765302,-0.0003267979360793753,7.930796638595633e-05
-0.04682791467701558,-0.00035024410752804245,7.913870587505448e-05
-0.046679822675552714,-0.00037362104186618454,7.895773958770592e-05
-0.04651255196969246,-0.00039691913552749583,7.87651045433575e-05
-0.046326170920580015,-0.00042012881625006393,7.856084255541311e-05
-0.046120759405716284,-0.00044324054883163803,7.834500021414269e-05
-0.045896408865051606,-0.00046624484089933003,7.811762886670995e-05
-0.04565322233956507,-0.0004891322487004842,7.787878459431e-05
-0.04539131446468622,-0.0005118933829015471,7.76285281864095e-05
-0.045110811396540794,-0.0005345189143668538,7.736692511209239e-05
-0.044811850675021594,-0.0005569995798847445,7.709404548852949e-05
-0.04449458105654057,-0.000579326187817635,7.68099640466039e-05
-0.04415916236907721,-0.0006014896236740395,7.651476009373098e-05
-0.04380576544605687,-0.000623480855627823,7.620851747390551e-05
-0.04343457218384831,-0.0006452909400352992,7.589132452498972e-05
-0.043045775746577884,-0.0006669110270179058,7.556327403322642e-05
-0.04263958092259335,-0.0006883323661851985,7.522446318492565e-05
-0.04221620462749545,-0.0007095463125727208,7.487499351523616e-05
-0.04177587654410778,-0.0007305443328656215,7.451497085387658e-05
-0.041318839878959526,-0.0007513180119713883,7.414450526766733e-05
-0.04084535219696124,-0.0007718590599903685,7.376371099967689e-05
-0.04035568628283257,-0.000792159319610317,7.337270640477672e-05
-0.039850130978462406,-0.0008122107739256408,7.297161388139273e-05
