frame_number,force
0,730.0482700085149
1,730.1125712330506
2,730.1767178983417
3,730.2405563759252
4,730.3039348832827
5,730.3667043697859
6,730.4287193630056
7,730.4898387683689
8,730.5499266180717
9,730.6088527672707
10,730.6664935367544
11,730.722732301495
12,730.7774600238827
13,730.8305757295931
14,730.88198692369
15,730.9316099449251
16,730.9793702568369
17,731.025202674873
18,731.0690515295694
19,731.1108707671349
20,731.1506239905232
21,731.1882844455672
22,731.2238349571496
23,731.2572678193442
24,731.2885846415123
25,731.3177961503561
26,731.344921946252
27,731.3699902105573
28,731.3930373588954
29,731.4141076341984
30,731.4332526330959
31,731.4505307603837
32,731.4660066088106
33,731.479750265127
34,731.4918365476971
35,731.502344185033
36,731.5113549474894
37,731.5189527458413
38,731.5252227108587
39,731.5302502678863
40,731.5341202204766
41,731.5369158576015
42,731.5387180995289
43,731.5396046974104
44,731.5396495006038
45,731.5389218037894
46,731.5374857833964
47,731.5354000302273
48,731.5327171828559
49,731.5294836643695
50,731.5257395231732
51,731.5215183768239
52,731.5168474562083
53,731.5117477458108
54,731.5062342145253
55,731.5003161306807
56,731.4939974546219
57,731.4872773020435
58,731.4801504708666
59,731.472608023358
60,731.4646379134842
61,731.4562256477359
62,731.4473549664855
63,731.4380085327405
64,731.4281686161396
65,731.4178177620653
66,731.4069394380964
67,731.3955186518117
68,731.3835425348599
69,731.3710008886334
70,731.3578866874512
71,731.3441965361973
72,731.3299310807025
73,731.3150953702764
74,731.2996991724125
75,731.2837572400957
76,731.2672895325776
77,731.2503213905915
78,731.2328836660473
79,731.2150128042485
80,731.1967508745338
81,731.1781455440635
82,731.1592499895312
83,731.1401227422874
84,731.1208274631177
85,731.1014326438304
86,731.082011234322
87,731.0626401959039
88,731.0433999840191
89,731.0243739659347
90,731.0056477815806
91,730.9873086579877
92,730.9694446891887
93,730.9521440938796
94,730.9354944631036
95,730.919582009999
96,730.9044908331291
97,730.8903022038609
98,730.87709388688
99,730.864939501667
100,730.8539079318194
101,730.8440627884927
102,730.835461933847
103,730.8281570699908
104,730.8221933979711
105,730.8176093494458
106,730.814436390963
107,730.8126988978901
108,730.8124140925244
109,730.8135920391874
110,730.8162356883832
111,730.8203409623594
112,730.8258968754429
113,730.8328856840852
114,730.8412830631297
115,730.8510583058694
116,730.8621745458752
117,730.8745889986976
118,730.8882532216071
119,730.903113389345
120,730.9191105832232
121,730.9361810901247
122,730.954256707671
123,730.9732650523997
124,730.9931298689078
125,731.0137713390611
126,731.0351063914734
127,731.0570490125186
128,731.0795105607319
129,731.1024000860962
130,731.1256246547202
131,731.1490896787794
132,731.1726992520023
133,731.1963564922132
134,731.2199638936235
135,731.2434236919503
136,731.266638244881
137,731.2895104294668
138,731.3119440574297
139,731.3338443091242
140,731.3551181864398
141,731.3756749840225
142,731.3954267770087
143,731.4142889221914
144,731.43218056823
145,731.4490251694104
146,731.4647509966613
147,731.4792916389372
148,731.4925864877956
149,731.5045811981846
150,731.5152281189235
151,731.5244866866649
152,731.5323237772176
153,731.5387140085567
154,731.5436399912651
155,731.547092524366
156,731.5490707363249
157,731.5495821712857
158,731.5486428194588
159,731.5462770893531
160,731.5425177194458
161,731.5374056279493
162,731.5309897007079
163,731.5233265181713
164,731.5144800226363
165,731.5045211267233
166,731.4935272639201
167,731.4815818826137
168,731.4687738866094
169,731.4551970274586
170,731.4409492562183
171,731.4261320437605
172,731.4108496790642
173,731.3952085543023
174,731.3793164443391
175,731.3632817868303
176,731.347212968126
177,731.3312176202754
178,731.3154019353399
179,731.2998700037964
180,731.2847231831082
181,731.2700595006481
182,731.2559730928613
183,731.2425536805604
184,731.2298860790148
185,731.218049741167
186,731.2071183327669
187,731.1971593391925
188,731.1882337049158
189,731.180395507788
190,731.173691671429
191,731.1681617198223
192,731.1638375784833
193,731.1607434262351
194,731.1588956009055
195,731.1583025612684
196,731.1589649064002
197,731.1608754527729
198,731.1640193693592
199,731.1683743715149
200,731.1739109744926
201,731.1805928065179
202,731.1883769795988
203,731.1972145142004
204,731.2070508121758
205,731.2178261713838
206,731.2294763351015
207,731.2419330687877
208,731.2551247553268
209,731.2689769980655
210,731.2834132196691
211,731.2983552445036
212,731.3137238527588
213,731.3294392958823
214,731.345421765217
215,731.3615918087592
216,731.3778706936591
217,731.3941807136765
218,731.41044544146
219,731.4265899260641
220,731.4425408369974
221,731.4582265573655
222,731.4735772303079
223,731.4885247647672
224,731.5030028081936
225,731.516946694566
226,731.5302933760462
227,731.5429813459074
228,731.5549505592954
229,731.5661423572064
230,731.5764993982967
231,731.5859656030264
232,731.5944861148877
233,731.6020072836216
234,731.6084766749676
235,731.6138431101737
236,731.6180567361549
237,731.6210691245957
238,731.6228333964677
239,731.6233043677316
240,731.6224387120078
241,731.6201951362083
242,731.616534565319
243,731.6114203329173
244,731.6048183748003
245,731.596697424028
246,731.5870292061653
247,731.5757886330841
248,731.5629539925302
249,731.5485071295047
250,731.5324336150456
251,731.5147228982829
252,731.495368438469
253,731.4743678149205
254,731.4517228142815
255,731.4274394958031
256,731.4015282361459
257,731.3740037557352
258,731.3448851291027
259,731.3141957816248
260,731.2819634741751
261,731.2482202754338
262,731.2130025194277
263,731.1763507443143
264,731.1383096084068
265,731.098927780875
266,731.0582578062191
267,731.0163559424345
268,730.9732819726927
269,730.9290989897944
270,730.8838731518024
271,730.837673406161
272,730.790571178565
273,730.742640022479
274,730.6939552260485
275,730.64459337534
276,730.5946318761344
277,730.5441484401478
278,730.4932205445858
279,730.4419248755898
280,730.3903367665177
281,730.3385296418076
282,730.2865744769568
283,730.234539284918
284,730.1824886386446
285,730.1304832383371
286,730.0785795302581
287,730.026829382393
288,729.975279821279
289,729.9239728341014
290,729.8729452402142
291,729.8222286359186
292,729.7718494152961
293,729.7218288684132
294,729.6721833565938
295,729.6229245626809
296,729.5740598122095
297,729.5255924594746
298,729.4775223310871
299,729.4298462191189
300,729.382558416271
301,729.3356512860161
302,729.2891158604286
303,729.2429424569718
304,729.1971213031832
305,729.151643155803
306,729.1064998993
307,729.0616851086454
308,729.0171945626851
309,728.9730266972135
310,728.9291829902392
311,728.885668275416
312,728.8424909829411
313,728.7996633102933
314,728.7572013276674
315,728.7151250241162
316,728.673458299885
317,728.6322289086697
318,728.5914683516426
319,728.5512117238641
320,728.5114975134254
321,728.4723673542915
322,728.4338657351233
323,728.3960396679696
324,728.3589383223989
325,728.3226126322818
326,728.2871148836733
327,728.2524982924883
328,728.218816579819
329,728.1861235514085
330,728.1544726866558
331,728.1239167416988
332,728.0945073703884
333,728.0662947662097
334,728.0393273275805
335,728.0136513484487
336,727.9893107354886
337,727.9663467523507
338,727.9447977906458
339,727.9246991669455
340,727.9060829448466
341,727.8889777807611
342,727.8734087915998
343,727.8593974423015
344,727.8469614515174
345,727.8361147144756
346,727.8268672425992
347,727.8192251194444
348,727.8131904721504
349,727.8087614571343
350,727.8059322583426
351,727.804693095983
352,727.8050302432987
353,727.8069260487406
354,727.8103589612499
355,727.8153035576796
356,727.8217305732653
357,727.8296069376698
358,727.8388958199059
359,727.8495566852964
360,727.8615453667924
361,727.8748141519011
362,727.8893118856192
363,727.904984089252
364,727.9217730947734
365,727.9396181942119
366,727.958455803148
367,727.9782196368371
368,727.9988408971594
369,728.0202484689229
370,728.0423691251447
371,728.0651277425319
372,728.0884475296507
373,728.112250270241
374,728.1364565828684
375,728.160986196715
376,728.1857582425719
377,728.2106915575814
378,728.2357050012946
379,728.2607177791465
380,728.2856497681829
381,728.3104218393073
382,728.3349561704945
383,728.359176546185
384,728.3830086393301
385,728.406380274114
386,728.4292216689062
387,728.4514656603579
388,728.473047910881
389,728.493907102909
390,728.5139851238723
391,728.5332272453875
392,728.5515822989677
393,728.5690028489546
394,728.5854453617419
395,728.6008703691826
396,728.6152426237483
397,728.6285312432336
398,728.6407098427416
399,728.6517566510978
400,728.6616546085113
401,728.6703914428258
402,728.6779597224559
403,728.6843568840115
404,728.6895852317743
405,728.6936519057801
406,728.6965688160288
407,728.698352541831
408,728.6990241968081
409,728.6986092613301
410,728.697137385232
411,728.6946421645597
412,728.6911608969928
413,728.6867343216693
414,728.6814063503991
415,728.6752237982353
416,728.6682361213501
417,728.6604951687814
418,728.6520549523244
419,728.6429714365455
420,728.6333023492022
421,728.6231070114433
422,728.612446186717
423,728.6013819469298
424,728.5899775538696
425,728.5782973529265
426,728.5664066743507
427,728.5543717351536
428,728.5422595337343
429,728.5301377303581
430,728.5180745090997
431,728.506138419611
432,728.4943981993384
433,728.4829225782271
434,728.4717800683088
435,728.4610387401266
436,728.4507659871789
437,728.4410282786945
438,728.4318909001685
439,728.4234176807113
440,728.415670706982
441,728.4087100253236
442,728.4025933359247
443,728.3973756844742
444,728.3931091573467
445,728.3898425860688
446,728.3876212660456
447,728.3864866933727
448,728.386476321936
449,728.3876233413091
450,728.3899564750723
451,728.3934997993819
452,728.3982725821672
453,728.4042891434353
454,728.4115587368086
455,728.4200854520144
456,728.4298681376695
457,728.4409003432413
458,728.4531702786987
459,728.466660790541
460,728.4813493538935
461,728.4972080820767
462,728.5142037571061
463,728.5322978864266
464,728.5514467923311
465,728.5716017407314
466,728.5927091152598
467,728.6147106411877
468,728.637543661471
469,728.6611414649141
470,728.6854336645135
471,728.7103466227711
472,728.7358039199913
473,728.761726861058
474,728.7880350155664
475,728.8146467852458
476,728.8414799913038
477,728.868452472777
478,728.8954826854323
479,728.9224902895977
480,728.9493967148734
481,728.9761256902335
482,729.0026037295244
483,729.0287605642529
484,729.054529517294
485,729.0798478126238
486,729.1046568177705
487,729.1289022177006
488,729.1525341212512
489,729.1755071034199
490,729.1977801883437
491,729.219316778654
492,729.2400845376003
493,729.2600552313534
494,729.2792045399933
495,729.297511846076
496,729.3149600090029
497,729.3315351321074
498,729.3472263279328
499,729.3620254860793
500,729.375927047763
501,729.3889277918829
502,729.4010266379722
503,729.4122244710599
504,729.4225239923611
505,729.4319295984998
506,729.4404472910538
507,729.4480846178335
508,729.4548506472626
509,729.4607559766724
510,729.4658127734446
511,729.4700348450771
512,729.4734377315516
513,729.4760388115502
514,729.4778574131633
515,729.4789149197056
516,729.4792348621622
517,729.478842991511
518,729.4777673264479
519,729.476038174471
520,729.4736881263323
521,729.4707520250877
522,729.4672669115295
523,729.4632719484686
524,729.4588083276857
525,729.4539191650107
526,729.4486493900993
527,729.4430456374956
528,729.4371561443318
529,729.4310306575966
530,729.4247203507342
531,729.4182777462113
532,729.4117566385783
533,729.4052120119284
534,729.3986999461094
535,729.3922775068664
536,729.3860026160135
537,729.3799338987974
538,729.3741305065862
539,729.3686519136262
540,729.3635576870855
541,729.3589072303847
542,729.3547595009518
543,729.3511727046184
544,729.348203969473
545,729.3459090021031
546,729.3443417293228
547,729.3435539291239
548,729.3435948553831
549,729.3445108611808
550,729.3463450255347
551,729.3491367884944
552,729.3529215999201
553,729.3577305873479
554,729.3635902478009
555,729.3705221674193
556,729.3785427717943
557,729.3876631094475
558,729.3978886712258
559,729.4092192489832
560,729.4216488369119
561,729.4351655780497
562,729.4497517575858
563,729.4653838441877
564,729.4820325802609
565,729.4996631212086
566,729.5182352225232
567,729.5377034725364
568,729.5580175681753
569,729.5791226308809
570,729.6009595596024
571,729.6234654174797
572,729.6465738486621
573,729.6702155217255
574,729.6943185959926
575,729.718809206533
576,729.7436119629721
577,729.7686504570513
578,729.7938477743837
579,729.8191270065684
580,729.8444117600641
581,729.8696266579412
582,729.8946978303594
583,729.9195533894053
584,729.9441238832651
585,729.9683427236116
586,729.9921465793904
587,730.0154757305268
588,730.0382743762987
589,730.0604908948251
590,730.0820780520559
591,730.1029931604478
592,730.1231981887915
593,730.1426598254981
594,730.1613494986352
595,730.1792433573853
596,730.196322220794
597,730.2125714999306
598,730.2279810988314
599,730.2425452985243
600,730.2562626276915
601,730.2691357231307
602,730.281171182666
603,730.2923794119646
604,730.3027744648529
605,730.3123738748423
606,730.3211984744387
607,730.3292721985756
608,730.3366218688777
609,730.3432769560987
610,730.3492693189014
611,730.3546329180305
612,730.3594035055886
613,730.363618289622
614,730.3673155749204
615,730.3705343819618
616,730.3733140470175
617,730.3756938074791
618,730.3777123777209
619,730.3794075224375
620,730.3808156359925
621,730.3819713371443
622,730.3829070880201
623,730.3836528445108
624,730.3842357432527
625,730.3846798289175
626,730.3850058247767
627,730.3852309490326
628,730.3853687788164
629,730.3854291627217
630,730.3854181810215
631,730.3853381506242
632,730.3851876702497
633,730.3849617010204
634,730.384651678439
635,730.3842456527643
636,730.3837284557566
637,730.3830818927229
638,730.3822849594535
639,730.3813140834103
640,730.3801433874944
641,730.3787449737275
642,730.3770892239294
643,730.3751451148564
644,730.372880545697
645,730.3702626759023
646,730.3672582711396
647,730.3638340550617
648,730.3599570650717
649,730.3555950114429
650,730.3507166402663
651,730.3452921004113
652,730.3392933126555
653,730.332694336572
654,730.3254717289243
655,730.3176048863706
656,730.3090763647473
657,730.299872167191
658,730.2899819942259
659,730.2793994504738
660,730.2681222040984
661,730.2561520960538
662,730.2434951970843
663,730.230161811711
664,730.2161664299698
665,730.2015276287916
666,730.186267925485
667,730.1704135860857
668,730.1539943915913
669,730.1370433653533
670,730.1195964653816
671,730.1016922461763
672,730.0833714959168
673,730.0646768562626
674,730.045652433161
675,730.0263434071001
676,730.006795650063
677,729.9870553549778
678,729.9671686825701
679,729.9471814300572
680,729.9271387255714
681,729.9070847515493
682,729.8870624997566
683,729.8671135601826
684,729.8472779456855
685,729.827593954041
686,729.8080980689144
687,729.7888249008033
688,729.7698071678685
689,729.7510757151103
690,729.732659569144
691,729.7145860248723
692,729.6968807591904
693,729.6795679654248
694,729.6626705011322
695,729.646210041757
696,729.6302072336047
697,729.6146818413307
698,729.5996528870418
699,729.585138779516
700,729.5711574326191
701,729.5577263717535
702,729.544862826411
703,729.5325838061183
704,729.5209061568421
705,729.5098465954468
706,729.4994217207134
707,729.4896480002163
708,729.4805417327412
709,729.472118985884
710,729.4643955082256
711,729.4573866156336
712,729.4511070524061
713,729.445570829939
714,729.4407910474832
715,729.4367797007563
716,729.4335474847148
717,729.4311035969249
718,729.4294555478292
719,729.428608983764
720,729.4285675278826
721,729.4293326430817
722,729.4309035194506
723,729.4332769869271
724,729.4364474524057
725,729.4404068598698
726,729.4451446720465
727,729.4506478724045
728,729.4569009869269
729,729.4638861258006
730,729.4715830456306
731,729.4799692327009
732,729.4890200072624
733,729.4987086483524
734,729.5090065385447
735,729.5198833279806
736,729.5313071165942
737,729.5432446527271
738,729.5556615459468
739,729.5685224921921
740,729.58179151007
741,729.5954321876055
742,729.6094079386885
743,729.6236822679851
744,729.6382190424807
745,729.6529827671814
746,729.6679388615763
747,729.6830539320326
748,729.6982960336345
749,729.7136349138007
750,729.7290422299308
751,729.7444917343539
752,729.7599594213798
753,729.7754236327168
754,729.7908651188665
755,729.8062670556973
756,729.8216150172906
757,729.8368969078188
758,729.8521028561912
759,729.8672250776838
760,729.8822577070489
761,729.8971966075203
762,729.9120391595588
763,729.9267840324804
764,729.9414309417139
765,729.9559803944479
766,729.9704334264837
767,729.984791332807
768,729.9990553938782
769,730.0132265994945
770,730.0273053724322
771,730.0412912943373
772,730.0551828362933
773,730.0689770965456
774,730.0826695482639
775,730.0962538007818
776,730.109721378366
777,730.1230615214166
778,730.136261016051
779,730.149304058522
780,730.1621721599655
781,730.1748440944568
782,730.1872958903466
783,730.1995008624338
784,730.2114296810394
785,730.2230504732165
786,730.2343289511485
787,730.24522856342
788,730.255710666093
789,730.2657347117289
790,730.275258454979
791,730.2842381729961
792,730.2926288983305
793,730.3003846620165
794,730.3074587454643
795,730.3138039409872
796,730.3193728216311
797,730.3241180213963
798,730.3279925273516
799,730.3309499855656
800,730.3329450227623
801,730.3339335848652
802,730.3338732925044
803,730.3327238126761
804,730.3304472450066
805,730.3270085198694
806,730.3223758035792
807,730.3165209034881
808,730.309419664086
809,730.3010523449213
810,730.2914039721808
811,730.280464657251
812,730.268229876949
813,730.2547007113549
814,730.2398840365782
815,730.2237926714553
816,730.2064454787879
817,730.1878674228025
818,730.1680895848716
819,730.1471491395758
820,730.1250892929639
821,730.1019591841275
822,730.0778137499454
823,730.0527135517418
824,730.0267245622413
825,729.9999179113929
826,729.9723695897485
827,729.9441601080608
828,729.9153741122295
829,729.8860999542716
830,729.8564292225077
831,729.8264562369131
832,729.7962775177831
833,729.7659912370893
834,729.7356966621994
835,729.705493601172
836,729.6754818576009
837,729.6457607010911
838,729.616428357711
839,729.5875815241554
840,729.559314910014
841,729.5317208134276
842,729.5048887352305
843,729.4789050349339
844,729.4538526292291
845,729.4298107309329
846,729.4068546239986
847,729.3850554687244
848,729.3644801308533
849,729.3451910288991
850,729.3272459954798
851,729.3106981499025
852,729.2955957796877
853,729.2819822280151
854,729.2698957833082
855,729.2593695673704
856,729.2504314196852
857,729.243103777236
858,729.2374035511425
859,729.2333420033953
860,729.2309246287131
861,729.2301510474881
862,729.2310149153851
863,729.2335038536442
864,729.2375994024371
865,729.2432769986791
866,729.2505059796989
867,729.2592496146602
868,729.2694651660057
869,729.2811039831587
870,729.2941116301929
871,729.3084280481255
872,729.3239877509994
873,729.3407200534418
874,729.3585493266788
875,729.3773952806612
876,729.3971732718518
877,729.4177946382918
878,729.4391670645663
879,729.4611949788168
880,729.4837799824492
881,729.5068213112617
882,729.5302163246961
883,729.553861018132
884,729.577650552242
885,729.601479793823
886,729.6252438636316
887,729.6488386871421
888,729.6721615432606
889,729.6951116049863
890,729.7175904663974
891,729.7395026522713
892,729.7607561087951
893,729.7812626748479
894,729.8009385330568
895,729.8197046387597
896,729.8374871235867
897,729.8542176690639
898,729.8698338452484
899,729.8842794102557
900,729.8975045678524
901,729.9094661809992
902,729.9201279391629
903,729.9294604770133
904,729.9374414422468
905,729.9440555104172
906,729.9492943443166
907,729.9531564949334
908,729.9556472413611
909,729.9567783687502
910,729.9565678858887
911,729.955039686051
912,729.9522231555422
913,729.9481527341875
914,729.942867432012
915,729.936410307453
916,729.9288279145377
917,729.9201697286704
