acceleration,velocity,displacement
-0.014860186256359804,0.0,0.0
-0.013855855736556365,-7.179010498229043e-06,-1.7947526245572607e-09
-0.012851358897159205,-1.3855814156657936e-05,-7.053458788279006e-09
-0.011846536242376502,-2.0030287941541863e-05,-1.5524984312828958e-08
-0.010841241754727726,-2.570223244081792e-05,-2.6958114408418904e-08
-0.009835349229334123,-3.087138018683339e-05,-4.1101517565331734e-08
-0.008828758166801785,-3.553740703586736e-05,-5.770371437100692e-08
-0.007821399138334626,-3.9699946362151466e-05,-7.651305272051163e-08
-0.006813238572074184,-4.335860578975367e-05,-9.727769075848791e-08
-0.005804282939823872,-4.6512986167728185e-05,-1.197455887478584e-07
-0.00479458234384964,-4.9162702488646566e-05,-1.4366451091195207e-07
-0.0037842335146137654,-5.130740645326242e-05,-1.6878203814742933e-07
-0.0027733822355335107,-5.2946810390799237e-05,-1.9484559235844475e-07
-0.0017622252124376387,-5.408071225279202e-05,-2.2160247301934258e-07
-0.0007510114061228127,-5.4709021407432136e-05,-2.487999064343986e-07
0.00025995714978206805,-5.483178497151732e-05,-2.7618510802913595e-07
0.0012703250122930215,-5.444921443099855e-05,-3.0350535787976494e-07
0.0022796834202613967,-5.356171232285995e-05,-3.305080895682296e-07
0.00328757073582405,-5.216989878383859e-05,-3.569409923449042e-07
0.004293473143312504,-5.027463781405445e-05,-3.825521264943775e-07
0.005296825512544777,-4.7877063150090127e-05,-4.0709005173541365e-07
0.006297012343602626,-4.497860368605328e-05,-4.303039684444495e-07
0.0072933687264478035,-4.1581008418540666e-05,-4.51943871470598e-07
0.008285181271866547,-3.768637091896208e-05,-4.7176071630497367e-07
0.009271688998254674,-3.3297153351431776e-05,-4.895065973725721e-07
0.010252084185077762,-2.8416210055598668e-05,-5.049349382243297e-07
0.011225513224507062,-2.3046810703202462e-05,-5.1780069341403e-07
0.012191077517736739,-1.7192663017641512e-05,-5.278605618442411e-07
0.013147834470444134,-1.0857935020596293e-05,-5.348732113538006e-07
0.014094798640838149,-4.047276742775722e-06,-5.385995142946435e-07
0.015030943087064926,3.234158689200047e-06,-5.388027938080375e-07
0.015955200954697314,1.0980694699640607e-05,-5.352490804608272e-07
0.016866467343684244,1.9186111774235994e-05,-5.277073788423581e-07
0.01776360149731256,2.7843628984485194e-05,-5.159499436526778e-07
0.01864542936033544,3.6945886698897195e-05,-4.997525647318322e-07
0.019510746554898612,4.648493067770571e-05,-4.788948603876814e-07
0.02035832182075797,5.6452197771619855e-05,-4.531605782753501e-07
0.02118690096318133,6.683850346760468e-05,-4.2233790296554394e-07
0.021995211348980095,7.763403154564504e-05,-3.862197692122315e-07
0.02278196698551543,8.882832612926892e-05,-3.4460417979350303e-07
0.023545874208369545,0.00010041028642774016,-2.972945266542508e-07
0.02428563799373445,0.00011236816447826616,-2.440999139277492e-07
0.02499996890318842,0.00012468956620249687,-1.8483548125755842e-07
0.025687590655043294,0.0001373614560920548,-1.1932272568392052e-07
0.026347248290584057,0.00015037016582846162,-4.7389820203791414e-08
0.026977716868395132,0.00016370140711820643,3.11280730328756e-08
0.027577810589098705,0.0001773402889825799,1.1638849705807218e-07
0.028146392234084407,0.00019127133968837567,2.085414042258111e-07
0.02868238279075784,0.00020547853344458623,3.077288725090516e-07
0.0291847711270928,0.0002199453219240489,4.140848363512104e-07
0.02965262357085503,0.00023465467059853584,5.277348344818566e-07
0.03008509324742452,0.0002495890998031057,6.48795777082267e-07
0.03048142903258533,0.00026473073037310815,7.773757346263204e-07
0.030840983976509948,0.00028006133362538195,9.135737506259429e-07
0.031163223050267277,0.00029556238538207627,1.0574796803778074e-06
0.03144773006114694,0.00031121512365992984,1.209174057638309e-06
0.03169421358091235,0.00032700060957044466,1.3687279909459027e-06
0.03190251173060712,0.0003428997908983245,1.536203091063095e-06
0.03207259567098168,0.00035889356774872173,1.7116514307248565e-06
0.03220457166928259,0.0003749628595837878,1.895115537557984e-06
0.03229868165141949,0.0003910886729139633,2.0866284206824217e-06
0.03235530218938635,0.0004072521688741648,2.2862136311294536e-06
0.032374941906702,0.0004234347298981869,2.4938853558225413e-06
0.032358237315793556,0.0004396180247038108,2.7096485444730406e-06
0.0323059471435178,0.00045578407081863864,2.9334990683536527e-06
0.032218945253468495,0.0004719152939178852,3.1654239095377838e-06
0.03209821231977106,0.0004879945833111951,3.405401378845054e-06
0.031944826433746173,0.0005040053429995744,3.6534013604227464e-06
0.031759952837643275,0.0005199315378174217,3.909385580626996e-06
0.031544832987845724,0.000535757734273794,4.1733078986498e-06
0.031300773148431514,0.0005514691358078633,4.445114616170214e-06
0.031029132696244955,0.0005670516122690324,4.724744803189438e-06
0.030731312290469725,0.0005824917235157111,5.0121306371356234e-06
0.03040874204264339,0.0005977767370989893,5.307197752289298e-06
0.03006286982122942,0.0006128946400649575,5.609865596580285e-06
0.029695149824884807,0.0006278341449764861,5.920047792840646e-06
0.029307031550083545,0.0006425846903202281,6.237652501664824e-06
0.028899949264682104,0.0006571364355239196,6.562582783125861e-06
0.028475312084938947,0.0006714802508613248,6.894736954722172e-06
0.028034494738917975,0.000685607702567289,7.234008943079325e-06
0.027578829080902804,0.0006995110335222442,7.580288627101709e-06
0.02710959639973377,0.0007131831398924034,7.933462170455371e-06
0.02662802054373259,0.0007266175441282699,8.29341234146054e-06
0.026135261870045792,0.0007398083647317146,8.660018818675537e-06
0.025632412017748085,0.000752750283203663,9.033158480659382e-06
0.025120489502015314,0.0007654385085836038,9.412705678606198e-06
0.024600436131395127,0.0007778687399919564,9.798532490750089e-06
0.02407311425817624,0.0007900371275893493,1.0190508957645415e-05
0.023539304874970413,0.000801940232372636,1.058850329763591e-05
0.0229997065645595,0.0008135749852325185,1.09923821020372e-05
0.022454935300762344,0.0008249386456988489,1.1402010509770041e-05
0.021905525092954122,0.000836028760797278,1.1817252361394073e-05
0.021351929461564088,0.0008468431244359076,1.223797033270237e-05
0.020794523714875255,0.0008573797377300174,1.2664026048243851e-05
0.020233607966305116,0.0008676367706503125,1.3095280175338934e-05
0.019669410797509772,0.0008776125253412662,1.3531592499336828e-05
0.0191020934502576,0.000887305401403208,1.3972821981022946e-05
0.018531754424617602,0.0008967138633719268,1.441882679721673e-05
0.01795843436868976,0.0009058364105702537,1.4869464365702276e-05
0.017382121157808024,0.0009146715494518781,1.5324591355707808e-05
0.016802755071734524,0.0009232177685092638,1.5784063685198093e-05
0.016220233985476097,0.0009314735157735664,1.62477365062688e-05
0.0156344184963962,0.0009394371788940345,1.67154641799357e-05
0.01504513692291647,0.0009471070677488626,1.7187100241596426e-05
0.014452190131321162,0.000954481399512422,1.7662497358411747e-05
0.013855356174629154,0.0009615582860889096,1.814150727981208e-05
0.013254394753900835,0.000968335723821042,1.862398078228957e-05
0.012649051529890112,0.0009748115853919898,1.910976760959283e-05
0.012039062318191875,0.0009809836138540103,1.959871640940433e-05
0.01142415719696399,0.0009868494187327992,2.0090674667551033e-05
0.01080406455275016,0.0009924064741702278,2.0585488640776788e-05
0.010178515096402281,0.000997652119082516,2.1083003289089973e-05
0.009547245896186336,0.001002583559330663,2.1583062208693268e-05
0.008910004484742847,0.0010071978719258952,2.208550756650741e-05
0.008266553086135412,0.0010114920113186148,2.2590180037318535e-05
0.0076166729804087565,0.0010154628178352509,2.3096918744607e-05
0.006960168993747085,0.0010191070283287898,2.3605561206148012e-05
0.006296874087717262,0.001022421289099156,2.4115943285505e-05
0.005626654017230813,0.001025402171125393,2.4627899150561135e-05
0.004949412021428655,0.001028046187635058,2.514126124025125e-05
0.004265093502716526,0.0010303498140160944,2.5655860240664036e-05
0.0035736906417723727,0.0010323095100522165,2.6171525071681112e-05
0.002875246890424025,0.0010339217444352655,2.6688082885302984e-05
0.0021698612766286873,0.0010351830214770288,2.7205359076781057e-05
0.001457692447487496,0.0010360899099080578,2.7723177309627327e-05
0.0007389623713733129,0.001036639073612773,2.8241359555507536e-05
1.3959621754205736e-05,0.0010368273041110548,2.8759726149938492e-05
-0.0007169578273650121,0.001036651554559652,2.927809586460617e-05
-0.0014533603570387262,0.0010361089750135512,2.979628599699947e-05
-0.002194745072922774,0.0010351969486560608,3.0314112477916874e-05
-0.002940534859766462,0.0010339131286728886,3.083138999724911e-05
-0.003690078194657559,0.0010322554754092826,3.1347932148269654e-05
-0.004442649773006163,0.0010302222934173667,3.1863551590476314e-05
-0.005197451956484715,0.001027812267984994,3.2378060230826905e-05
-0.005953617000724249,0.0010250245007456917,3.289126942300958e-05
-0.006710209982251809,0.0010218585439999476,3.3402990184195986e-05
-0.007466232324155222,0.0010183144334233458,3.391303342855181e-05
-0.008220625810988914,0.0010143927188895597,3.4421210216630034e-05
-0.008972276982202248,0.001010094493191262,3.492733201965024e-05
-0.009720021803218935,0.0010054214184949065,3.543121099757178e-05
-0.010462650535651282,0.001000375750410189,3.593266028979805e-05
-0.011198912754362729,0.0009949603595876856,3.643149431729752e-05
-0.011927522479349254,0.0009891787507792576,3.692752909488926e-05
-0.01264716340243754,0.000983035079308811,3.7420582552411276e-05
-0.013356494195145063,0.0009765341649094154,3.791047486346583e-05
-0.014054153886414213,0.0009696815028890256,3.839702878041544e-05
-0.014738767297013927,0.0009624832725931685,3.888006997428599e-05
-0.015408950511281074,0.0009549463431410948,3.935942737821955e-05
-0.016063316359908503,0.0009470782764232974,3.983493353311065e-05
-0.016700479888445148,0.000938887327361209,4.030642493405678e-05
-0.017319063801404376,0.0009303824414387467,4.0773742376256766e-05
-0.017917703896561287,0.0009215732495142553,4.1236731298995016e-05
-0.0184950545242184,0.0009124700599090603,4.169524212635084e-05
-0.01904979411117025,0.0009030838477502132,4.214913060326566e-05
-0.01958063077932041,0.0008934262415275905,4.259825812558511e-05
-0.020086308072975435,0.0008835095068145166,4.304249206267064e-05
-0.02056561079454183,0.0008733465270976372,4.348170607114868e-05
-0.021017370937882283,0.0008629507816645312,4.391578039833922e-05
-0.021440473700177914,0.0008523363205050162,4.434460217388161e-05
-0.021833863545017686,0.0008415177361937173,4.476806568805629e-05
-0.022196550279637232,0.0008305101327375535,4.5186072655289104e-05
-0.022527615095473356,0.0008193290913937758,4.5598532461321934e-05
-0.022826216501373123,0.0008079906334945642,4.600536239254402e-05
-0.023091596053584847,0.0007965111803558246,4.6406487846006616e-05
-0.02332308376033795,0.0007849075104023439,4.680184251869616e-05
-0.023520103019596925,0.0007731967137073602,4.719136857472359e-05
-0.023682174946190668,0.0007613961442159133,4.7575016789204403e-05
-0.023808921966728337,0.0007495233699876836,4.7952746667755305e-05
-0.023900070606590267,0.0007375961218443539,4.832452654071331e-05
-0.023955453447051273,0.0007256322408309435,4.869033363138214e-05
-0.023975010268701556,0.0007136496249020054,4.905015409781538e-05
-0.023958788407329946,0.0007016661752329975,4.940398304784913e-05
-0.023906942338359414,0.0006896997425465751,4.975182452729403e-05
-0.02381973249486457,0.0006777680738382691,5.009369148139024e-05
-0.02369752332705691,0.0006658887598827888,5.0429605689820504e-05
-0.023540780632267343,0.0006540791838929577,5.075959767576444e-05
-0.023350068216123662,0.00064235647168086,5.10837065896579e-05
-0.023126043973904165,0.0006307374436333531,5.140198006848645e-05
-0.022869455498041962,0.0006192385687653665,5.1714474071586125e-05
-0.022581135328267526,0.0006078759210587892,5.2021252694042166e-05
-0.022261995967124894,0.0005966651382349411,5.23223879588656e-05
-0.021913024774968554,0.0005856213830494177,5.261795958918669e-05
-0.02153527882826066,0.0005747593071486105,5.29080547617362e-05
-0.021129879790853894,0.0005640930174938318,5.319276784289681e-05
-0.020698008834584836,0.0005536360453374721,5.347220010860464e-05
-0.02024090165445306,0.0005434013177152126,5.374645944936781e-05
-0.019759843632909196,0.0005334011313933721,5.401566006164495e-05
-0.019256165200187136,0.000523647129185098,5.427992212678957e-05
-0.018731237417199332,0.0005141502785307513,5.4539371478718535e-05
-0.018186467788687606,0.0005049208522292796,5.479413926140854e-05
-0.017623296303615848,0.0004959684112062038,5.504436157726741e-05
-0.01704319169303281,0.0004873017892070416,5.529017912737072e-05
-0.016447647885141085,0.00047892907931249815,5.5531736844500604e-05
-0.015838180619592468,0.00047085762218631477,5.576918351987531e-05
-0.015216324161386695,0.00046309399599107,5.6002671424419654e-05
-0.014583628036665035,0.00045564400794155703,5.623235592540281e-05
-0.013941653703616764,0.00044851268750648656,5.645839509926482e-05
-0.013291971074805465,0.00044170428131188103,5.6680949341469415e-05
-0.012636154821913968,0.0004352222498377012,5.690018097425681e-05
-0.011975780414468482,0.0004290692660286056,5.711625385322338e-05
-0.011312419863485097,0.0004232472159591172,5.732933297372031e-05
-0.010647637156491672,0.000417757201704123,5.753958407813612e-05
-0.009982983382603991,0.0004125995465693491,5.774717326520449e-05
-0.009319991558702858,0.0004077738028340224,5.7952266602555337e-05
-0.00866017118633198,0.0004032787621477637,5.815502974380078e-05
-0.008005002597247209,0.0003991124687018689,5.835562755151319e-05
-0.007355931179014589,0.0003952722352578034,5.8554223727503106e-05
-0.006714361598806369,0.00039175466206334817,5.8750980451833394e-05
-0.006081652150736878,0.00038855565862596237,5.894605803200572e-05
-0.0054591093350471786,0.00038567046825451634,5.913961456372584e-05
-0.004847982744801959,0.00038309369523455405,5.933180560459811e-05
-0.0042494603023738526,0.0003808193344727601,5.952278386202494e-05
-0.003664663864801759,0.0003788408034309662,5.9712698896500874e-05
-0.0030946452072746636,0.0003771509761629471,5.990169684139935e-05
-0.0025403823946650046,0.00037574221926246217,6.00899201402557e-05
-0.0020027765571485616,0.00037460642952450877,6.0277507302452446e-05
-0.001482649093989386,0.0003737350731117243,6.0464592678111506e-05
-0.0009807393399202207,0.00037311922600324687,6.065130625289025e-05
-0.000497702741878448,0.0003727496154827972,6.083777346326176e-05
-3.410960488720292e-05,0.0003726166623961058,6.1024115032731486e-05
0.0004095555344675657,0.00037271052387850086,6.121044682930014e-05
0.000832893865802959,0.0003730211362285685,6.139687974432691e-05
0.0012355915838030977,0.00037353825759097,6.15835195927818e-05
0.0016174185121639053,0.00037425151011496175,6.177046703470828e-05
0.001978226123900688,0.0003751504212739779,6.195781751755551e-05
0.00231794502654053,0.00037622446406158824,6.21456612388894e-05
0.002636581989206336,0.000377463095815525,6.233408312885869e-05
0.002934216588161257,0.00037885579545986686,6.252316285167753e-05
0.0032109975377302724,0.0003803920989913397,6.271297482529033e-05
0.003467138759191808,0.00038206163306557023,6.290358825830457e-05
0.003702915229382367,0.0003838541465627138,6.309506720321164e-05
0.003918658650052085,0.0003857595400325724,6.328747062486046e-05
0.004114752988021034,0.0003877678929420907,6.348085248310412e-05
0.004291629946618413,0.0003898694886757505,6.367526182850858e-05
0.004449764432290636,0.0003920548372704778,6.387074290999514e-05
0.004589670072501668,0.0003943146958966759,6.406733529328693e-05
0.004711894821366872,0.00039664008712014305,6.426507398904114e-05
0.004817016662952976,0.000399022314991223,6.446398958956898e-05
0.004905639398993255,0.0004014529790067096,6.466410841306846e-05
0.004978388497437406,0.00040392398598081727,6.486545265431534e-05
0.005035906986461422,0.000406427559851792,6.506804054077349e-05
0.005078851403597992,0.00040895624944930684,6.527188649309877e-05
0.00510788784122898,0.0004115029342605136,6.547700128902623e-05
0.0051236881555005095,0.00041406082825969597,6.568339222965628e-05
0.005126926420394223,0.00041662348190366966,6.589106330719713e-05
0.005118275711850806,0.00041918478243673093,6.610001537328223e-05
0.005098405296669694,0.0004217389526888611,6.631024630706363e-05
0.005067978279867958,0.0004242805485829955,6.652175118238159e-05
0.005027649739349826,0.00042680445558779994,6.67345224334243e-05
0.004978065351901652,0.0004293058843606128,6.69485500184114e-05
0.00491986048958436,0.0004317803658209843,6.71638215809568e-05
0.004853659741614402,0.000434223745878784,6.738032260888174e-05
0.004780076797474169,0.00043663218001355615,6.759803659035482e-05
0.004699714613933549,0.0004390021278664081,6.781694516732481e-05
0.004613165783241099,0.00044133034796570175,6.803702828628283e-05
0.004521013023860792,0.00044361389266747725,6.825826434644112e-05
0.004423829727458755,0.00044585010335530714,6.848063034544681e-05
0.004322180508581956,0.00044803660591431733,6.870410202276422e-05
0.0042166217086886245,0.000450171306468635,6.892865400085995e-05
0.004107701803219339,0.00045225238734661197,6.915425992431376e-05
0.003995961654639044,0.00045427830321107654,6.938089259695318e-05
0.0038819345545804797,0.00045624777726338144,6.960852411707179e-05
0.003766146013419652,0.00045815979740538145,6.983712601073898e-05
0.003649113285220083,0.0004600136122300414,7.006666936314784e-05
0.00353134464717864,0.0004618087267131411,7.029712494788363e-05
0.0034133384711299754,0.00046354489749271825,7.05284633539351e-05
0.0032955821223032665,0.0004652221276410766,7.076065511021855e-05
0.003178550696578181,0.0004668406608457969,7.099367080734026e-05
0.003062705572086223,0.000468400974912963,7.122748121627995e-05
0.002948492722901724,0.00046990377448671,7.146205740362987e-05
0.002836340734273593,0.0004713499828510038,7.169737084296429e-05
0.002726658468617258,0.0004727407326517265,7.193339352183997e-05
0.0026198323515978965,0.0004740773553567803,7.21700980438421e-05
0.0025162232756232848,0.0004753613692635856,7.240745772499719e-05
0.0024161631569359497,0.00047659446587172536,7.264544668378102e-05
0.0023199512304682844,0.00047777849446857643,7.28840399238661e-05
0.002227850207008454,0.0004789154448279456,7.312321340869023e-05
0.0021400824290896472,0.0004800074279869701,7.336294412689395e-05
0.002056826140234997,0.0004810566551293013,7.360321014767302e-05
0.0019782119428485476,0.00048206541465007214,7.384399066511787e-05
0.0019043194868357915,0.0004830360475074932,7.408526603065725e-05
0.0018351744225918664,0.00048397092098485014,7.432701777278034e-05
0.0017707456724049184,0.00048487240100859933,7.45692286032787e-05
0.0017109431102499948,0.00048574282320426306,7.481188240933192e-05
0.001655615768394706,0.0004865844629239242,7.505496423086397e-05
0.0016045506934152726,0.0004873995045393767,7.52984602227298e-05
0.0015574725511938036,0.000488190010350529,7.554235760145228e-05
0.0015140440403966355,0.0004889578894984266,7.578664457641451e-05
0.0014738671330291465,0.000489704867291783,7.603131026561206e-05
0.001436485131884577,0.0004904324553580115,7.627634459627452e-05
0.0014013855211642751,0.0004911419230212736,7.652173819086933e-05
0.001368003583151487,0.0004918342702973526,7.676748223919899e-05
0.001335726753072961,0.0004925102028814087,7.701356835749368e-05
0.001303899682362506,0.0004931701094902676,7.72599884355866e-05
0.0012718299779069,0.000493814041905335,7.75067344734355e-05
0.0012387945816337998,0.0004944416980452201,7.775379840842313e-05
0.0012040467468932069,0.0004950524083773518,7.800117193502877e-05
0.0011668235482205345,0.0004956451259511302,7.82488463186109e-05
0.0011263538271077923,0.0004962184202949623,7.849681220517242e-05
0.0010818664355255183,0.0004967704753606207,7.874505942908632e-05
0.001032598602751826,0.00049729909162019,7.899357682083152e-05
0.0009778042285026318,0.0004978016923280037,7.924235201681857e-05
0.0009167619000143405,0.000498275333860133,7.94913712733656e-05
