frame_number,force
0,867.2832100051809
1,867.1938045980406
2,867.1048564290443
3,867.0168198821626
4,866.9301436732152
5,866.8452681130638
6,866.7626224799849
7,866.6826225279619
8,866.6056681529244
9,866.5321412349213
10,866.4624036705571
11,866.3967956066134
12,866.3356338827426
13,866.2792106885821
14,866.227792438454
15,866.1816188647878
16,866.1409023291831
17,866.1058273472876
18,866.0765503204167
19,866.0531994637327
20,866.0358749185957
21,866.0246490355977
22,866.0195668142962
23,866.0206464852758
24,866.0278802198209
25,866.0412349525385
26,866.0606533031627
27,866.0860545856018
28,866.1173358944073
29,866.154373260219
30,866.1970228660772
31,866.2451223162233
32,866.298491948543
33,866.3569361814262
34,866.420244886106
35,866.4881947768592
36,866.560550813271
37,866.6370676099415
38,866.7174908487199
39,866.8015586869295
40,866.8890031529538
41,866.9795515188638
42,867.0729276390053
43,867.1688532436818
44,867.2670491778339
45,867.3672365754963
46,867.4691379621372
47,867.5724782794143
48,867.6769858302276
49,867.7823931451536
50,867.8884377737635
51,867.9948630059017
52,868.1014185285129
53,868.2078610229413
54,868.3139547064781
55,868.4194718213146
56,868.5241930741562
57,868.6279080299996
58,868.7304154636257
59,868.831523672522
60,868.9310507554317
61,869.0288248609827
62,869.1246844102743
63,869.2184782958755
64,869.310066057815
65,869.3993180351022
66,869.4861154896369
67,869.5703506987508
68,869.6519270133208
69,869.7307588798071
70,869.8067718257017
71,869.8799024082663
72,869.9500981262416
73,870.017317293802
74,870.0815288759021
75,870.142712284713
76,870.2008571378883
77,870.2559629803046
78,870.3080389712983
79,870.3571035395872
80,870.4031840086013
81,870.4463161960708
82,870.4865439930456
83,870.5239189284522
84,870.558499725572
85,870.5903518565965
86,870.619547100942
87,870.6461631124166
88,870.6702829997105
89,870.6919949242694
90,870.7113917193158
91,870.7285705331336
92,870.7436324985732
93,870.7566824294879
94,870.7678285439966
95,870.7771822139829
96,870.7848577396578
97,870.790972147206
98,870.795645006784
99,870.7989982677796
100,870.801156108262
101,870.8022447957292
102,870.8023925563494
103,870.8017294496464
104,870.8003872449519
105,870.7984992950608
106,870.7962004014526
107,870.7936266644874
108,870.7909153116296
109,870.7882044972334
110,870.7856330685071
111,870.7833402936711
112,870.781465549798
113,870.7801479691719
114,870.7795260443111
115,870.7797371933619
116,870.7809172894387
117,870.7832001590892
118,870.7867170557964
119,870.7915961142769
120,870.7979617911841
121,870.8059342984104
122,870.8156290362177
123,870.8271560338237
124,870.8406194042286
125,870.8561168184373
126,870.8737390026597
127,870.893569261139
128,870.9156830272308
129,870.9401474460478
130,870.9670209927466
131,870.9963531308725
132,871.0281840150371
133,871.0625442417702
134,871.0994546517227
135,871.1389261854696
136,871.1809597942414
137,871.2255464063697
138,871.2726669500709
139,871.3222924328512
140,871.3743840768208
141,871.4288935076971
142,871.4857629937416
143,871.5449257293902
144,871.6063061568132
145,871.6698203173455
146,871.7353762243778
147,871.8028742499561
148,871.8722075182756
149,871.9432622999129
150,872.0159184014263
151,872.0900495464097
152,872.1655237459514
153,872.242203657922
154,872.3199469353314
155,872.3986065645717
156,872.4780311950936
157,872.5580654629963
158,872.6385503120973
159,872.7193233170971
160,872.8002190140465
161,872.8810692431796
162,872.9617035084498
163,873.0419493573312
164,873.1216327837623
165,873.2005786562831
166,873.2786111721888
167,873.3555543369645
168,873.4312324668236
169,873.5054707113676
170,873.5780955934667
171,873.6489355641044
172,873.717821570449
173,873.7845876352426
174,873.8490714443308
175,873.9111149369893
176,873.9705648915124
177,874.0272734973641
178,874.0810989054459
179,874.1319057492005
180,874.1795656306168
181,874.2239575663999
182,874.2649683910521
183,874.3024931158674
184,874.336435245769
185,874.366707058563
186,874.3932298524339
187,874.4159341669292
188,874.4347599807412
189,874.4496568873656
190,874.4605842479428
191,874.467511319466
192,874.4704173559757
193,874.4692916802098
194,874.4641337231965
195,874.4549530292915
196,874.4417692243005
197,874.4246119448277
198,874.4035207277977
199,874.3785448597865
200,874.3497431860818
201,874.3171838794859
202,874.2809441691396
203,874.2411100300914
204,874.197775834567
205,874.151043965707
206,874.1010243942197
207,874.0478342183014
208,873.9915971671076
209,873.9324430677788
210,873.8705072757796
211,873.8059300685918
212,873.7388560035945
213,873.6694332418949
214,873.597812840819
215,873.5241480189414
216,873.4485933990285
217,873.3713042357915
218,873.292435636384
219,873.212141781605
220,873.1305751545999
221,873.0478857818373
222,872.9642204892152
223,872.8797221750851
224,872.794529101798
225,872.7087742075861
226,872.6225844407963
227,872.5360801184933
228,872.4493743114087
229,872.3625722577109
230,872.2757708095526
231,872.1890579185331
232,872.1025121680553
233,872.01620236131
234,871.9301871733298
235,871.8445148748117
236,871.7592231346187
237,871.6743389070181
238,871.5898784085325
239,871.505847187729
240,871.4222402893693
241,871.3390425121279
242,871.2562287568097
243,871.173764460342
244,871.0916061103653
245,871.0097018355904
246,870.9279920670651
247,870.8464102644821
248,870.7648837003045
249,870.6833342938332
250,870.6016794877766
251,870.519833161231
252,870.437706574731
253,870.3552093445112
254,870.272250443779
255,870.1887392285868
256,870.1045864848712
257,870.0197054912695
258,869.9340130896659
259,869.8474307529635
260,869.759885638342
261,869.6713116144767
262,869.5816502523936
263,869.4908517712081
264,869.3988759316779
265,869.3056928719735
266,869.2112838807991
267,869.1156421026656
268,869.0187731691266
269,868.9206957490264
270,868.8214420111293
271,868.7210579942063
272,868.6196038821126
273,868.5171541834936
274,868.4137978168352
275,868.3096381015799
276,868.2047926551544
277,868.0993931944988
278,867.993585239912
279,867.8875277193401
280,867.7813924725015
281,867.6753636558631
282,867.5696370510532
283,867.4644192807226
284,867.3599269371759
285,867.256385630275
286,867.1540289622194
287,867.0530974379205
288,866.9538373208587
289,866.856499445437
290,866.7613379975071
291,866.6686092745651
292,866.578570436255
293,866.491478254806
294,866.407587874104
295,866.3271515853601
296,866.2504176272018
297,866.1776290188978
298,866.109022437136
299,866.0448271484711
300,865.9852640102588
301,865.9305445520743
302,865.8808701474305
303,865.8364312827069
304,865.7974069273243
305,865.7639640067274
306,865.7362569776766
307,865.714427503307
308,865.6986042229787
309,865.6889026093015
310,865.6854249028219
311,865.6882601142245
312,865.697484083906
313,865.7131595884559
314,865.7353364827161
315,865.7640518653994
316,865.7993302564583
317,865.8411837757955
318,865.8896123152072
319,865.9446036980269
320,866.0061338232724
321,866.0741667932199
322,866.1486550252894
323,866.2295393508094
324,866.316749104417
325,866.4102022083789
326,866.5098052558288
327,866.6154535960661
328,866.7270314246152
329,866.8444118815737
330,866.9674571637087
331,867.0960186577046
332,867.2299371028404
333,867.3690427907629
334,867.5131558081598
335,867.6620863256132
336,867.8156349334402
337,867.9735930233657
338,868.135743213589
339,868.3018598141421
340,868.4717093296206
341,868.6450509975499
342,868.8216373624058
343,869.0012148864046
344,869.1835245976756
345,869.3683027745185
346,869.5552816619607
347,869.7441902142497
348,869.9347548544182
349,870.1267002403167
350,870.3197500263636
351,870.5136276117586
352,870.7080568681758
353,870.9027628423418
354,871.097472431412
355,871.2919150316874
356,871.4858231633433
357,871.6789330747878
358,871.8709853299976
359,872.0617253812792
360,872.2509041288616
361,872.4382784677381
362,872.623611821367
363,872.8066746612581
364,872.9872450108278
365,873.1651089307591
366,873.3400609815799
367,873.511904658276
368,873.6804527923833
369,873.8455279189784
370,874.0069626081151
371,874.1645997613925
372,874.3182928741711
373,874.4679062631411
374,874.6133152583445
375,874.7544063586572
376,874.8910773499497
377,875.0232373852324
378,875.1508070257893
379,875.2737182416387
380,875.3919143690871
381,875.5053500233148
382,875.6139909650043
383,875.7178139214147
384,875.8168063631902
385,875.9109662381945
386,876.0003016628191
387,876.0848305697964
388,876.164580310246
389,876.2395872072933
390,876.3098960594998
391,876.3755595941142
392,876.4366378722676
393,876.4931976504213
394,876.5453117046204
395,876.5930581263996
396,876.6365196014368
397,876.6757826841213
398,876.7109370829739
399,876.7420749732271
400,876.769290353388
401,876.7926784614506
402,876.812335263324
403,876.828357021968
404,876.8408399519279
405,876.849879960767
406,876.8555724759841
407,876.8580123534671
408,876.8572938618611
409,876.8535107364166
410,876.846756295252
411,876.8371236101245
412,876.8247057230751
413,876.8095959001606
414,876.7918879137954
415,876.7716763454235
416,876.7490569000072
417,876.7241267233119
418,876.6969847123821
419,876.6677318089328
420,876.6364712646587
421,876.6033088672754
422,876.568353117305
423,876.5317153481923
424,876.4935097851625
425,876.4538535405791
426,876.4128665456731
427,876.3706714206978
428,876.3273932876735
429,876.2831595317685
430,876.2380995189766
431,876.1923442789895
432,876.1460261627756
433,876.0992784841715
434,876.0522351538489
435,876.005030312715
436,875.9577979705824
437,875.9106716549427
438,875.8637840737223
439,875.8172667948613
440,875.7712499445736
441,875.7258619252865
442,875.6812291531976
443,875.6374758137118
444,875.5947236308066
445,875.5530916442899
446,875.5126959876316
447,875.4736496589485
448,875.4360622788836
449,875.4000398313337
450,875.3656843857916
451,875.3330938028473
452,875.3023614263794
453,875.2735757663047
454,875.2468201742493
455,875.2221725121677
456,875.1997048124166
457,875.1794829280775
458,875.161566174137
459,875.1460069624442
460,875.1328504351935
461,875.1221341024597
462,875.1138874891408
463,875.1081317962032
464,875.1048795810556
465,875.1041344624344
466,875.1058908560528
467,875.1101337478918
468,875.1168385118937
469,875.1259707780176
470,875.1374863559003
471,875.1513312194429
472,875.167441558244
473,875.1857439018609
474,875.206155321744
475,875.2285837134602
476,875.2529281590251
477,875.2790793665514
478,875.3069201828094
479,875.3363261739245
480,875.3671662699321
481,875.3993034696678
482,875.4325956029535
483,875.4668961468229
484,875.5020550913595
485,875.5379198489003
486,875.5743361986301
487,875.6111492577121
488,875.6482044702911
489,875.6853486066711
490,875.7224307660626
491,875.7593033767503
492,875.7958231870322
493,875.8318522395009
494,875.8672588210412
495,875.901918381414
496,875.9357144137853
497,875.9685392903534
498,876.0002950452575
499,876.0308940958113
500,876.0602598926775
501,876.0883274903421
502,876.1150440310043
503,876.1403691371296
504,876.1642752096387
505,876.1867476296028
506,876.2077848615387
507,876.2273984566957
508,876.2456129558093
509,876.262465692857
510,876.2780065039497
511,876.2922973477002
512,876.3054118444425
513,876.3174347414505
514,876.328461310352
515,876.3385966817615
516,876.3479551212597
517,876.3566592507747
518,876.3648392206084
519,876.3726318395472
520,876.3801796725772
521,876.387630116553
522,876.3951344634846
523,876.4028469597275
524,876.4109238684512
525,876.4195225427909
526,876.4288005176458
527,876.4389146284286
528,876.4500201648865
529,876.4622700674386
530,876.475814172539
531,876.4907985125083
532,876.5073646741419
533,876.5256492191553
534,876.5457831681391
535,876.5678915481059
536,876.592093002105
537,876.6184994582072
538,876.647215854743
539,876.6783399186961
540,876.7119619939122
541,876.7481649149902
542,876.7870239219869
543,876.8286066111631
544,876.8729729180667
545,876.92017513077
546,876.9702579326794
547,877.0232584758058
548,877.0792064863032
549,877.1381244041106
550,877.2000275579587
551,877.2649243764541
552,877.3328166356129
553,877.4036997426806
554,877.4775630550475
555,877.5543902316753
556,877.6341596130636
557,877.7168446245239
558,877.8024141964071
559,877.8908331943076
560,877.9820628526218
561,878.0760612061829
562,878.172783516315
563,878.2721826887224
564,878.3742096808645
565,878.4788138961461
566,878.5859435619199
567,878.6955460884574
568,878.807568406947
569,878.9219572858406
570,879.0386596256809
571,879.1576227324555
572,879.2787945688311
573,879.4021239818545
574,879.5275609052029
575,879.6550565339811
576,879.7845634701935
577,879.9160358370631
578,880.0494293602978
579,880.1847014141119
580,880.321811028882
581,880.4607188557251
582,880.6013870818427
583,880.7437792901767
584,880.8878602582299
585,881.0335956935803
586,881.1809519068187
587,881.329895425447
588,881.4803925542831
589,881.6324088893629
590,881.7859087933938
591,881.940854841385
592,882.0972072450495
593,882.2549232640529
594,882.4139566113491
595,882.5742568586954
596,882.7357688472864
597,882.8984321081115
598,883.0621802974846
599,883.2269406545834
600,883.3926334887378
601,883.5591717042005
602,883.7264603694421
603,883.8943963369162
604,884.0628679178095
605,884.2317546148331
606,884.4009269153582
607,884.5702461476279
608,884.7395644038997
609,884.9087245353015
610,885.0775602236597
611,885.2458961358642
612,885.4135481665817
613,885.5803237750433
614,885.7460224209254
615,885.9104361029666
616,886.0733500021677
617,886.2345432295128
618,886.3937896760822
619,886.5508589610215
620,886.7055174702119
621,886.8575294761225
622,887.0066583276957
623,887.1526676982268
624,887.2953228787437
625,887.4343921040796
626,887.5696478986787
627,887.7008684293642
628,887.827838852904
629,887.9503526472333
630,888.0682129164607
631,888.1812336610863
632,888.2892410060665
633,888.392074380332
634,888.489587641733
635,888.581650140979
636,888.6681477174335
637,888.7489836194796
638,888.8240793429508
639,888.8933753824268
640,888.9568318915129
641,889.0144292494026
642,889.0661685320669
643,889.1120718871117
644,889.1521828119857
645,889.1865663363293
646,889.2153091104705
647,889.2385194020886
648,889.2563270013424
649,889.2688830322161
650,889.2763596659954
651,889.2789497324578
652,889.2768662252655
653,889.2703416991986
654,889.2596275576188
655,889.2449932291978
656,889.2267252339375
657,889.2051261398934
658,889.180513413474
659,889.1532181676904
660,889.1235838144843
661,889.0919646292848
662,889.0587242377618
663,889.0242340357564
664,888.9888715535136
665,888.9530187751627
666,888.917060424475
667,888.8813822284621
668,888.8463691712512
669,888.8124037517168
670,888.7798642592925
671,888.7491230828998
672,888.7205450677313
673,888.6944859335422
674,888.6712907661893
675,888.651292591666
676,888.634811039103
677,888.6221510964587
678,888.613601960406
679,888.6094359805651
680,888.6099076973502
681,888.6152529715284
682,888.6256882017582
683,888.6414096243316
684,888.6625926875901
685,888.6893914921376
686,888.72193828711
687,888.7603430127888
688,888.8046928809914
689,888.8550519866598
690,888.9114609463802
691,888.973936561847
692,889.042471508519
693,889.1170340521503
694,889.1975677987072
695,889.283991486339
696,889.3761988309437
697,889.474058438559
698,889.5774137978954
699,889.686083364974
700,889.7998607495457
701,889.9185150103608
702,890.0417910639675
703,890.1694102095604
704,890.3010707701404
705,890.436448847639
706,890.5751991870056
707,890.7169561422612
708,890.8613347366604
709,891.007931809021
710,891.156327238174
711,891.306085237221
712,891.4567557092757
713,891.6078756567202
714,891.7589706362178
715,891.9095562516264
716,892.0591396771807
717,892.2072212043031
718,892.3532958067547
719,892.4968547200217
720,892.637387032024
721,892.7743812837184
722,892.907327079595
723,893.0357167087694
724,893.1590467771649
725,893.2768198502524
726,893.3885461041068
727,893.4937449803484
728,893.5919468380963
729,893.6826945933814
730,893.7655453336325
731,893.8400718924605
732,893.9058643687853
733,893.9625315744452
734,894.0097023951058
735,894.047027049943
736,894.0741782361904
737,894.0908521454951
738,894.0967693402353
739,894.0916754797146
740,894.0753418887547
741,894.0475659644757
742,894.0081714202189
743,893.9570083679843
744,893.8939532423024
745,893.8189085693119
746,893.731802585129
747,893.6325887076958
748,893.5212448666572
749,893.3977726967122
750,893.2621966012462
751,893.1145626947581
752,892.9549376345738
753,892.7834073542972
754,892.6000757130302
755,892.4050630753628
756,892.198504837448
757,891.9805499142745
758,891.7513592029053
759,891.5111040363581
760,891.2599646431203
761,890.998128627925
762,890.7257894901907
763,890.4431451970975
764,890.1503968280269
765,889.8477473054261
766,889.5354002240847
767,889.2135587873
768,888.8824248555247
769,888.5421981110024
770,888.1930753398974
771,887.8352498309006
772,887.4689108863575
773,887.0942434393577
774,886.7114277688877
775,886.3206393054545
776,885.9220485208782
777,885.5158208973146
778,885.1021169716735
779,884.6810924526452
780,884.2528984084272
781,883.8176815235544
782,883.3755844228245
783,882.9267460594102
784,882.4713021631025
785,882.0093857432834
786,881.5411276398078
787,881.0666571138374
788,880.5861024700289
789,880.0995917010603
790,879.6072531449672
791,879.1092161452575
792,878.6056117034193
793,878.0965731131193
794,877.5822365651073
795,877.0627417120198
796,876.5382321832029
797,876.0088560410672
798,875.474766171942
799,874.9361206056448
800,874.3930827588736
801,873.8458215980048
802,873.2945117172276
803,872.7393333284092
804,872.1804721597521
805,871.6181192611374
806,871.0524707153153
807,870.4837272562492
808,869.9120937989153
809,869.3377788877059
810,868.7609940720624
811,868.1819532177884
812,867.60087176153
813,867.0179659153594
814,866.4334518289013
815,865.8475447177739
816,865.2604579685967
817,864.6724022319893
818,864.0835845157243
819,863.4942072906035
820,862.9044676217827
821,862.3145563381119
822,861.7246572512249
823,861.1349464344627
824,860.5455915697295
825,859.9567513687639
826,859.3685750743136
827,858.7812020461898
828,858.1947614368664
829,857.6093719609665
830,857.0251417624344
831,856.4421683822198
832,855.8605388277222
833,855.2803297432998
834,854.7016076795719
835,854.1244294583561
836,853.5488426296795
837,852.9748860170315
838,852.4025903467696
839,851.8319789571513
840,851.2630685815924
841,850.6958701993898
842,850.1303899453372
843,849.5666300675389
844,849.0045899206386
845,848.4442669801645
846,847.8856578632216
847,847.3287593415847
848,846.7735693351137
849,846.2200878756609
850,845.6683180334663
851,845.1182667990788
852,844.5699459142174
853,844.0233726451347
854,843.4785704924628
855,842.9355698325572
856,842.3944084868212
857,841.8551322169127
858,841.3177951448121
859,840.7824600975518
860,840.2491988766733
861,839.7180924515711
862,839.189231073933
863,838.662714308749
864,838.1386509771604
865,837.6171590079789
866,837.0983651971237
867,836.582404876186
868,836.0694214921798
869,835.559566100833
870,835.0529967762445
871,834.5498779403678
872,834.0503796164026
873,833.5546766111958
874,833.0629476336624
875,832.5753743588828
876,832.0921404501626
877,831.6134305532734
878,831.1394292781488
879,830.6703201835367
880,830.2062847795146
881,829.7475015614937
882,829.2941450878985
883,828.8463851126376
884,828.4043857829606
885,827.9683049129644
886,827.5382933421387
887,827.1144943865573
888,826.6970433879853
889,826.2860673639321
890,825.8816847595634
891,825.4840053001235
892,825.0931299403405
893,824.7091509058567
894,824.332151821376
895,823.9622079205526
896,823.5993863330112
897,823.2437464437891
898,822.8953403198248
899,822.5542131970934
900,822.2204040209625
901,821.8939460315319
902,821.5748673851726
903,821.2631918032648
904,820.9589392391808
905,820.6621265545663
906,820.3727681957402
907,820.090876860629
908,819.8164641461657
909,819.5495411658417
910,819.2901191275348
911,819.0382098629306
912,818.7938263014736
913,818.556982883615
914,818.3276959099821
915,818.1059838244229
916,817.8918674291388
917,817.6853700294209
