frame_number,force
0,596.4635000000333
1,596.2245176615095
2,595.9927915972391
3,595.7751955616185
4,595.5778776868993
5,595.4059845744005
6,595.2634641653975
7,595.152944525317
8,595.0756731438541
9,595.0314928785144
10,595.0188345356929
11,595.0347239069961
12,595.0748235553917
13,595.1335500135199
14,595.2043209077668
15,595.2799782611391
16,595.3533885796804
17,595.4181503613946
18,595.4692850778546
19,595.5037817014629
20,595.520905504065
21,595.5222351815536
22,595.5114302030139
23,595.4937581450724
24,595.4754450280831
25,595.4629430774961
26,595.4622213490272
27,595.4781686384739
28,595.5141625806712
29,595.5718215467301
30,595.6509330173659
31,595.7495423233212
32,595.8641787252805
33,595.9901906819498
34,596.1221622645046
35,596.2543831553219
36,596.3813368522668
37,596.4981574560013
38,596.6009998638214
39,596.687283983423
40,596.7558047204203
41,596.8067248781016
42,596.8414719371307
43,596.8625484216838
44,596.8732601866673
45,596.8773758213121
46,596.878741305627
47,596.8808771856434
48,596.8865861358156
49,596.8976032984668
50,596.9143278183382
51,596.9356775459859
52,596.9591078296125
53,596.98082274626
54,596.9961756612416
55,597.0002127549758
56,596.9882776369026
57,596.9565821762549
58,596.9026621632506
59,596.8256716010832
60,596.7265111744755
61,596.6078141053142
62,596.4738155808651
63,596.3301179737923
64,596.1833503204898
65,596.0407196023392
66,595.9094653723924
67,595.7962512330836
68,595.7065461639357
69,595.6440596394599
70,595.6102986375167
71,595.6043155245966
72,595.6227106746124
73,595.659933740979
74,595.7088836401052
75,595.7617397618931
76,595.8108884863789
77,595.8497793293213
78,595.8735749870843
79,595.8795281843982
80,595.8670838397865
81,595.8377412532685
82,595.7947193270375
83,595.7424674886187
84,595.6860732135093
85,595.630633498865
86,595.5806675714991
87,595.5396401204981
88,595.5096407785109
89,595.4912350853607
90,595.4834716688974
91,595.484010359529
92,595.4893376365522
93,595.495051398857
94,595.4962026619314
95,595.487671139958
96,595.4645441573275
97,595.4224751355413
98,595.3580053359091
99,595.2688279436986
100,595.1539654486949
101,595.0138343596168
102,594.8501897048725
103,594.6659712144194
104,594.4650989942085
105,594.2522623525051
106,594.0327021525759
107,593.8119407434064
108,593.5954126743238
109,593.3879990685567
110,593.193531051554
111,593.0143670702887
112,592.8511524468947
113,592.7028392434456
114,592.5669921661467
115,592.4403510480051
116,592.3195773046617
117,592.2020780634014
118,592.0867664484731
119,591.9745902503836
120,591.8686816746923
121,591.7740710712403
122,591.6970348405863
123,591.6442416164175
124,591.6218760292181
125,591.6348725156241
126,591.6863319993893
127,591.7771543571345
128,591.9059027526117
129,592.0689099985628
130,592.2606256938567
131,592.4741760926916
132,592.7020708825561
133,592.9369554672487
134,593.1722885977046
135,593.402838277909
136,593.6249370529719
137,593.8364978282412
138,594.0368328150031
139,594.2263359715455
140,594.4060961744663
141,594.5775083164324
142,594.741939865152
143,594.9004927423832
144,595.0538766878141
145,595.2023846393572
146,595.3459445886994
147,595.4842219286938
148,595.616751044787
149,595.7430728204735
150,595.8628491237738
151,595.9759267982398
152,596.0823339479227
153,596.1822041899538
154,596.2756377757315
155,596.3625260024437
156,596.4423859932906
157,596.5142620459701
158,596.5767319991041
159,596.628020460255
160,596.6661938479286
161,596.6894093427884
162,596.6961957490486
163,596.6857405995113
164,596.6581443957347
165,596.6145881499933
166,596.5573528026323
167,596.4896413821432
168,596.4151993003903
169,596.337798511377
170,596.2607139248602
171,596.1863340507431
172,596.1159968070685
173,596.0500530474816
174,595.9880868952953
175,595.9292009705609
176,595.8723013361321
177,595.8163537768963
178,595.7605968098175
179,595.7046879487712
180,595.648753503826
181,595.5933265206495
182,595.5391849109476
183,595.4871212858271
184,595.4376770184751
185,595.3908676855667
186,595.3459354036295
187,595.3011860678935
188,595.2539810081875
189,595.2009288711145
190,595.1382667725183
191,595.0623587101837
192,594.970208794459
193,594.8598988060367
194,594.7308921825643
195,594.5841725699
196,594.4222014597138
197,594.248698634515
198,594.0682753345167
199,593.8859745701415
200,593.7067836320439
201,593.5351754686058
202,593.3747195351457
203,593.2277983749542
204,593.095473473935
205,592.977539845742
206,592.8727806479376
207,592.779393492199
208,592.6955234701726
209,592.619807582672
210,592.5518174510761
211,592.4922943406268
212,592.4431073279337
213,592.4069267690217
214,592.3866817499647
215,592.3849386789161
216,592.403357653875
217,592.4423313576171
218,592.5008211703396
219,592.5763376437151
220,592.664998794064
221,592.7616338416274
222,592.8599571832938
223,592.95287573957
224,593.0329765466315
225,593.0931837840482
226,593.1275210414726
227,593.1318816084582
228,593.1046828152894
229,593.047267870194
230,592.9639495090181
231,592.8616648759852
232,592.7492935105025
233,592.6367449888227
234,592.5339413403109
235,592.4498122182677
236,592.3914025557856
237,592.3631739861912
238,592.3665665197062
239,592.3998718359179
240,592.4584445756695
241,592.5352390120701
242,592.6216143719805
243,592.7083152587354
244,592.7865111838395
245,592.8487755801751
246,592.889897222296
247,592.9074319267784
248,592.901913891511
249,592.876674767339
250,592.8372877925253
251,592.7907461961787
252,592.744545580633
253,592.7058334735001
254,592.6807305156304
255,592.6738609198378
256,592.6880894866636
257,592.7244526394381
258,592.7822722143624
259,592.85943395211
260,592.9527948878346
261,593.0586653396832
262,593.1733018238807
263,593.2933498210427
264,593.4161899246825
265,593.5401636868511
266,593.6646731362475
267,593.7901506252894
268,593.9178951127053
269,594.0497860555364
270,594.1879133747286
271,594.3341799655034
272,594.4899310359245
273,594.6556511052686
274,594.8307562592834
275,595.0134964443799
276,595.2009674555521
277,595.3892202299901
278,595.5734517596846
279,595.7482639994844
280,595.907981830902
281,596.0470335670498
282,596.1604129746344
283,596.2442337325749
284,596.2963377791095
285,596.3168548893937
286,596.3085793358633
287,596.2770450988862
288,596.2302258133569
289,596.1778467376762
290,596.1303703744074
291,596.0977922292085
292,596.0884374715475
293,596.1079649467699
294,596.1587506726588
295,596.2397415729674
296,596.3467675792681
297,596.4732107647791
298,596.6108742374226
299,596.7508790299098
300,596.8844480867953
301,597.0035047581905
302,597.1010939657823
303,597.1716927404698
304,597.2114838061264
305,597.2186202283611
306,597.1934454499897
307,597.1385922370513
308,597.0588800926549
309,596.9609537295883
310,596.8526469241215
311,596.7421154817996
312,596.636849459121
313,596.5427225612378
314,596.4632440014633
315,596.3991442305692
316,596.3483669291112
317,596.3064729682812
318,596.2673951453919
319,596.2244159549895
320,596.1711860582334
321,596.1025891226625
322,596.0153121837936
323,595.9080795681979
324,595.7815991923142
325,595.6383139200799
326,595.48204894373
327,595.3176209993094
328,595.150446813154
329,594.9861708576483
330,594.8303293599083
331,594.6880653664243
332,594.563896954443
333,594.4615261973019
334,594.3836752065378
335,594.3319469197111
336,594.306722572037
337,594.3071180270168
338,594.3310185383175
339,594.3751918326777
340,594.4354611682886
341,594.5069280545189
342,594.5842584562799
343,594.6620475120723
344,594.7352429387483
345,594.7995667963572
346,594.8518605546424
347,594.8902921466182
348,594.9143947968454
349,594.9249463242107
350,594.9237316392574
351,594.9132439585537
352,594.8963672386932
353,594.8760618037633
354,594.8550714954163
355,594.8356834261298
356,594.8195758985574
357,594.8077711477971
358,594.8006770695366
359,594.7981757013556
360,594.7997129616562
361,594.8043705344517
362,594.8109401749657
363,594.8180402907421
364,594.8242977775968
365,594.8285804321231
366,594.8302355819246
367,594.829285453268
368,594.8265449472592
369,594.8236457261021
370,594.8229607924637
371,594.8274297075849
372,594.8402917127185
373,594.8647446907208
374,594.9035685440475
375,594.9587779951847
376,595.0313752244965
377,595.1212415815777
378,595.2271623647453
379,595.3469484524265
380,595.4776088782977
381,595.6155339545062
382,595.7566638506217
383,595.8966340301979
384,596.0309038395316
385,596.154891629184
386,596.2641518486372
387,596.3546218638047
388,596.4229404008751
389,596.466811847377
390,596.4853687437572
391,596.4794659748462
392,596.4518301138589
393,596.4069989767456
394,596.3510201240973
395,596.2909183628715
396,596.2339761476826
397,596.1868912106047
398,596.1548907007424
399,596.1409061030705
400,596.1449476385385
401,596.1638301631906
402,596.1913591140518
403,596.2189853043292
404,596.236823526837
405,596.2348505342517
406,596.2040765229893
407,596.1375131257442
408,596.030816864116
409,595.8825573382796
410,595.6941414708967
411,595.4694970727387
412,595.2146434882695
413,594.9372429947426
414,594.646164202026
415,594.3510415064372
416,594.061805417153
417,593.7881770727317
418,593.5391433213898
419,593.322447548302
420,593.1441475761036
421,593.0082978767285
422,592.916795738231
423,592.8693897664767
424,592.863806346829
425,592.895936976335
426,592.9600549012223
427,593.0490648854167
428,593.154803726575
429,593.2684002890629
430,593.3806887916325
431,593.4826553613204
432,593.5658873444256
433,593.6229956149715
434,593.6479948960473
435,593.6366412741046
436,593.5867228624861
437,593.4982809505171
438,593.3737237800522
439,593.2177988152814
440,593.0374078849391
441,592.8412665248115
442,592.6394176190253
443,592.4426177210634
444,592.2616277919506
445,592.1064528702394
446,591.9855830322758
447,591.9052984424254
448,591.8691183234533
449,591.8774808029676
450,591.9277159534984
451,592.0143190181699
452,592.1294722818808
453,592.2637316388021
454,592.4067926331935
455,592.5482620002628
456,592.6783694117597
457,592.7885654067703
458,592.8719756099002
459,592.9237123309563
460,592.9410625710104
461,592.9235634028647
462,592.8729502062597
463,592.7929456045816
464,592.6888711582684
465,592.5671106519115
466,592.4345037735476
467,592.2977686068593
468,592.1630345923052
469,592.0355314791448
470,591.9194406341408
471,591.817883549055
472,591.7330076609123
473,591.6661332570633
474,591.6179374338591
475,591.5886591513939
476,591.5783076997407
477,591.5868473617313
478,591.614319705704
479,591.660862045514
480,591.7265986143865
481,591.8114209467144
482,591.9147143333151
483,592.0350982886391
484,592.1702267560605
485,592.3166699613981
486,592.46990189238
487,592.6244303808472
488,592.774097765761
489,592.9125460328562
490,593.0338038821741
491,593.1329262278508
492,593.2065948095802
493,593.2535728900435
494,593.2749103597179
495,593.2738299180887
496,593.2552887845401
497,593.2252839484236
498,593.1900227012273
499,593.1550978700832
500,593.1247972322977
501,593.1016509817882
502,593.08627698184
503,593.0775169222514
504,593.0727830229042
505,593.0684914596436
506,593.0604772992729
507,593.0443532437287
508,593.0158348475484
509,592.9710693999983
510,592.9069871728576
511,592.8216686832751
512,592.7146939589198
513,592.5874101054677
514,592.443039357265
515,592.2865660383897
516,592.1243816858331
517,591.9637179851419
518,591.8119432169482
519,591.6758240886417
520,591.5608509870069
521,591.4707002033638
522,591.4068827062378
523,591.3686138637914
524,591.3529234418535
525,591.3550039166619
526,591.368772968405
527,591.3876076511241
528,591.4051855416739
529,591.4163321481292
530,591.4177349359888
531,591.4083757686576
532,591.3895782847435
533,591.3646518095787
534,591.3382052227695
535,591.3152765239288
536,591.3004613361747
537,591.2972148924422
538,591.3074478007547
539,591.3314567455726
540,591.3681554850698
541,591.4155181357113
542,591.4711239592176
543,591.5327006543292
544,591.59859104621
545,591.6681009479662
546,591.7417159357308
547,591.8211967552966
548,591.9095658811584
549,592.0109778391426
550,592.1304423317251
551,592.2733685735027
552,592.4449301450643
553,592.6492982448061
554,592.8888356624434
555,593.1633712113047
556,593.4696864463549
557,593.8013440670021
558,594.1489547756028
559,594.5009050229457
560,594.8444736356262
561,595.1671876956664
562,595.4582240807297
563,595.7096513374034
564,595.9173257944781
565,596.0813069549715
566,596.2057349895188
567,596.2982002056383
568,596.3687092308555
569,596.4284044576916
570,596.4882198551916
571,596.5576555847003
572,596.6438254040444
573,596.7508767826766
574,596.8798122213194
575,597.0286706299015
576,597.1929792114568
577,597.3663645619836
578,597.541214235935
579,597.7093068715393
580,597.8623733486965
581,597.9925913930513
582,598.0930307726744
583,598.1580560134571
584,598.183674037076
585,598.1677972559385
586,598.110384419113
587,598.0134319805336
588,597.8808225943548
589,597.7180746581314
590,597.5320489654944
591,597.3306515419285
592,597.1225405167933
593,596.9168072318787
594,596.7225692037097
595,596.5484167628629
596,596.4017142165955
597,596.2878393685808
598,596.2095032201697
599,596.1663045660872
600,596.1546446278614
601,596.1680577744191
602,596.197918899709
603,596.2344004648977
604,596.2675094361629
605,596.2880501301704
606,596.2884159203062
607,596.2631737878637
608,596.2094386087595
609,596.127035620188
610,596.018445834941
611,595.8885440541088
612,595.7441651776959
613,595.593546909577
614,595.4456904746492
615,595.309674758213
616,595.1939656095427
617,595.1057722851623
618,595.0505054607098
619,595.0313820338001
620,595.0492023941736
621,595.1023040563733
622,595.1866807588557
623,595.296249948746
624,595.4232552352712
625,595.5588040751941
626,595.6935461594027
627,595.8184685585619
628,595.9257264156
629,596.0093872390562
630,596.0659765135426
631,596.0947594310327
632,596.0977399189113
633,596.0793854166016
634,596.0461066723267
635,596.0055511058068
636,595.9657964753226
637,595.9345357222327
638,595.9183202058609
639,595.9219013089389
640,595.9477062567065
641,595.9955055913945
642,596.0623520942446
643,596.1428579744315
644,596.2298132573839
645,596.3150626021521
646,596.3904994810331
647,596.449021757294
648,596.4853018045858
649,596.4962508204576
650,596.4811166790978
651,596.4412451538606
652,596.3796197775944
653,596.3003349194466
654,596.2081339559917
655,596.1080800282554
656,596.0053605736813
657,595.9051839797112
658,595.8127084280192
659,595.7329454767566
660,595.6706019018166
661,595.6298506860626
662,595.614042165088
663,595.6253835001039
664,595.6646370863483
665,595.7309025041159
666,595.8215348295184
667,595.9322265430905
668,596.057264749743
669,596.1899663087618
670,596.3232674947714
671,596.4503982371245
672,596.5655295773528
673,596.6642768245722
674,596.7439772695451
675,596.8037209504275
676,596.8441707332313
677,596.8672487478029
678,596.8757811122008
679,596.8731779854091
680,596.8631865255448
681,596.8497034544973
682,596.8365941801545
683,596.8274622551356
684,596.8253493312857
685,596.832393143183
686,596.8494988613721
687,596.876083440527
688,596.9099467511605
689,596.9473142816374
690,596.9830820226853
691,597.0112711277535
692,597.0256628036759
693,597.0205351510756
694,596.9913857015946
695,596.9355200375619
696,596.8524155717391
697,596.7438108533729
698,596.6135162059006
699,596.4669927390167
700,596.3107931637558
701,596.1519730035487
702,595.9975505760665
703,595.8540418254822
704,595.7270626901055
705,595.620990264297
706,595.5386860561972
707,595.4812985913309
708,595.4481802913598
709,595.4369604307949
710,595.4437897485114
711,595.4637260121715
712,595.4912059779035
713,595.520561852654
714,595.5465564528139
715,595.5649001811113
716,595.5726854546903
717,595.5686597044008
718,595.5532712303503
719,595.5284623811782
720,595.4972431010931
721,595.4631360165403
722,595.4296168558556
723,595.3996648568243
724,595.375491775506
725,595.358459327785
726,595.3491509353095
727,595.3475463235893
728,595.3532474225264
729,595.3657074020092
730,595.3844219749332
731,595.4090588859646
732,595.4395181192817
733,595.4759162639995
734,595.51848051645
735,595.5673480105019
736,595.6223069533861
737,595.6825653242909
738,595.746650347023
739,595.8125020480128
740,595.877742947732
741,595.9400350396985
742,595.997417719997
743,596.0485548786313
744,596.0928705526238
745,596.1305835050372
746,596.1626505832683
747,596.1906195589166
748,596.2164028207259
749,596.2420092375281
750,596.2692841717331
751,596.2996963843923
752,596.3341927964558
753,596.3731341357789
754,596.4163213982187
755,596.4631109987447
756,596.5125943058578
757,596.5637977677426
758,596.6158564263349
759,596.6681303529778
760,596.7202622356648
761,596.7721973379095
762,596.8241899227387
763,596.8768052090974
764,596.9309060862253
765,596.9875972104844
766,597.0480921004951
767,597.1134857475884
768,597.1844588722516
769,597.260981120946
770,597.3420861951139
771,597.4257663121783
772,597.5090081645822
773,597.5879837014454
774,597.6584008657366
775,597.7159911813782
776,597.7570671208082
777,597.7790442987717
778,597.7808071072346
779,597.7628135567484
780,597.7268997699887
781,597.6758425867856
782,597.6128162342909
783,597.5408936235295
784,597.4627031878034
785,597.3802895455223
786,597.2951623182622
787,597.2084707463094
788,597.1212289068171
789,597.0345353783288
790,596.9497615103144
791,596.8687006527069
792,596.793664480488
793,596.7274913480883
794,596.6734233401486
795,596.6348337273583
796,596.6148348241478
797,596.6158387576115
798,596.6391621151245
799,596.6847579834343
800,596.7511273322245
801,596.8354148855233
802,596.933653134463
803,597.0410968393029
804,597.1525897727512
805,597.2629230726221
806,597.3671704654671
807,597.4609959253759
808,597.5409131945935
809,597.6044551840193
810,597.6502108015769
811,597.6777121270712
812,597.6871959051302
813,597.6793050044188
814,597.6548202037652
815,597.6145072394908
816,597.5591273288096
817,597.4896034162622
818,597.4072800782075
819,597.3141838641445
820,597.2131960878994
821,597.1080873712485
822,597.0034070984422
823,596.9042436691551
824,596.8158722477349
825,596.74330917464
826,596.6908094109805
827,596.6613625502998
828,596.6562505175459
829,596.6747300866977
830,596.7138994035546
831,596.7687921937577
832,596.8327163623275
833,596.8978273092742
834,596.9559021573256
835,596.9992462458413
836,597.0216150002548
837,597.0189950222
838,596.9900882938496
839,596.9363946024812
840,596.8618753210434
841,596.7722777137556
842,596.6742732715686
843,596.5745924718686
844,596.4793132842495
845,596.3933955375003
846,596.3204731957895
847,596.2628474474127
848,596.2215923049321
849,596.1967023893113
850,596.1872548442623
851,596.1915865390464
852,596.2074905308799
853,596.2324218748029
854,596.2636890854876
855,596.2986080189513
856,596.3346088878711
857,596.3692996763882
858,596.4004907470543
859,596.4261826636522
860,596.4445266715718
861,596.4537878072946
862,596.4523563514435
863,596.4388444881912
864,596.4122739464082
865,596.3723269069371
866,596.3196103446085
867,596.2558710124387
868,596.1840907218547
869,596.1083982274353
870,596.033764908605
871,595.9655007480761
872,595.9086176456965
873,595.8671629732712
874,595.8436365930611
875,595.8385876540292
876,595.8504564129252
877,595.8756960071432
878,595.9091756993187
879,595.9448216190317
880,595.976407253999
881,595.9983823792035
882,596.0066198102654
883,595.9989584152657
884,595.9754463644692
885,595.9382502395835
886,595.8912673419256
887,595.8395267527702
888,595.7884831315971
889,595.7433101002827
890,595.7082949138378
891,595.686419323115
892,595.6791827854568
893,595.6866869405227
894,595.707951482966
895,595.7413707711513
896,595.7851695056914
897,595.8377113635111
898,595.8975745066106
899,595.963409607385
900,596.0336875540222
901,596.1064762469941
902,596.1793445285406
903,596.2494105839387
904,596.3134902579633
905,596.3682895325734
906,596.4106091420421
907,596.4375521986461
908,596.4467310127942
909,596.4364677056706
910,596.4059851703829
911,596.3555789162456
912,596.2867338605397
913,596.2021190995644
914,596.1053917432694
915,596.0007846300585
916,595.8925262683615
917,595.784212279736
