frame_number,force
0,499.7537840033855
1,499.77562869597733
2,499.79745376749116
3,499.81923940075006
4,499.8409653969906
5,499.862611009601
6,499.8841548025785
7,499.905574536352
8,499.92684708206934
9,499.9479483651663
10,499.9688533392774
11,499.9895359916477
12,500.0099693806926
13,500.03012570502716
14,500.04997640141335
15,500.0694922674926
16,500.0886436048175
17,500.1074003787048
18,500.1257323928195
19,500.1436094768986
20,500.1610016852998
21,500.17787950290017
22,500.1942140542899
23,500.2099773126146
24,500.22514230550894
25,500.2396833167533
26,500.25357608306234
27,500.26679798549264
28,500.27932823434065
29,500.2911480455381
30,500.3022408061277
31,500.3125922266614
32,500.3221904788214
33,500.3310263166252
34,500.33909317904295
35,500.34638727094836
36,500.35290761839497
37,500.3586560937627
38,500.3636374068491
39,500.3678590596341
40,500.37133126494973
41,500.3740668320666
42,500.3760810245084
43,500.3773913966311
44,500.3780176157899
45,500.3779812768035
46,500.37730571514743
47,500.376015824704
48,500.3741378848894
49,500.3716994005969
50,500.3687289567691
51,500.3652560876923
52,500.36131115941294
53,500.3569252621613
54,500.3521301085473
55,500.3469579327651
56,500.34144138617637
57,500.3356134252437
58,500.32950718862634
59,500.3231558613662
60,500.31659252562895
61,500.30984999913437
62,500.3029606637135
63,500.29595628721904
64,500.28886784238534
65,500.2817253261197
66,500.2745575821229
67,500.2673921289764
68,500.26025499526776
69,500.25317056325184
70,500.2461614230497
71,500.23924824021316
72,500.2324496402215
73,500.2257821137899
74,500.21925994657295
75,500.2128951760366
76,500.2066975773584
77,500.20067467958836
78,500.19483181274376
79,500.189172185438
80,500.1836969909027
81,500.1784055374074
82,500.1732953978835
83,500.1683625733824
84,500.1636016655051
85,500.15900605352635
86,500.15456807252144
87,500.15027918979877
88,500.1461301783074
89,500.1421112868766
90,500.1382124077751
91,500.1344232421047
92,500.1307334629436
93,500.1271328750264
94,500.1236115687051
95,500.1201600656216
96,500.1167694538736
97,500.113431510992
98,500.11013881357707
99,500.1068848329056
100,500.10366401599805
101,500.10047185155855
102,500.0973049202658
103,500.0941609291788
104,500.0910387301768
105,500.08793832232107
106,500.08486083825994
107,500.08180851537577
108,500.0787846525793
109,500.0757935529761
110,500.0728404516295
111,500.06993142729925
112,500.0670732975938
113,500.0642734980491
114,500.06153994695745
115,500.0588808991123
116,500.0563047925272
117,500.0538200922352
118,500.05143513469767
119,500.0491579758018
120,500.04699624526893
121,500.04495701048614
122,500.0430466530707
123,500.04127076168066
124,500.0396340444353
125,500.0381402633944
126,500.0367921915067
127,500.0355915896284
128,500.0345391988106
129,500.03363474199097
130,500.0328769294771
131,500.0322634635519
132,500.0317910385707
133,500.0314553336577
134,500.03125099540097
135,500.0311716081305
136,500.0312096499998
137,500.0313564344
138,500.03160203783017
139,500.03193521670596
140,500.0323433164595
141,500.0328121767523
142,500.0333260367595
143,500.0338674442665
144,500.0344171719157
145,500.0349541437495
146,500.03545537543636
147,500.0358959320346
148,500.03624890754725
149,500.0364854307246
150,500.0365747015059
151,500.03648406204434
152,500.0361791053011
153,500.03562382268603
154,500.034780790256
155,500.03361139088213
156,500.0320760679595
157,500.030134604948
158,500.02774642451595
159,500.0248709013546
160,500.02146768354277
161,500.0174970182458
162,500.01292007843307
163,500.00769928857727
164,500.0017986492291
165,499.9951840624013
166,499.9878236606485
167,499.97968814187146
168,499.97075110971946
169,499.9609894172138
170,499.95038350971464
171,499.93891776277644
172,499.92658081060034
173,499.9133658612389
174,499.89927099474687
175,499.88429943973773
176,499.8684598226571
177,499.85176638313044
178,499.83423914826363
179,499.8159040586366
180,499.7967930386708
181,499.7769440039832
182,499.75640079880816
183,499.73521305846714
184,499.71343599521595
185,499.6911301094185
186,499.66836083068733
187,499.64519809527457
188,499.62171586710906
189,499.597991610573
190,499.5741057231467
191,499.5501409356214
192,499.5261816873858
193,499.5023134845864
194,499.4786222493055
195,499.45519366794
196,499.43211254671564
197,499.4094621818032
198,499.3873237508831
199,499.365775732331
200,499.3448933575429
201,499.32474810133846
202,499.3054072150036
203,499.2869333064205
204,499.26938397164787
205,499.25281148183745
206,499.2372625282017
207,499.2227780260435
208,499.2093929772482
209,499.1971363896434
210,499.18603125126884
211,499.17609455758424
212,499.16733738974244
213,499.1597650421074
214,499.1533771969533
215,499.14816814377076
216,499.1441270402348
217,499.1412382119405
218,499.13948148813614
219,499.1388325702984
220,499.1392634294361
221,499.14074272701987
222,499.1432362540609
223,499.14670738345933
224,499.15111753182634
225,499.156426627381
226,499.1625935795654
227,499.16957674445507
228,499.17733437910306
229,499.18582507799357
230,499.19500818519816
231,499.2048441761809
232,499.21529500357934
233,499.2263244017981
234,499.2378981457643
235,499.24998425976236
236,499.26255317329924
237,499.27557782251716
238,499.28903369713237
239,499.30289883357705
240,499.3171537551197
241,499.331781360051
242,499.3467667602234
243,499.3620970741316
244,499.3777611804249
245,499.39374943849435
246,499.410053382579
247,499.4266653951945
248,499.44357836512825
249,499.4607853348501
250,499.4782791417487
251,499.4960520572007
252,499.51409542762804
253,499.5323993225427
254,499.550952195468
255,499.569740563811
256,499.5887487130716
257,499.6079584295647
258,499.62734876462406
259,499.646895832486
260,499.66657264375027
261,499.68634897613737
262,499.70619128406054
263,499.7260626486529
264,499.7459227706533
265,499.765728009569
266,499.78543147291225
267,499.8049831585582
268,499.8243301517616
269,499.84341687680666
270,499.8621854021186
271,499.88057579708834
272,499.8985265387148
273,499.9159749660685
274,499.93285778002564
275,499.9491115843474
276,499.96467346182266
277,499.97948157624
278,499.9934757885004
279,500.00659827442695
280,500.0187941329522
281,500.03001197530887
282,500.0402044873838
283,500.0493289581171
284,500.0573477670513
285,500.0642288242576
286,500.0699459561262
287,500.07447923114216
288,500.0778152207546
289,500.0799471912986
290,500.0808752232828
291,500.0806062545871
292,500.07915404497703
293,500.07653906109505
294,500.0727882833134
295,500.0679349380426
296,500.06201816125036
297,500.05508260122724
298,500.04717797074306
299,500.0383585599733
300,500.0286827215208
301,500.01821233773717
302,500.0070122788013
303,499.9951498581538
304,499.982694290564
305,499.9697161575973
306,499.9562868851137
307,499.9424782372063
308,499.9283618308246
309,499.9140086754098
310,499.8994887420799
311,499.88487056703167
312,499.87022089354696
313,499.8556043557967
314,499.8410832052041
315,499.8267170769383
316,499.8125627912852
317,499.79867418308766
318,499.7851019523125
319,499.77189352991564
320,499.7590929553427
321,499.7467407645525
322,499.73487388942516
323,499.7235255703462
324,499.7127252838191
325,499.7024986864905
326,499.6928675763504
327,499.6838498715711
328,499.6754596076929
329,499.6677069542712
330,499.6605982520307
331,499.65413607090704
332,499.64831928875185
333,499.64314319065437
334,499.63859958976946
335,499.63467697159575
336,499.6313606640734
337,499.6286330353125
338,499.62647371945087
339,499.62485986951367
340,499.623766434444
341,499.6231664558094
342,499.62303137830463
343,499.62333136730405
344,499.62403562640736
345,499.6251127082099
346,499.6265308125894
347,499.62825806863896
348,499.6302627984878
349,499.63251376281994
350,499.6349803883657
351,499.637632977231
352,499.64044289747113
353,499.6433827542359
354,499.646426540852
355,499.64954976931983
356,499.6527295804508
357,499.65594483545806
358,499.6591761924151
359,499.66240617149026
360,499.6656192119655
361,499.66880172236466
362,499.6719421233627
363,499.6750308820137
364,499.67806053537527
365,499.6810257016425
366,499.68392307683575
367,499.686751414462
368,499.6895114848042
369,499.6922060107086
370,499.69483957854175
371,499.6974185257472
372,499.69995080902595
373,499.70244585907585
374,499.7049144290265
375,499.70736844403444
376,499.70982085863886
377,499.712285526489
378,499.7147770845027
379,499.71731085122167
380,499.71990273771877
381,499.7225691689898
382,499.72532701401633
383,499.7281935231722
384,499.7311862718954
385,499.73432310913694
386,499.73762210798685
387,499.74110151456966
388,499.74477969033643
389,499.748675042244
390,499.7528059348101
391,499.7571905780804
392,499.76184688688534
393,499.76679230929614
394,499.77204362491455
395,499.77761671591867
396,499.7835263158829
397,499.7897857435364
398,499.7964066303986
399,499.8033986520661
400,499.81076927276814
401,499.8185235120007
402,499.82666374096186
403,499.8351895155174
404,499.84409745175503
405,499.8533811495962
406,499.8630311688235
407,499.873035059854
408,499.8833774490302
409,499.894040176153
410,499.9050024812177
411,499.91624123742656
412,499.92773122734405
413,499.9394454579663
414,499.95135550891973
415,499.9634319065793
416,499.97564451574647
417,499.9879629398213
418,500.0003569206363
419,500.0127967304961
420,500.0252535508196
421,500.0376998329858
422,500.0501096370853
423,500.06245894408477
424,500.07472593754125
425,500.08689125257746
426,500.09893819141865
427,500.11085290553865
428,500.1226245442465
429,500.13424536892705
430,500.145710831797
431,500.1570196183072
432,500.1681736531491
433,500.1791780709458
434,500.19004115376976
435,500.2007742382998
436,500.21139159571794
437,500.2219102876493
438,500.232350001611
439,500.24273286925273
440,500.25308327017143
441,500.26342762365965
442,500.2737941704976
443,500.28421274651635
444,500.2947145490186
445,500.3053318965859
446,500.31609798273035
447,500.3270466243312
448,500.33821200644724
449,500.349628425386
450,500.36133003165776
451,500.3733505738686
452,500.38572314403905
453,500.3984799243604
454,500.4116519349316
455,500.42526878154575
456,500.4393584022709
457,500.45394681171643
458,500.46905784297513
459,500.484712889467
460,500.5009306514536
461,500.51772689334695
462,500.53511421727484
463,500.5531018562913
464,500.5716954882989
465,500.5908970697559
466,500.61070468671585
467,500.63111242014855
468,500.6521102230595
469,500.67368380777623
470,500.69581454190086
471,500.71847935140266
472,500.741650630638
473,500.7652961618937
474,500.78937904972327
475,500.813857676188
476,500.83868568189104
477,500.8638119756341
478,500.8891807739692
479,500.9147316710205
480,500.9403997379608
481,500.9661156502001
482,500.9918058392867
483,501.0173926663458
484,501.0427946146874
485,501.0679265006072
486,501.0926997026841
487,501.1170224104314
488,501.1407998931133
489,501.1639347896447
490,501.1863274210419
491,501.207876127421
492,501.22847763160524
493,501.248027431159
494,501.26642022038635
495,501.2835503433183
496,501.29931227742003
497,501.3136011455424
498,501.3263132511543
499,501.3373466298369
500,501.3466016087088
501,501.35398136503653
502,501.3593924760665
503,501.36274545410555
504,501.36395526328545
505,501.3629418159907
506,501.359630447029
507,501.35395236299763
508,501.3458450640562
509,501.3352527358338
510,501.3221266100231
511,501.3064252927448
512,501.2881150598409
513,501.2671701182248
514,501.24357283262856
515,501.2173139175369
516,501.1883925945553
517,501.15681671564096
518,501.1226028523055
519,501.08577635002297
520,501.04637134593963
521,501.0044307471312
522,500.96000616653885
523,500.9131578144428
524,500.863954344687
525,500.8124726562542
526,500.75879765163273
527,500.7030219537634
528,500.6452455836278
529,500.5855756007606
530,500.52412570874577
531,500.46101582686816
532,500.3963716279465
533,500.33032404175776
534,500.2630087238087
535,500.1945654901117
536,500.12513771931845
537,500.0548717239772
538,499.98391609343184
539,499.9124210122181
540,499.8405375591916
541,499.7684169935015
542,499.69621003389494
543,499.62406613796935
544,499.5521327880091
545,499.48055478979796
546,499.4094735900267
547,499.33902661671215
548,499.2693466460244
549,499.2005611986288
550,499.1327919689659
551,499.0661542912106
552,499.00075664545443
553,498.93670020694
554,498.8740784404978
555,498.8129767422942
556,498.753472131506
557,498.69563299495996
558,498.6395188877604
559,498.58518039265476
560,498.5326590403476
561,498.4819872918616
562,498.4331885825586
563,498.3862774265177
564,498.34125958026846
565,498.2981322658666
566,498.2568844537816
567,498.2174972052238
568,498.1799440716393
569,498.14419154720616
570,498.11019956911986
571,498.0779220599666
572,498.0473075057126
573,498.0182995616953
574,497.9908376784567
575,497.96485773996824
576,497.9402927083453
577,497.91707327076807
578,497.89512848585457
579,497.87438642839584
580,497.85477483278225
581,497.8362217357489
582,497.8186561179882
583,497.8020085421885
584,497.7862117824691
585,497.77120143725114
586,497.7569165152799
587,497.7432999839953
588,497.73029927091727
589,497.71786671127495
590,497.7059599376618
591,497.69454220943675
592,497.68358268089395
593,497.67305660813224
594,497.6629454950749
595,497.6532371791756
596,497.6439258573376
597,497.63501205308444
598,497.62650252726047
599,497.6184101360337
600,497.61075364112224
601,497.60355747773485
602,497.5968514855818
603,497.59067060729325
604,497.5850545569684
605,497.58004746036556
606,497.5756974680953
607,497.5720563435578
608,497.5691790274114
609,497.56712318000126
610,497.5659487029139
611,497.56571724094715
612,497.5664916662218
613,497.5683355467115
614,497.57131260192995
615,497.57548614883666
616,497.58091854132357
617,497.58767060704366
618,497.59580108579803
619,497.60536607400996
620,497.6164184797975
621,497.62900749285643
622,497.6431780728855
623,497.658970459507
624,497.6764197055091
625,497.6955552341154
626,497.7164004204385
627,497.7389721977466
628,497.7632806906079
629,497.78932887870246
630,497.8171122962768
631,497.84661877265506
632,497.87782821915687
633,497.9107124674772
634,497.94523516415734
635,497.98135172521205
636,498.01900935419195
637,498.05814712599556
638,498.0986961378274
639,498.1405797280722
640,498.18371376354736
641,498.2280069951881
642,498.27336148110743
643,498.31967307396746
644,498.36683196718434
645,498.4147232925916
646,498.46322776186975
647,498.5122223455154
648,498.56158098518307
649,498.6111753364459
650,498.6608755388662
651,498.71055100894233
652,498.7600712495936
653,498.8093066683445
654,498.85812939598884
655,498.90641409799355
656,498.9540387714736
657,499.00088552092046
658,499.0468413062055
659,499.09179865681773
660,499.1356563467763
661,499.17832002526876
662,499.2197027988371
663,499.2597257617093
664,499.29831847152536
665,499.3354193681262
666,499.37097613305286
667,499.4049459868742
668,499.4372959208108
669,499.4680028586624
670,499.49705374476895
671,499.5244455537448
672,499.55018521848666
673,499.57428947466525
674,499.5967846221341
675,499.61770620576436
676,499.63709861979794
677,499.65501464098224
678,499.67151489662155
679,499.68666727412284
680,499.7005462785369
681,499.71323234430963
682,499.7248111073817
683,499.7353726440686
684,499.7450106837478
685,499.7538218030795
686,499.76190461005933
687,499.7693589266106
688,499.7762849788133
689,499.7827826042695
690,499.78895048624577
691,499.794885423664
692,499.8006816445502
693,499.8064301686035
694,499.81221822267275
695,499.8181287111293
696,499.8242397413007
697,499.83062420287126
698,499.8373494001717
699,499.8444767371844
700,499.85206145574904
701,499.86015242739353
702,499.8687919989149
703,499.8780158917666
704,499.88785315519493
705,499.8983261723203
706,499.9094507169696
707,499.9212360576911
708,499.93368510467826
709,499.94679459541925
710,499.9605553155844
711,499.97495235281747
712,499.98996538261207
713,500.00556898713324
714,500.02173300923994
715,500.03842294447696
716,500.05560037300273
717,500.07322343135115
718,500.0912473211743
719,500.1096248494139
720,500.1283069923552
721,500.1472434752555
722,500.16638335971425
723,500.1856756319624
724,500.2050697859289
725,500.2245163949544
726,500.2439676654629
727,500.26337796499
728,500.2827043160284
729,500.3019068466573
730,500.32094918923934
731,500.3397988196361
732,500.35842733116084
733,500.37681063969416
734,500.39492911906035
735,500.4127676687168
736,500.4303157184311
737,500.4475671764414
738,500.46452032869183
739,500.48117769745994
740,500.49754586801623
741,500.5136352915436
742,500.52946007156663
743,500.54503774031747
744,500.5603890311481
745,500.5755376526323
746,500.59051006852013
747,500.6053352851781
748,500.6200446454808
749,500.63467162631144
750,500.6492516362688
751,500.66382181057446
752,500.6784208010415
753,500.69308855991216
754,500.70786611720234
755,500.72279535193644
756,500.7379187584036
757,500.75327920924724
758,500.76891971760347
759,500.7848832005752
760,500.8012122463741
761,500.81794888778484
762,500.83513438496277
763,500.85280902010817
764,500.87101190477495
765,500.8897807979979
766,500.90915193117576
767,500.92915983443413
768,500.94983715908603
769,500.97121449159005
770,500.99332015575527
771,501.0161800014509
772,501.039817179472
773,501.0642519035879
774,501.0895012024683
775,501.1155786661902
776,501.14249419389046
777,501.17025375016857
778,501.19885913781104
779,501.2283077935976
780,501.2585926127872
781,501.28970180662446
782,501.32161879622424
783,501.35432214601593
784,501.3877855405472
785,501.4219778090416
786,501.45686300182535
787,501.49240052146274
788,501.5285453094695
789,501.5652480870905
790,501.60245564615434
791,501.640111184047
792,501.67815467600786
793,501.71652327835625
794,501.7551517574164
795,501.7939729401821
796,501.8329181838524
797,501.8719178622277
798,501.9109018672824
799,501.94980012378244
800,501.9885431140207
801,502.02706240930075
802,502.0652912045942
803,502.1031648519741
804,502.1406213865463
805,502.1776020361287
806,502.2140517038161
807,502.2499194115784
808,502.28515869341464
809,502.31972792791623
810,502.35359060184044
811,502.38671549832765
812,502.41907680579044
813,502.45065414593444
814,502.48143252127335
815,502.5114021837759
816,502.5405584273867
817,502.56890130859716
818,502.59643530118274
819,502.6231688933855
820,502.6491141375658
821,502.67428616317073
822,502.6987026637832
823,502.7223833683277
824,502.74534950537355
825,502.7676232678656
826,502.7892272837892
827,502.81018409697634
828,502.83051566207655
829,502.8502428583438
830,502.8693850275421
831,502.887959541512
832,502.90598140476345
833,502.92346289706217
834,502.9404132605793
835,502.9568384356986
836,502.97274084868656
837,502.98811925316846
838,503.0029686262585
839,503.01728011967396
840,503.03104106607236
841,503.0442350406342
842,503.0568419770819
843,503.06883833575137
844,503.0801973193491
845,503.09088913027676
846,503.1008812625434
847,503.1101388216189
848,503.1186248668225
849,503.12630077226555
850,503.13312660339597
851,503.1390615068491
852,503.144064111822
853,503.1480929413563
854,503.1511068314374
855,503.15306535500355
856,503.1539292474372
857,503.15366083010457
858,503.1522244287998
859,503.14958678424733
860,503.14571745179404
861,503.1405891867976
862,503.13417831120574
863,503.1264650562542
864,503.11743387688387
865,503.1070737352597
866,503.0953783526146
867,503.08234642941676
868,503.0679818332709
869,503.05229375262377
870,503.0352968130739
871,503.01701115241997
872,502.9974624507992
873,502.97668191330973
874,502.9547062038941
875,502.93157733046206
876,502.90734248207167
877,502.8820538196313
878,502.85576822215927
879,502.82854699119923
880,502.80045551671736
881,502.77156290886313
882,502.74194160104133
883,502.71166693018154
884,502.68081669983326
885,502.6494707314504
886,502.61771040955506
887,502.5856182272313
888,502.55327733890243
889,502.5207711269789
890,502.4881827875901
891,502.45559493894046
892,502.42308925492057
893,502.39074612676325
894,502.3586443558308
895,502.3268608799142
896,502.29547053365434
897,502.2645458417629
