frame_number,force
0,499.7537840003355
1,499.75383570109284
2,499.7543850508188
3,499.75591227833024
4,499.75886402869446
5,499.76363941176146
6,499.7705787480906
7,499.7799550781392
8,499.7919682912171
9,499.8067417222464
10,499.82432114470623
11,499.84467614962784
12,499.867703870564
13,499.89323486048835
14,499.9210406888432
15,499.9508426347767
16,499.982320850027
17,500.0151235724536
18,500.0488762344062
19,500.0831904316736
20,500.11767264587115
21,500.15193246698084
22,500.18559000111065
23,500.21828223435455
24,500.2496683096995
25,500.2794338680788
26,500.30729472899543
27,500.3330001955369
28,500.35633616383365
29,500.3771280682674
30,500.3952436081839
31,500.4105952176088
32,500.42314228291673
33,500.4328930902821
34,500.43990636842193
35,500.44429211455673
36,500.446211209951
37,500.4458732243337
38,500.4435318532783
39,500.439477653659
40,500.4340280966833
41,500.4275153579381
42,500.4202725912198
43,500.4126195970862
44,500.40484881758056
45,500.39721255149226
46,500.38991222381867
47,500.3830904362266
48,500.3768263579403
49,500.37113479470133
50,500.3659690152021
51,500.3612271437381
52,500.3567616635859
53,500.3523913398904
54,500.34791469721546
55,500.3431241064138
56,500.33781955719127
57,500.33182128843384
58,500.3249805800992
59,500.3171881856409
60,500.3083801243387
61,500.29854081407495
62,500.28770372935423
63,500.27594989510965
64,500.26340458723905
65,500.2502325976736
66,500.2366323373041
67,500.22282893935864
68,500.2090664478298
69,500.19559917626947
70,500.18268241463653
71,500.1705628073551
72,500.15946885960994
73,500.14960209904007
74,500.1411293979184
75,500.1341768599095
76,500.12882556133246
77,500.1251093670919
78,500.1230149835337
79,500.1224842729339
80,500.1234186123847
81,500.1256848195601
82,500.129122008075
83,500.1335487323272
84,500.13876988324165
85,500.14458290620234
86,500.1507830204467
87,500.15716728637835
88,500.16353758873447
89,500.1697027936998
90,500.17548043733996
91,500.18069830477504
92,500.1851961593509
93,500.18882769580665
94,500.19146261557705
95,500.19298865634056
96,500.193313442371
97,500.1923660828822
98,500.19009850273085
99,500.1864865348562
100,500.1815308031511
101,500.17525738357136
102,500.1677182114402
103,500.158991218126
104,500.14918017549945
105,500.13841419400825
106,500.1268468304397
107,500.1146548270635
108,500.10203651455913
109,500.0892097866721
110,500.0764093833033
111,500.0638831528764
112,500.0518870430838
113,500.0406787313233
114,500.03051000811973
115,500.0216182375189
116,500.014217363202
117,500.0084889443174
118,500.0045736270273
119,500.0025633855456
120,500.00249485766466
121,500.004344145204
122,500.0080235136769
123,500.01338047337987
124,500.02019971723837
125,500.02820826355463
126,500.0370838469178
127,500.04646617436396
128,500.0559702968901
129,500.06520118511315
130,500.073768636789
131,500.0813017859684
132,500.08746263754756
133,500.0919581538246
134,500.0945504504519
135,500.09506466950893
136,500.0933941765435
137,500.0895029092272
138,500.0834249306991
139,500.07526142802334
140,500.0651755094023
141,500.053385205505
142,500.0401550826881
143,500.02578682662204
144,500.0106090803368
145,499.99496678396537
146,499.97921029838903
147,499.96368467124324
148,499.94871947495477
149,499.9346196928674
150,499.92165814089515
151,499.91006986912146
152,499.9000488718053
153,499.89174723748704
154,499.8852766080437
155,499.8807115359726
156,499.87809409412523
157,499.8774389460639
158,499.87873806005234
159,499.88196435244413
160,499.88707372995884
161,499.89400519694055
162,499.90267888931885
163,499.9129921486821
164,499.92481409947413
165,499.93797955527225
166,499.95228326895415
167,499.9674754429146
168,499.9832591087296
169,499.99928965681954
170,500.01517657605535
171,500.03048737771365
172,500.0447536984496
173,500.05747963150645
174,500.068152317145
175,500.07625467475935
176,500.08127993581707
177,500.08274743540477
178,500.0802189821354
179,500.07331503344244
180,500.0617298148748
181,500.0452444253948
182,500.02373695245313
183,499.99718881990793
184,499.96568701449695
185,499.9294222995188
186,499.88868384379
187,499.84385085228126
188,499.79538186391966
189,499.7438024027476
190,499.6896915920273
191,499.63366820071593
192,499.57637649747767
193,499.5184722786182
194,499.46060944726963
195,499.4034274962586
196,499.34754018949127
197,499.2935256584075
198,499.2419180397232
199,499.193200695434
200,499.1478009857602
201,499.10608651820417
202,499.06836279170824
203,499.034872200851
204,499.0057944250276
205,498.9812482348803
206,498.96129465398406
207,498.9459412428691
208,498.93514711983323
209,498.92882827940656
210,498.9268628158226
211,498.9290957589847
212,498.9353433487853
213,498.94539668096996
214,498.9590247168615
215,498.9759766616279
216,498.9959837446132
217,499.01876052322433
218,499.0440059234647
219,499.0714042342902
220,499.1006261797924
221,499.13133008431856
222,499.16316312374045
223,499.1957627737715
224,499.2287587492167
225,499.26177579284695
226,499.29443751688166
227,499.32637123790767
228,499.35721357139664
229,499.38661651829244
230,499.41425379240445
231,499.4398271335024
232,499.46307234302816
233,499.4837647845452
234,499.501724088417
235,499.5168178013165
236,499.52896378979193
237,499.5381313547526
238,499.54434114237966
239,499.54766394688755
240,499.5482184162073
241,499.54616762276254
242,499.5417145531481
243,499.53509677478985
244,499.5265807161881
245,499.51645603510497
246,499.50503044496924
247,499.49262520626263
248,499.4795713472126
249,499.46620657126874
250,499.45287270489194
251,499.4399134523834
252,499.42767223416
253,499.416490013937
254,499.4067031683851
255,499.39864150246063
256,499.39262643893244
257,499.3889692655744
258,499.38796918982575
259,499.3899108949415
260,499.3950613175112
261,499.40366542037833
262,499.41594079291576
263,499.4320710252157
264,499.45219802243014
265,499.47641368849935
266,499.504751574984
267,499.53717908390416
268,499.5735906876985
269,499.61380249375884
270,499.65754840729255
271,499.7044781555396
272,499.7541575070322
273,499.8060710884916
274,499.85962819196965
275,499.91417181586496
276,499.96899087096125
277,500.0233350640316
278,500.07643161712656
279,500.1275028762175
280,500.17578403573367
281,500.2205404914646
282,500.2610845421418
283,500.2967912272102
284,500.327113065067
285,500.3515934039807
286,500.3698780567751
287,500.38172489731744
288,500.38701115017324
289,500.3857381310253
290,500.3780331390464
291,500.3641481247057
292,500.3444547762
293,500.3194358268352
294,500.28967262133443
295,500.2558292173592
296,500.2186335362514
297,500.1788563410517
298,500.1372890673224
299,500.0947216539368
300,500.0519214544616
301,500.0096140890549
302,499.968466791478
303,499.9290744953323
304,499.89194868878093
305,499.85750899087407
306,499.82607739434303
307,499.79787510947165
308,499.77302195099094
309,499.7515382637875
310,499.7333494638048
311,499.7182933433537
312,499.7061303042795
313,499.69655655624126
314,499.6892200012205
315,499.6837380907033
316,499.67971656399027
317,499.6767677938739
318,499.674527501
319,499.6726688252458
320,499.67091312866023
321,499.6690373467157
322,499.66687805310664
323,499.66433258541053
324,499.6613576218951
325,499.65796555645505
326,499.6542189479893
327,499.65022329670967
328,499.6461184575138
329,499.6420690811602
330,499.6382544780104
331,499.6348582083898
332,499.63205762132304
333,499.6300136003782
334,499.6288609298402
335,499.6286998653745
336,499.6295895654579
337,499.631543958187
338,499.6345304173102
339,499.6384713708599
340,499.6432487014674
341,499.6487105373543
342,499.6546798147794
343,499.6609638524932
344,499.6673641234361
345,499.673685443849
346,499.67974395286285
347,499.68537352737775
348,499.69043058922534
349,499.6947974871492
350,499.69838468864356
351,499.70113193195573
352,499.70300839470787
353,499.7040119003997
354,499.70416716641967
355,499.7035230909023
356,499.702149169069
357,499.7001313540845
358,499.697567904414
359,499.69456581688354
360,499.691238286089
361,499.6877033529379
362,499.6840836338635
363,499.6805068335406
364,499.677106663335
365,499.67402378569363
366,499.67140638983227
367,499.6694099045186
368,499.6681952349755
369,499.6679249470329
370,499.6687571062847
371,499.6708369145808
372,499.67428669741946
373,499.6791951013838
374,499.68560655713435
375,499.6935121234212
376,499.7028427029853
377,499.71346531975234
378,499.72518275683734
379,499.7377365033397
380,499.75081274049876
381,499.7640510312604
382,499.7770554127512
383,499.78940765880037
384,499.80068250657104
385,499.8104645622042
386,499.8183664083667
387,499.82404721077114
388,499.8272309451154
389,499.82772323897075
390,499.82542571546867
391,499.82034670309923
392,499.8126073542209
393,499.80244257974005
394,499.7901966049976
395,499.7763132846416
396,499.7613216219155
397,499.7458172588779
398,499.7304409738479
399,499.71585535314244
400,499.702720788532
401,499.6916718430381
402,499.6832948833644
403,499.6781077552221
404,499.6765422137285
405,499.67892977675376
406,499.6854915488164
407,499.69633230620957
408,499.7114387980805
409,499.7306819642782
410,499.7538227176852
411,499.78052102082324
412,499.8103480185103
413,499.84280087761584
414,499.8773197992471
415,499.91330649717327
416,499.9501433006503
417,499.9872119661388
418,500.0239113458609
419,500.0596732936065
420,500.0939764862398
421,500.1263580265495
422,500.15642270030617
423,500.1838497130369
424,500.20839680502655
425,500.2299018546002
426,500.2482822883669
427,500.26353268793946
428,500.27572090023114
429,500.2849828092502
430,500.2915158177599
431,500.2955710723473
432,500.29744453746156
433,500.2974671427123
434,500.2959943385622
435,500.2933954483392
436,500.2900432010749
437,500.2863038175249
438,500.2825280069353
439,500.279043169375
440,500.27614699098257
441,500.2741025294095
442,500.2731348292379
443,500.2734290333126
444,500.27512984773904
445,500.2783421268896
446,500.2831323336026
447,500.289530708552
448,500.29753409034726
449,500.30710938292793
450,500.3181976392585
451,500.33071865497425
452,500.3445758918788
453,500.3596614932088
454,500.37586109552785
455,500.39305808401605
456,500.41113690281276
457,500.42998506906497
458,500.44949372366654
459,500.46955691087527
460,500.4900701851146
461,500.5109293626014
462,500.5320301401401
463,500.5532689867048
464,500.574545356879
465,500.59576496777606
466,500.61684364549217
467,500.63771115421446
468,500.6583145083637
469,500.6786203993211
470,500.6986163863303
471,500.7183104950516
472,500.73772906953315
473,500.75691315840044
474,500.7759141307826
475,500.7947893487697
476,500.81359853506245
477,500.8324011573325
478,500.851254914533
479,500.87021527792876
480,500.8893358953033
481,500.90866947254005
482,500.9282685965097
483,500.9481859531872
484,500.9684735388878
485,500.9891807007954
486,501.0103510657079
487,501.0320185274987
488,501.0542024849524
489,501.0769025670547
490,501.1000931993278
491,501.1237184782366
492,501.1476878634172
493,501.171873191658
494,501.19610750500516
495,501.2201861370863
496,501.2438703303299
497,501.26689334226637
498,501.28896863826225
499,501.3097994724081
500,501.3290889743071
501,501.3465498128935
502,501.36191264380176
503,501.37493286651056
504,501.38539559834595
505,501.3931190151901
506,501.3979562237076
507,501.3997957280227
508,501.39856050808396
509,501.39420579617973
510,501.38671575239937
511,501.37609930483535
512,501.3623854126315
513,501.3456179833285
514,501.3258506845157
515,501.30314193395486
516,501.2775503953628
517,501.2491313059163
518,501.2179338810028
519,501.1839998734114
520,501.1473631535483
521,501.1080500108601
522,501.066079822517
523,501.02146581174503
524,500.9742157908208
525,500.9243329600221
526,500.8718169248273
527,500.8166651071026
528,500.7588747267347
529,500.6984455229861
530,500.63538330740107
531,500.5697042596546
532,500.50143965723754
533,500.4306405916304
534,500.357382236002
535,500.28176732901113
536,500.20392860833675
537,500.1240299543175
538,500.0422660858693
539,499.95886082629113
540,499.8740641418959
541,499.7881482671916
542,499.7014032667436
543,499.61413238713993
544,499.5266475430915
545,499.4392652365398
546,499.3523030859199
547,499.2660769595477
548,499.1808985584227
549,499.0970732641449
550,499.0148981383494
551,498.9346600367969
552,498.8566338040599
553,498.78108044210194
554,498.70824508464364
555,498.63835465198883
556,498.5716151939962
557,498.5082090519514
558,498.4482920304046
559,498.39199079262323
560,498.3394006771685
561,498.2905840302872
562,498.24556898937163
563,498.2043485825215
564,498.16688012767884
565,498.1330851405768
566,498.10285010517435
567,498.0760283976103
568,498.0524434241429
569,498.0318928010955
570,498.01415329906126
571,497.99898625117294
572,497.98614305219735
573,497.9753702403544
574,497.96641360415975
575,497.9590208967245
576,497.95294300367004
577,497.94793367784797
578,497.9437482015485
579,497.940141597688
580,497.9368672270183
581,497.93367664375444
582,497.9303213960431
583,497.9265571237919
584,497.92214987387797
585,497.91688406027737
586,497.9105710943291
587,497.90305758322665
588,497.8942321726827
589,497.8840304536879
590,497.8724376932234
591,497.85948938995085
592,497.84526979809675
593,497.8299086415504
594,497.81357625904417
595,497.7964773731062
596,497.77884361365284
597,497.7609249480721
598,497.74298030603416
599,497.7252678658465
600,497.70803559730814
601,497.6915126969637
602,497.67590248726117
603,497.66137715237056
604,497.6480743955953
605,497.6360958816771
606,497.62550727407347
607,497.61633970965715
608,497.6085925360609
609,497.60223705990916
610,497.5972209945452
611,497.5934732976912
612,497.5909091426407
613,497.5894348387279
614,497.5889525766052
615,497.58936491347555
616,497.59057895117814
617,497.59251021391
618,497.5950862967679
619,497.5982503996488
620,497.60196485490235
621,497.60621470930045
622,497.61101134666274
623,497.6163960193537
624,497.62244298775573
625,497.6292618013633
626,497.636998182724
627,497.64583306465823
628,497.6559795756327
629,497.66767806107976
630,497.6811894435885
631,497.69678732733524
632,497.7147492835215
633,497.7353477532674
634,497.75884098923893
635,497.78546442577704
636,497.81542280629293
637,497.8488833123205
638,497.88596986558093
639,497.92675875023906
640,497.9712757304737
641,498.01949485340225
642,498.0713390333417
643,498.12668228189665
644,498.1853531515069
645,498.2471387431701
646,498.31178865491205
647,498.3790185470485
648,498.4485133880729
649,498.5199306956854
650,498.59290411978293
651,498.66704755788595
652,498.7419597391777
653,498.81722901395943
654,498.89243805158594
655,498.9671682403096
656,499.0410036775752
657,499.11353469116574
658,499.1843608714305
659,499.2530936397021
660,499.31935842053133
661,499.38279653786446
662,499.44306702396466
663,499.49984859012704
664,499.5528420405807
665,499.60177340059556
666,499.6463979422813
667,499.6865051203616
668,499.7219242336278
669,499.7525304574082
670,499.7782507462128
671,499.79906900252666
672,499.8150299198041
673,499.82624106738365
674,499.83287302608494
675,499.83515760341993
676,499.8333843049403
677,499.8278953264653
678,499.8190793795444
679,499.80736465005197
680,499.7932111051326
681,499.77710225463096
682,499.75953640617973
683,499.74101745388924
684,499.7220452982383
685,499.7031060794807
686,499.6846624831812
687,499.6671444373814
688,499.65094058971863
689,499.636391034291
690,499.6237818084059
691,499.61334162875687
692,499.60524115566477
693,499.5995948257604
694,499.59646506325333
695,499.5958684680236
696,499.5977833676303
697,499.6021580020098
698,499.6089186925182
699,499.61797757021424
700,499.6292396253632
701,499.6426089157712
702,499.6579938106811
703,499.67531122095824
704,499.6944898315845
705,499.7154723182496
706,499.7382163925419
707,499.7626943825623
708,499.78889101835557
709,499.8167991742885
710,499.84641349297056
711,499.87772205335085
712,499.9106965357981
713,499.945281646535
714,499.98138482296497
715,500.0188673578534
716,500.0575379848307
717,500.09714966862396
718,500.137399930742
719,500.1779346287341
720,500.218354796431
721,500.25822602480287
722,500.297089920122
723,500.3344773070176
724,500.3699229163305
725,500.4029812584
726,500.43324324666537
727,500.46035293921926
728,500.48402355936906
729,500.5040518128804
730,500.52032949886393
731,500.5328515197641
732,500.5417195961672
733,500.54714126015506
734,500.54942404285936
735,500.5489651591595
736,500.54623733288327
737,500.54177162513383
738,500.53613824188596
739,500.52992635915297
740,500.52372401063286
741,500.518098984205
742,500.5135814940901
743,500.51064924957774
744,500.5097154814153
745,500.5111204124744
746,500.5151264342863
747,500.5219168702384
748,500.5315978092776
749,500.54420223683775
750,500.55969562920205
751,500.5779822698067
752,500.5989117132012
753,500.6222850020674
754,500.647860404736
755,500.675358587839
756,500.70446728400856
757,500.7348456462813
758,500.76612856538924
759,500.7979312549422
760,500.8298544281729
761,500.86149044748015
762,500.89243088362116
763,500.9222758444727
764,500.95064514488945
765,500.97719097337523
766,501.0016113408241
767,501.0236633826655
768,501.043175540107
769,501.06005773595786
770,501.0743088363525
771,501.0860208897241
772,501.09537981736617
773,501.1026624113246
774,501.10822972528547
775,501.11251723120847
776,501.11602238395574
777,501.1192903844307
778,501.1228989199461
779,501.12744253651147
780,501.1335171274533
781,501.1417048464813
782,501.1525596293582
783,501.1665935185051
784,501.184264127878
785,501.2059637325625
786,501.232010487414
787,501.2626421499979
788,501.2980124525164
789,501.3381899770875
790,501.3831590871794
791,501.43282224709765
792,501.4870030160568
793,501.5454491503773
794,501.607835508679
795,501.67376672912087
796,501.74277988829704
797,501.8143475474375
798,501.8878816967273
799,501.96273908300384
800,502.03822831579856
801,502.11361909864763
802,502.1881539087441
803,502.26106231536903
804,502.33157781579484
805,502.3989566513661
806,502.4624976918105
807,502.52156226369704
808,502.5755927857337
809,502.6241291985742
810,502.6668223563423
811,502.7034437622529
812,502.7338912952022
813,502.7581908395208
814,502.77649390985107
815,502.7890714438514
816,502.79630399045425
817,502.79866863056225
818,502.796723159325
819,502.79108829217375
820,502.7824288332612
821,502.77143478772655
822,502.75880331172226
823,502.74522222516
824,502.7313555855742
825,502.7178315350383
826,502.7052323260392
827,502.6940862216135
828,502.6848609410809
829,502.6779584387355
830,502.67371093491676
831,502.67237819868285
832,502.6741461079825
833,502.6791265148963
834,502.68735845408327
835,502.6988107384861
836,502.71338593422416
837,502.7309256011295
838,502.7512166089046
839,502.77399835439945
840,502.7989707875937
841,502.82580321614324
842,502.8541438226203
843,502.88362967454265
844,502.9138967853531
845,502.9445895940432
846,502.9753691729322
847,503.0059195939082
848,503.0359521387699
849,503.0652073155008
850,503.09345484928804
851,503.1204919584898
852,503.14614033655954
853,503.1702423099559
854,503.1926565830557
855,503.21325386167047
856,503.23191256531953
857,503.2485148290464
858,503.2629430254411
859,503.27507706162237
860,503.28479267313503
861,503.29196080433354
862,503.29644796615077
863,503.29811732752194
864,503.2968303488589
865,503.2924489868088
866,503.28483872517876
867,503.2738727429869
868,503.2594373725248
869,503.24143872299067
870,503.21981007670047
871,503.1945194903589
872,503.16557699654624
873,503.1330408917172
874,503.09702274377895
875,503.0576908726232
876,503.01527212572756
877,502.97005181253763
878,502.9223716979121
879,502.8726259954056
880,502.8212553741604
881,502.768739124955
882,502.7155857716181
883,502.66232246598634
884,502.60948345686523
885,502.55759788331454
886,502.5071772031695
887,502.4587027035833
888,502.41261364566986
889,502.36929657160624
890,502.32907613047325
891,502.2922075653989
892,502.25887091507263
893,502.22916706360616
894,502.2031158774748
895,502.180656618566
896,502.1616506079285
897,502.1458858740982
898,502.13308336986177
