acceleration,velocity,displacement
-0.004254957101395764,0.0,0.0
-0.00425394267296848,-2.127224943591061e-06,-5.318062358977652e-10
-0.00424316379840091,-4.251501561433408e-06,-2.1264878621538825e-09
-0.0042131978350027285,-6.3655919697843174e-06,-4.780761244958313e-09
-0.0041552810919415345,-8.457711701520384e-06,-8.486587162784488e-09
-0.0040615825741187345,-1.0511927618035451e-05,-1.3228996992673447e-08
-0.003925424800052891,-1.2508679461578357e-05,-1.89841487625769e-08
-0.0037414504013824463,-1.442539826193719e-05,-2.5717668193455786e-08
-0.0035057373195431832,-1.6237195192168598e-05,-3.3383316556982234e-08
-0.003215865581258995,-1.7917595917369143e-05,-4.192201433436667e-08
-0.0028709370581314108,-1.9439296577216746e-05,-5.126123745801314e-08
-0.002471548409163945,-2.0774917944040585e-05,-6.131479108832747e-08
-0.002019717992570337,-2.1897734544474156e-05,-7.198295421045616e-08
-0.00151877055424005,-2.2782356681176754e-05,-8.315297701686889e-08
-0.000973188164904326,-2.3405346360962847e-05,-9.469990277740378e-08
-0.00038843964881198827,-2.3745753314391925e-05,-1.0648767769624247e-07
0.00022919920262294858,-2.3785563425939185e-05,-1.1837050688132525e-07
0.0008728264109122788,-2.351005702255538e-05,-1.3019441199344888e-07
0.001535092527192217,-2.2908077288029256e-05,-1.4179894557109505e-07
0.002208376613332697,-2.197221000289803e-05,-1.5301901739382687e-07
0.0028849573852268275,-2.0698876503258148e-05,-1.636867890203659e-07
0.003557174548502308,-1.9088343519825864e-05,-1.736335940261369e-07
0.004217574147296362,-1.7144656345876195e-05,-1.8269184399256244e-07
0.004859033430518856,-1.487550445142239e-05,-1.906968841918871e-07
0.0054748643908490045,-1.2292029996080425e-05,-1.974887678037628e-07
0.006058898941204652,-9.408589163067012e-06,-2.0291392259354965e-07
0.006605561132808937,-6.242474144563615e-06,-2.0682668842045732e-07
0.0071099320033939165,-2.8136008605129015e-06,-2.0909070717172645e-07
0.007567810588355128,8.558347874243597e-07,-2.0958014868999858e-07
0.007975771709132535,4.7417303617962755e-06,-2.081807574026934e-07
0.00833121947445745,8.81847815769377e-06,-2.047907052728209e-07
0.00863243573902224,1.3059391961063693e-05,-1.9932123774313155e-07
0.008878623616703888,1.7437156799995225e-05,-1.9169710055286681e-07
0.009069945691790477,2.1924299127118815e-05,-1.818567365710883e-07
0.009207554289375385,2.649367412241028e-05,-1.6975224325870602e-07
0.009293607681660872,3.1118964615169346e-05,-1.553490835743111e-07
0.009331262544418673,3.5775182171689235e-05,-1.3862554687759647e-07
0.009324630877190564,4.043915552709154e-05,-1.1957196245290127e-07
0.009278690479428057,4.50899858662462e-05,-9.818967710456683e-08
0.009199142411775347,4.970944408904705e-05,-7.448981961574351e-08
0.009092215825100626,5.428228364826604e-05,-4.849188768141524e-08
0.008964428387144448,5.879644470132731e-05,-2.0222205594016897e-08
0.008822316959240907,6.324313103792365e-05,1.0287688340795844e-08
0.008672156396796174,6.761674937693293e-05,4.300265844450999e-08
0.008519684749644747,7.191470966354316e-05,7.7885523204629e-08
0.008369852410723366,7.613709395363519e-05,1.1489847410892359e-07
0.008226611570556368,8.028620994895512e-05,1.5400430008457117e-07
0.008092760238148047,8.436605290113123e-05,1.9516736579709278e-07
0.0079698518048934,8.83817059118916e-05,2.383543055003485e-07
0.007858176776502725,9.233871305724062e-05,2.8353441024263154e-07
0.007756818230876761,9.62424618090855e-05,3.3067970395921307e-07
0.007663777249316272,0.00010009761067913375,3.7976472208126787e-07
0.007576159383742522,0.00010390759483739845,4.307660234604009e-07
0.007490408597484883,0.0001076742368327053,4.836614813779269e-07
0.0074025717103536025,0.00011139748190966493,5.384294110635195e-07
0.007308574799255398,0.00011507526853706718,5.950475986752026e-07
0.0072044934317716984,0.00011870353559482395,6.534922997081753e-07
0.007086800487731803,0.00012227635907469982,7.137372733755562e-07
0.006952577908553685,0.0001257862036737712,7.75752914062674e-07
0.006799682151126472,0.00012922426868869125,8.395055321532896e-07
0.0066268578400032535,0.00013258090368647367,9.049568252470808e-07
0.006433799236079898,0.00013584606795549446,9.720635681575729e-07
0.006221163147706431,0.00013900980855144105,1.0407775372843068e-06
0.005990539377424319,0.00014206273418272374,1.111045672967848e-06
0.005744385982688542,0.00014499646552275196,1.182810472894217e-06
0.005485936371055958,0.00014780404611118808,1.256010600802702e-06
0.005219083592808957,0.00015048030110215431,1.3305816876060376e-06
0.004948245021271578,0.00015302213325567445,1.4064572961954949e-06
0.004678209080759846,0.00015542874678118232,1.4835700162047092e-06
0.004413965696173512,0.00015770179047541565,1.5618526505188587e-06
0.004160523950643099,0.0001598454128871198,1.6412394513594926e-06
0.00392272329194597,0.00016186622469776705,1.7216673607557143e-06
0.0037050472550832457,0.00016377316733452436,1.803077208763787e-06
0.0035114500445266915,0.00016557729165942684,1.8854148235122748e-06
0.0033452058865362094,0.00016729145564219256,1.96863201033768e-06
0.0032087890803022814,0.00016892995438390218,2.0526873628442034e-06
0.00310379043662105,0.00017050809926313302,2.137546876255962e-06
0.003030874423937635,0.0001720417654782727,2.2231843424413134e-06
0.0029897802054422097,0.00017354692913561766,2.309581516094786e-06
0.0029793670520051976,0.0001750392159499795,2.3967280523661854e-06
0.0029976998685467098,0.00017653348268011749,2.4846212270237096e-06
0.0030421654643818805,0.00017804344901334963,2.5732654599470766e-06
0.003109607063266401,0.0001795813921452617,2.6626716702367295e-06
0.0031964644934289366,0.00018115791003443554,2.7528564957816536e-06
0.003298909490018641,0.00018278175353029743,2.843841411672837e-06
0.0034129676980922553,0.00018445972282732517,2.9356517807622425e-06
0.0035346210831454956,0.0001861966200226346,3.0283158664747324e-06
0.003659887736478123,0.00018799524722754051,3.121863833287276e-06
0.0037848804083699724,0.00018985643926375253,3.216326754910099e-06
0.003905848833147671,0.00019177912157413194,3.31173564511957e-06
0.004019212858189406,0.0001937603869969662,3.408120522262345e-06
0.004121593429130693,0.00019579558856879623,3.5055095161537855e-06
0.004209846518197338,0.00019787844855562823,3.6039280254348915e-06
0.004281101447603249,0.00020000118554707838,3.7033979339605684e-06
0.00433280160937136,0.00020215466131132202,3.8039368956751685e-06
0.004362744287408235,0.0002043285477855169,3.905557697949378e-06
0.004369116963533717,0.0002065115130982524,4.00826771317032e-06
0.00435052867884514,0.00020869142450884713,4.112068447572095e-06
0.004306036143640317,0.0002108555657144685,4.216955195127924e-06
0.00423516517234264,0.00021299086604346422,4.322916803067407e-06
0.004137928006447443,0.00021508413933816174,4.429935554412813e-06
0.004014836286253972,0.00021712233041133708,4.537987171850188e-06
0.0038669090426405525,0.00021909276674356073,4.647040946138912e-06
0.003695675378844641,0.00022098341284893202,4.757059991037036e-06
0.003503171418532626,0.00022278312454827634,4.868001625386338e-06
0.003291930457445194,0.0002244819000172708,4.9798178815277245e-06
0.003064965456673025,0.00022607112399580033,5.092456137530993e-06
0.0028257443031829512,0.00022754380143576432,5.205859868888884e-06
0.002578158473419362,0.0002288947771299149,5.319969513530304e-06
0.0023264832937174326,0.00023012093757169912,5.434723442205708e-06
0.0020753246313943256,0.00023122138955297708,5.550059023986877e-06
0.0018295455580834643,0.00023219760710034652,5.665913773150208e-06
0.0015941680624076975,0.0002330535355054693,5.782226558801662e-06
0.0013742480717969367,0.00023379563953902048,5.898938852562784e-06
0.0011747260064557776,0.00023443288305858366,6.015995983212185e-06
0.0010002592224452281,0.00023497662936580892,6.133348361318283e-06
0.0008550455412900445,0.00023544045555674273,6.2509526325489215e-06
0.0007426473626667384,0.00023583987878273192,6.36877271613379e-06
0.0006658243263282121,0.00023619199670498066,6.486780685005718e-06
0.0006263810723196626,0.00023651504805464264,6.604957446195623e-06
0.0006250364763396149,0.00023682790244180745,6.723293183819736e-06
0.0006613216285535664,0.00023714949196803074,6.8417875324221955e-06
0.0007335150772458772,0.0002374982011444806,6.960449455700323e-06
0.0008386247987408955,0.0002378912361134773,7.079296815014813e-06
0.0009724262201659971,0.00023834399886820402,7.198355623760233e-06
0.0011295631260897655,0.00023886949620476795,7.317658997528476e-06
0.0013037122978475054,0.00023947781506075227,7.437245825344856e-06
0.0014878043723673597,0.000240175694228306,7.557159202667121e-06
0.0016742862066857138,0.00024096621687306926,7.677444680442465e-06
0.0018554068691649893,0.00024184864014203193,7.79814839469624e-06
0.0020235101421971933,0.00024281836939487247,7.919315147080466e-06
0.0021713192085575104,0.00024386707673256116,8.040986508612324e-06
0.002292202214883192,0.00024498295708842135,8.163199017067569e-06
0.0023804094238327276,0.0002461511099981003,8.285982533839199e-06
0.0024312732704243898,0.0002473540306716646,8.40935881900664e-06
0.0024413628407907303,0.0002485721896994684,8.533340374099422e-06
0.0024085858441185047,0.0002497846768706957,8.657929590741963e-06
0.002332234695975063,0.0002509698820057191,8.783118230461066e-06
0.0022129777543957014,0.0002521061851183118,8.908887247242075e-06
0.0020528004261627306,0.0002531726296634514,9.035206950937516e-06
0.0018549030821354614,0.0002541495555405259,9.16203749723851e-06
0.0016235637352473625,0.0002550191722448716,9.28932967918486e-06
0.0013639734822429765,0.00025576605654924423,9.417025986383389e-06
0.0010820517435677442,0.0002563775628556969,9.545061891234624e-06
0.0007842468741226165,0.0002568441375101195,9.673367316326078e-06
0.0004773269967464654,0.00025715953097783675,9.801868233448066e-06
0.0001681665956047647,0.0002573209043759246,9.930488342286507e-06
-0.0001364640971417961,0.00025732883000054033,1.0059150775880623e-05
-0.00043009849075668986,0.00025718718935356573,1.018777978071915e-05
-0.000706752460642854,0.00025690297661571586,1.031630232221147e-05
-0.0009610730442364188,0.00025648602023949606,1.0444649571425274e-05
-0.0011884482880835793,0.00025594863990641603,1.0572758236461753e-05
-0.0013850718013084487,0.00025530525988406804,1.0700571711409374e-05
-0.0015479594315188437,0.00025457200207586124,1.0828041026899357e-05
-0.0016749206364560776,0.0002537662820588675,1.0955125597933039e-05
-0.0017644926102255783,0.0002529064287471971,1.1081793775634555e-05
-0.0018158498350058887,0.00025201134313588923,1.1208023218605327e-05
-0.001828704594810958,0.000251100204528435,1.1333801105521409e-05
-0.0018032144815584013,0.0002501922247593427,1.1459124212843353e-05
-0.0017399109075974984,0.00024930644341205374,1.1583998879886202e-05
-0.0016396590338924894,0.00024846155092668123,1.1708440878470886e-05
-0.0015036556654900006,0.0002476757222518356,1.1832475196765515e-05
-0.0013334678274684736,0.000246966441378596,1.1956135737673123e-05
-0.0011311097961434597,0.000246350296972693,1.2079464922260945e-05
-0.0008991495007191001,0.0002458427321484774,1.2202513179541238e-05
-0.0006408280891301596,0.0002454577377510151,1.232533829701611e-05
-0.0003601727463959992,0.00024520748754213356,1.2448004603339398e-05
-6.208478934066984e-05,0.0002451019231581994,1.257058195601448e-05
0.0002476089194006176,0.0002451483041907144,1.269314451285171e-05
0.0005621467428254221,0.0002453507431062709,1.2815769274675956e-05
0.0008738664026477087,0.00024570974639263914,1.2938534397050683e-05
0.0011742819718144582,0.0002462217834862547,1.3061517279520407e-05
0.0014542036218659767,0.0002468789048846748,1.3184792451613139e-05
0.0017039010908669208,0.00024766843106285803,1.3308429285600022e-05
0.0019133114798327619,0.000248572734205533,1.3432489576917119e-05
0.0020722890715114493,0.00024956913434336905,1.3557025044054344e-05
0.0021708904834136793,0.0002506299292321003,1.3682074809948211e-05
0.002199684516131956,0.00025172257298198674,1.3807662935501733e-05
0.0021500733497818816,0.0002528100124484652,1.3933796081859345e-05
0.0020146099219100363,0.00025385118326638816,1.406046138078806e-05
0.0017872945854835382,0.00025480165939323655,1.4187624591452966e-05
0.0014638322499312066,0.0002556144411020902,1.4315228616576798e-05
0.001041830850572401,0.00025624085687721613,1.4443192441071625e-05
0.0005209259021005153,0.0002566315460653844,1.4571410541807276e-05
-9.717581546625689e-05,0.00025673748358704296,1.4699752799220382e-05
-0.0008087313064171769,0.0002565110068065721,1.4828064921818785e-05
-0.001608066745402412,0.0002559068072936172,1.4956169375343832e-05
-0.002487741693985856,0.0002548828551837701,1.508386679096318e-05
-0.003438759090105873,0.00025340122998774716,1.521093781225606e-05
-0.004450807546557752,0.00025142883832858124,1.533714532933514e-05
-0.005512523997687337,0.00024893800544251995,1.5462237040277915e-05
-0.006611767483630831,0.0002459069325721904,1.5585948274781592e-05
-0.007735896710889352,0.00024232001652356038,1.5708005012055528e-05
-0.008872044200357029,0.0002381680312957488,1.5828127024010354e-05
-0.010007379619176188,0.00023344817534086548,1.5946031075669506e-05
-0.011129355381283589,0.00022816399159075054,1.606143411740241e-05
-0.01222592873168009,0.00022232517056250961,1.6174056407940725e-05
-0.0132857560654118,0.00021594724936323665,1.628362451292216e-05
-0.014298357004695065,0.00020905122109570994,1.6389874130536897e-05
-0.015254247430263069,0.0002016630699869704,1.6492552703307567e-05
-0.016145042042199544,0.00019381324761885476,1.6591421782709024e-05
-0.01696352795776539,0.00018553610511886352,1.6686259120893453e-05
-0.017703710935723278,0.00017686929539549134,1.677686047102204e-05
-0.018360834915162553,0.0001678531589327699,1.6863041084604107e-05
-0.01893137437932915,0.00015853010660914695,1.6944636900989585e-05
-0.019412998911378355,0.00014894401328647007,1.702150543096349e-05
-0.019804511158459756,0.00013913963576901055,1.709352634322736e-05
-0.020105762774259676,0.0001291620672858307,1.7160601768991068e-05
-0.02031755590487689,0.00011905623761604657,1.7222656345216538e-05
-0.02044153883442019,0.0001088664639312223,1.7279637020603356e-05
-0.02048010349448418,9.86360533489962e-05,1.733151264992341e-05
-0.0204362905769151,8.840695483114638e-05,1.7378273401968445e-05
-0.020313705666748495,7.821945577023048e-05,1.741993000461879e-05
-0.020116447706147723,6.811191742700642e-05,1.74565128479181e-05
-0.01984904994015532,5.812054301543066e-05,1.748807096302871e-05
-0.01951643325233368,4.827917221730841e-05,1.7514670891836895e-05
-0.019123871232620927,3.861909609606976e-05,1.753639545891524e-05
-0.0186769645935731,2.916888713952125e-05,1.7553342454724137e-05
-0.018181620753890144,1.9954240802655437e-05,1.7565623236709682e-05
-0.017644034328009678,1.0997827032180481e-05,1.757336125366839e-05
-0.017070666088636537,2.319151928018927e-06,1.757669049840844e-05
-0.01646822010574686,-6.065569620576924e-06,1.75757538939853e-05
-0.015843619195248664,-1.4143529445825806e-05,1.75707016192187e-05
-0.015203976501333741,-2.1905428369971406e-05,1.756168937976475e-05
-0.014556557446159184,-2.9345561856844637e-05,1.7548876632208046e-05
-0.013908725008919855,-3.6461882470614394e-05,1.7532424771126182e-05
-0.013267864351533279,-4.325602981072768e-05,1.7512495293055848e-05
-0.012641287951959948,-4.973331788660099e-05,1.7489247956131516e-05
-0.012036125833326033,-5.590267133292248e-05,1.7462838958826635e-05
-0.011459206138066837,-6.177650432577069e-05,1.7433419164911962e-05
-0.010916930977179034,-6.737053860458216e-05,1.7401132404179375e-05
-0.010415152560027195,-7.270355948888371e-05,1.736611387965601e-05
-0.009959054766721783,-7.779711132057095e-05,1.7328488711953648e-05
-0.009553045222967998,-8.26751363179934e-05,1.7288370650044007e-05
-0.009200662988850195,-8.736356337094794e-05,1.7245860975121772e-05
-0.00890450695125408,-9.188985585597401e-05,1.720104762031504e-05
-0.008666188663134991,-9.628252975957128e-05,1.7154004523911155e-05
-0.008486310476023013,-0.00010057065454436078,1.710479122783517e-05
-0.008364467288054865,-0.00010478334898538024,1.7053452726952736e-05
-0.00829927003517778,-0.00010894928331618841,1.7000019568877345e-05
-0.008288390708281888,-0.00011309619850205333,1.6944508198422783e-05
-0.008328629638528815,-0.000117250453588756,1.688692153540008e-05
-0.008416003995052884,-0.00012143661199715142,1.6827249769003602e-05
-0.008545852431240699,-0.0001256770761037248,1.6765471346978385e-05
-0.008712947312945512,-0.00012999177603977135,1.670155413394251e-05
-0.00891160522114031,-0.0001343979141732928,1.6635456711389243e-05
-0.00913578846381396,-0.00013890976259453138,1.6567129792197286e-05
-0.009379193540168904,-0.0001435385080955271,1.6496517724524773e-05
-0.009635325294982398,-0.00014829213780431492,1.6423560063049813e-05
-0.00989755759748096,-0.00015317535852743078,1.6348193188966875e-05
-0.010159183418661063,-0.0001581895437814663,1.6270351963389652e-05
-0.0104134588841277,-0.0001633327043571635,1.6189971401354995e-05
-0.010653645689622444,-0.00016859948050060102,1.6106988355140553e-05
-0.010873053734205466,-0.000173981155356558,1.6021343196176262e-05
-0.011065082920033699,-0.00017946568952011778,1.5932981484957092e-05
-0.01122326209387305,-0.00018503777577359446,1.5841855618633662e-05
-0.011341284570665912,-0.0001906789124397292,1.574792644658033e-05
-0.01141304252563203,-0.00019636749421380367,1.5651164844916945e-05
-0.011432665164077075,-0.00020207892113623094,1.5551553241079438e-05
-0.01139456667253327,-0.00020778572909538353,1.5449087078521535e-05
-0.011293509447559172,-0.00021345774812540664,1.5343776209216336e-05
-0.011124687035925408,-0.0002190622972462778,1.5235646197873415e-05
-0.010883830083437447,-0.0002245644265261185,1.5124739516930316e-05
-0.0105673363409594,-0.00022992721813221772,1.5011116605765732e-05
-0.010172421465909912,-0.00023511215758393504,1.4894856761836695e-05
-0.009697282197092514,-0.00024007958349968567,1.477605882656579e-05
-0.00914126021422911,-0.00024478921910251605,1.465484162591524e-05
-0.008504995127245866,-0.0002492007829378848,1.453134412540514e-05
-0.007790557508479732,-0.0002532746710968162,1.4405725261896465e-05
-0.007001555542780462,-0.00025697269935963125,1.4278163419282353e-05
-0.006143210316564064,-0.0002602588908244674,1.4148855521736328e-05
-0.00522239458495603,-0.0002631002920498474,1.401801572601775e-05
-0.0042476284696638805,-0.0002654677978135024,1.3885873703551912e-05
-0.003229024188211467,-0.00026733696097797126,1.3752672513854043e-05
-0.002178172111138245,-0.00026868876005280867,1.3618666083596349e-05
-0.0011079633668402086,-0.00026951029392230326,1.348411632010257e-05
-3.235034503574231e-05,-0.0002697953723502722,1.3349289903534427e-05
0.0010339453366982184,-0.0002695449736023566,1.321445481704627e-05
0.002075760884623509,-0.00026876754704702616,1.3079876686883924e-05
0.003077837830708268,-0.0002674791473681932,1.294581501328012e-05
0.0040251698084707264,-0.00026570339545839845,1.2812519377573471e-05
0.004903343036911709,-0.0002634712672470528,1.2680225711897109e-05
0.005698864024796769,-0.0002608207154816257,1.254915271621494e-05
0.006399470325973271,-0.0002577961318939332,1.241949850437105e-05
0.006994419720605575,-0.0002544476593822885,1.2291437556551995e-05
0.007474752175579517,-0.00025083036640824224,1.2165118050104363e-05
0.007833518130415974,-0.00024700329883174335,1.2040659633794367e-05
0.008065966791418556,-0.0002430284276012847,1.191815170218611e-05
0.008169689163105894,-0.00023896951361265358,1.1797652216882626e-05
0.008144711060689752,-0.00023489091355670467,1.1679187110090286e-05
0.00799353024061152,-0.00023085635323137935,1.1562750293393265e-05
0.007721090261364029,-0.00022692769810588547,1.1448304280558948e-05
0.0073346840736165314,-0.00022316375452214031,1.1335781417401941e-05
0.006843783461021991,-0.0002196191376384807,1.1225085694361787e-05
0.006259795076854196,-0.00021634324300401163,1.1116095099201163e-05
0.005595748497539168,-0.0002133793571104133,1.1008664449172556e-05
0.0048659263784940465,-0.000210763938391405,1.0902628625297102e-05
