frame_number,force
0,499.75378400027023
1,499.75383570104026
2,499.7543850507782
3,499.7559122783006
4,499.7588640286746
5,499.76363941174975
6,499.7705787480851
7,499.7799550781382
8,499.791968291219
9,499.8067417222499
10,499.8243211447105
11,499.8446761496323
12,499.867703870568
13,499.8932348604909
14,499.92104068884277
15,499.95084263477105
16,499.9823208500136
17,500.0151235724298
18,500.04887623436923
19,500.0831904316209
20,500.11767264580044
21,500.15193246689023
22,500.1855900009987
23,500.21828223422034
24,500.24966830954276
25,500.27943386789974
26,500.3072947287948
27,500.33300019531623
28,500.35633616359524
29,500.37712806801403
30,500.39524360791864
31,500.4105952173349
32,500.42314228263734
33,500.43289308999994
34,500.43990636813936
35,500.44429211427604
36,500.4462112096739
37,500.44587322406113
38,500.4435318530103
39,500.43947765339504
40,500.4340280964222
41,500.4275153576784
42,500.4202725909598
43,500.4126195968242
44,500.40484881731487
45,500.39721255122134
46,500.38991222354116
47,500.3830904359416
48,500.3768263576472
49,500.37113479440023
50,500.36596901489384
51,500.36122714342434
52,500.35676166326874
53,500.352391339572
54,500.3479146968983
55,500.34312410610005
56,500.3378195568829
57,500.33182128813274
58,500.32498057980695
59,500.3171881853589
60,500.30838012406804
61,500.29854081381626
62,500.28770372910776
63,500.27594989487557
64,500.2634045870176
65,500.2502325974649
66,500.23663233710874
67,500.2228289391776
68,500.2090664476642
69,500.19559917612025
70,500.18268241450426
71,500.1705628072401
72,500.1594688595121
73,500.14960209895895
74,500.14112939785315
75,500.13417685985877
76,500.1288255612948
77,500.12510936706576
78,500.12301498351775
79,500.1224842729269
80,500.12341861238536
81,500.1256848195671
82,500.12912200808705
83,500.13354873234294
84,500.13876988325956
85,500.14458290622133
86,500.1507830204659
87,500.1571672863968
88,500.1635375887512
89,500.1697027937139
90,500.1754804373507
91,500.18069830478214
92,500.18519615935446
93,500.1888276958071
94,500.19146261557495
95,500.19298865633664
96,500.19331344236605
97,500.19236608287696
98,500.19009850272573
99,500.18648653485104
100,500.18153080314494
101,500.1752573835626
102,500.1677182114271
103,500.15899121810634
104,500.14918017547126
105,500.1384141939695
106,500.12684683038805
107,500.1146548269961
108,500.1020365144732
109,500.08920978656465
110,500.0764093831718
111,500.0638831527188
112,500.05188704289907
113,500.0406787311109
114,500.0305100078795
115,500.0216182372509
116,500.0142173629068
117,500.008488943996
118,500.00457362668146
119,500.00256338517755
120,500.00249485727676
121,500.0043441447987
122,500.0080235132568
123,500.01338047294763
124,500.02019971679664
125,500.0282082631058
126,500.037083846464
127,500.0464661739067
128,500.0559702964306
129,500.0652011846524
130,500.0737686363279
131,500.0813017855075
132,500.08746263708724
133,500.09195815336545
134,500.0945504499948
135,500.0950646690546
136,500.09339417609266
137,500.08950290878073
138,500.0834249302581
139,500.075261427589
140,500.06517550897587
141,500.05338520508764
142,500.0401550822806
143,500.02578682622465
144,500.0106090799496
145,499.99496678358844
146,499.9792102980223
147,499.96368467088615
148,499.94871947460643
149,499.9346196925268
150,499.92165814056136
151,499.91006986879364
152,499.90004887148274
153,499.891747237169
154,499.8852766077296
155,499.8807115356621
156,499.878094093818
157,499.8774389457594
158,499.87873805975016
159,499.88196435214394
160,499.8870737296608
161,499.894005196645
162,499.9026788890263
163,499.9129921483929
164,499.92481409918844
165,499.9379795549899
166,499.95228326867493
167,499.96747544263786
168,499.98325910845466
169,499.99928965654567
170,500.0151765757822
171,500.0304873774411
172,500.0447536981777
173,500.05747963123576
174,500.06815231687665
175,500.0762546744948
176,500.08127993555814
177,500.08274743515335
178,500.0802189818933
179,500.0733150332114
180,500.061729814656
181,500.0452444251889
182,500.0237369522602
183,499.9971888197272
184,499.96568701432705
185,499.929422299358
186,499.88868384363633
187,499.8438508521326
188,499.7953818637737
189,499.74380240260194
190,499.68969159188003
191,499.6336682005657
192,499.57637649732396
193,499.5184722784611
194,499.4606094471094
195,499.40342749609584
196,499.3475401893272
197,499.29352565824365
198,499.241918039561
199,499.193200695275
200,499.1478009856059
201,499.1060865180559
202,499.0683627915671
203,499.0348722007179
204,499.00579442490306
205,498.9812482347643
206,498.96129465387594
207,498.9459412427677
208,498.9351471197371
209,498.92882827931385
210,498.9268628157309
211,498.9290957588916
212,498.93534334868826
213,498.94539668086685
214,498.9590247167504
215,498.9759766615069
216,498.9959837444805
217,499.0187605230782
218,499.0440059233035
219,499.0714042341126
220,499.1006261795972
221,499.131330084105
222,499.1631631235084
223,499.195762773521
224,499.22875874894777
225,499.2617757925602
226,499.29443751657817
227,499.3263712375886
228,499.3572135710633
229,499.3866165179461
230,499.4142537920462
231,499.4398271331334
232,499.46307234264987
233,499.4837647841594
234,499.5017240880259
235,499.5168178009226
236,499.528963789398
237,499.5381313543616
238,499.54434114199444
239,499.5476639465109
240,499.54821841584214
241,499.546167622411
242,499.5417145528121
243,499.5350967744709
244,499.5265807158873
245,499.5164560348231
246,499.50503044470696
247,499.4926252060202
248,499.47957134699016
249,499.4662065710663
250,499.4528727047091
251,499.439913452219
252,499.4276722340128
253,499.4164900138053
254,499.406703168267
255,499.39864150235405
256,499.3926264388353
257,499.38896926548455
258,499.3879691897413
259,499.38991089486046
260,499.3950613174313
261,499.4036654202977
262,499.41594079283294
263,499.4320710251297
264,499.4521980223409
265,499.47641368840704
266,499.5047515748892
267,499.5371790838078
268,499.5735906876018
269,499.6138024936629
270,499.65754840719836
271,499.70447815544765
272,499.75415750694276
273,499.80607108840513
274,499.8596281918862
275,499.9141718157842
276,499.9689908708823
277,500.02333506395314
278,500.07643161704704
279,500.1275028761353
280,500.17578403564704
281,500.22054049137176
282,500.26108454204103
283,500.29679122709985
284,500.32711306494565
285,500.3515934038472
286,500.3698780566284
287,500.3817248971564
288,500.3870111499969
289,500.3857381308329
290,500.3780331388376
291,500.36414812448027
292,500.34445477595796
293,500.3194358265766
294,500.28967262105886
295,500.25582921706604
296,500.21863353594046
297,500.1788563407233
298,500.1372890669775
299,500.0947216535766
300,500.05192145408773
301,500.0096140886694
302,499.9684667910832
303,499.9290744949307
304,499.89194868837575
305,499.857508990469
306,499.8260773939423
307,499.7978751090797
308,499.77302195061236
309,499.75153826342654
310,499.7333494634651
311,499.71829334303857
312,499.7061303039915
313,499.6965565559822
314,499.6892200009912
315,499.6837380905036
316,499.67971656381934
317,499.6767677937301
318,499.674527500881
319,499.6726688251489
320,499.67091312858224
321,499.66903734665317
322,499.66687805305645
323,499.6643325853693
324,499.6613576218595
325,499.6579655564217
326,499.6542189479547
327,499.65022329667016
328,499.646118457466
329,499.6420690811009
330,499.6382544779369
331,499.6348582082995
332,499.6320576212139
333,499.63001360024873
334,499.6288609296889
335,499.6286998652002
336,499.62958956525944
337,499.6315439579631
338,499.63453041705964
339,499.6384713705817
340,499.643248701161
341,499.648710537019
342,499.6546798144147
343,499.6609638520987
344,499.6673641230114
345,499.6736854433937
346,499.6797439523766
347,499.68537352686093
348,499.6904305886788
349,499.6947974865748
350,499.6983846880445
351,499.70113193133625
352,499.70300839407304
353,499.704011899755
354,499.70416716577074
355,499.70352309025435
356,499.70214916842656
357,499.7001313534514
358,499.6975679037935
359,499.694565816278
360,499.6912382854996
361,499.68770335236496
362,499.6840836333066
363,499.68050683299884
364,499.67710666280675
365,499.6740237851769
366,499.6714063893253
367,499.66940990402003
368,499.66819523448476
369,499.66792494655004
370,499.6687571058103
371,499.6708369141156
372,499.674286696965
373,499.6791951009419
374,499.6856065567069
375,499.69351212301007
376,499.7028427025922
377,499.7134653193791
378,499.7251827564859
379,499.73773650301206
380,499.75081274019664
381,499.7640510309848
382,499.77705541250214
383,499.78940765857703
384,499.8006825063719
385,499.81046456202733
386,499.8183664082097
387,499.8240472106313
388,499.8272309449899
389,499.82772323885627
390,499.82542571536214
391,499.8203467029979
392,499.81260735412206
393,499.80244257964125
394,499.7901966048968
395,499.7763132845369
396,499.76132162180534
397,499.7458172587607
398,499.73044097372247
399,499.71585535300744
400,499.7027207883865
401,499.6916718428814
402,499.6832948831964
403,499.67810775504296
404,499.67654221353894
405,499.6789297765547
406,499.68549154860943
407,499.69633230599675
408,499.71143879786433
409,499.730681964061
410,499.75382271746923
411,499.7805210206106
412,499.8103480183028
413,499.84280087741485
414,499.87731979905345
415,499.91330649698716
416,499.95014330047167
417,499.98721196596733
418,500.02391134569626
419,500.0596732934483
420,500.0939764860881
421,500.12635802640455
422,500.1564227001682
423,500.18384971290584
424,500.2083968049021
425,500.229901854482
426,500.248282288254
427,500.2635326878303
428,500.27572090012364
429,500.28498280914204
430,500.29151581764853
431,500.2955710722301
432,500.2974445373359
433,500.2974671425755
434,500.2959943384115
435,500.293395448172
436,500.2900432008891
437,500.28630381731875
438,500.2825280067072
439,500.279043169124
440,500.27614699070824
441,500.27410252911176
442,500.27313482891697
443,500.27342903296903
444,500.275129847374
445,500.2783421265045
446,500.28313233319943
447,500.28953070813276
448,500.29753408991417
449,500.3071093824834
450,500.31819763880526
451,500.3307186545149
452,500.34457589141596
453,500.3596614927452
454,500.3758610950661
455,500.3930580835591
456,500.41113690236335
457,500.42998506862574
458,500.4494937232396
459,500.46955691046225
460,500.4900701847171
461,500.5109293622213
462,500.5320301397787
463,500.5532689863629
464,500.5745453565566
465,500.5957649674722
466,500.61684364520517
467,500.6377111539421
468,500.65831450810333
469,500.6786203990701
470,500.69861638608563
471,500.71831049481045
472,500.737729069293
473,500.756913158159
474,500.7759141305383
475,500.79478934852136
476,500.8135985348097
477,500.8324011570759
478,500.8512549142736
479,500.870215277668
480,500.88933589504256
481,500.90866947228074
482,500.9282685962532
483,500.94818595293486
484,500.9684735386414
485,500.9891807005568
486,501.0103510654794
487,501.03201852728273
488,501.0542024847508
489,501.07690256686914
490,501.10009319915906
491,501.1237184780852
492,501.14768786328335
493,501.1718731915415
494,501.19610750490585
495,501.2201861370039
496,501.24387033026403
497,501.26689334221606
498,501.28896863822627
499,501.3097994723849
500,501.329088974295
501,501.34654981289077
502,501.3619126438066
503,501.374932866521
504,501.38539559836016
505,501.3931190152066
506,501.3979562237254
507,501.3997957280411
508,501.39856050810266
509,501.3942057961987
510,501.3867157524191
511,501.3760993048562
512,501.36238541265345
513,501.3456179833507
514,501.3258506845365
515,501.3031419339722
516,501.27755039537425
517,501.2491313059192
518,501.2179338809943
519,501.18399987338836
520,501.14736315350757
521,501.1080500107986
522,501.0660798224319
523,501.0214658116338
524,500.9742157906812
525,500.9243329598525
526,500.871816924626
527,500.81666510686824
528,500.7588747264663
529,500.6984455226832
530,500.6353833070638
531,500.569704259284
532,500.50143965683554
533,500.4306405912002
534,500.35738223554785
535,500.28176732853797
536,500.20392860785046
537,500.12402995382456
538,500.04226608537664
539,499.9588608258056
540,499.8740641414235
541,499.7881482667376
542,499.70140326631184
543,499.61413238673293
544,499.5266475427109
545,499.4392652361864
546,499.352303085593
547,499.2660769592458
548,499.18089855814367
549,499.0970732638858
550,499.01489813810684
551,498.93466003656704
552,498.8566338038392
553,498.78108044188787
554,498.7082450844344
555,498.6383546517828
556,498.57161519379224
557,498.5082090517489
558,498.44829203020356
559,498.3919907924236
560,498.33940067696983
561,498.29058403008855
562,498.2455689891714
563,498.2043485823182
564,498.16688012747073
565,498.13308514036254
566,498.10285010495323
567,498.07602839738195
568,498.0524434239076
569,498.03189280085405
570,498.0141532988146
571,497.9989862509225
572,497.98614305194474
573,497.9753702401017
574,497.9664136039093
575,497.9590208964788
576,497.95294300343176
577,497.9479336776191
578,497.94374820133095
579,497.9401415974833
580,497.93686722682736
581,497.93367664357794
582,497.9303213958814
583,497.9265571236453
584,497.9221498737467
585,497.9168840601615
586,497.9105710942286
587,497.9030575831413
588,497.8942321726121
589,497.8840304536312
590,497.8724376931792
591,497.8594893899174
592,497.84526979807197
593,497.82990864153237
594,497.8135762590309
595,497.7964773730957
596,497.77884361364266
597,497.7609249480599
598,497.7429803060174
599,497.7252678658227
600,497.7080355972749
601,497.69151269691855
602,497.6759024872018
603,497.66137715229524
604,497.6480743955026
605,497.6360958815659
606,497.6255072739433
607,497.61633970950805
608,497.608592535893
609,497.6022370597229
610,497.5972209943408
611,497.5934732974691
612,497.5909091424011
613,497.58943483847094
614,497.58895257633105
615,497.5893649131846
616,497.59057895087113
617,497.59251021358824
618,497.5950862964331
619,497.5982503993028
620,497.60196485454674
621,497.6062147089369
622,497.61101134629314
623,497.6163960189805
624,497.6224429873812
625,497.62926180098947
626,497.63699818235284
627,497.6458330642916
628,497.65597957527217
629,497.66767806072664
630,497.6811894432443
631,497.6967873270011
632,497.7147492831981
633,497.7353477529548
634,497.758840988937
635,497.7854644254855
636,497.81542280601104
637,497.84888331204746
638,497.8859698653157
639,497.92675874998037
640,497.9712757302202
641,498.0194948531524
642,498.07133903309364
643,498.1266822816481
644,498.1853531512553
645,498.24713874291314
646,498.3117886546472
647,498.37901854677375
648,498.4485133877866
649,498.5199306953862
650,498.5929041194699
651,498.6670475575583
652,498.7419597388352
653,498.81722901360195
654,498.89243805121356
655,498.9671682399228
656,499.04100367717496
657,499.11353469075357
658,499.1843608710082
659,499.25309363927175
660,499.31935842009494
661,499.38279653742416
662,499.44306702352316
663,499.4998485896874
664,499.55284204014634
665,499.6017734001698
666,499.6463979418675
667,499.6865051199632
668,499.7219242332475
669,499.7525304570478
670,499.77825074587366
671,499.7990690022096
672,499.8150299195088
673,499.8262410671089
674,499.83287302582914
675,499.83515760318113
676,499.8333843047164
677,499.8278953262541
678,499.8190793793439
679,499.8073646498599
680,499.79321110494624
681,499.7771022544472
682,499.75953640599516
683,499.7410174537005
684,499.7220452980423
685,499.70310607927496
686,499.6846624829637
687,499.6671444371506
688,499.6509405894737
689,499.63639103403176
690,499.6237818081326
691,499.61334162847044
692,499.60524115536657
693,499.59959482545236
694,499.5964650629377
695,499.59586846770253
696,499.5977833673062
697,499.6021580016848
698,499.60891869219444
699,499.61797756989336
700,499.6292396250467
701,499.6426089154603
702,499.657993810377
703,499.6753112206616
704,499.6944898312959
705,499.71547231796916
706,499.73821639226907
707,499.76269438229605
708,499.78889101809455
709,499.81679917403096
710,499.84641349271465
711,499.8777220530947
712,499.91069653554
713,499.94528164627366
714,499.98138482269894
715,500.01886735758137
716,500.0575379845519
717,500.0971496683383
718,500.13739993044965
719,500.1779346284356
720,500.21835479612713
721,500.2582260244947
722,500.297089919811
723,500.33447730670537
724,500.3699229160192
725,500.40298125809204
726,500.43324324636285
727,500.460352938924
728,500.4840235590822
729,500.50405181260214
730,500.52032949859375
731,500.5328515195008
732,500.54171959590917
733,500.5471412599008
734,500.5494240426075
735,500.54896515890914
736,500.546237332634
737,500.54177162488605
738,500.5361382416407
739,500.52992635891206
740,500.52372401039884
741,500.51809898398056
742,500.51358149387806
743,500.51064924938066
744,500.5097154812351
745,500.5111204123124
746,500.5151264341429
747,500.52191687011316
748,500.5315978091692
749,500.54420223674424
750,500.55969562912117
751,500.57798226973654
752,500.59891171314
753,500.6222850020134
754,500.6478604046875
755,500.67535858779394
756,500.7044672839646
757,500.734845646236
758,500.76612856533984
759,500.7979312548857
760,500.82985442810644
761,500.8614904474013
762,500.8924308835277
763,500.922275844362
764,500.9506451447588
765,500.97719097322226
766,501.0016113406463
767,501.0236633824606
768,501.0431755398731
769,501.06005773569393
770,501.074308836058
771,501.08602088939904
772,501.09537981701135
773,501.1026624109415
774,501.1082297248757
775,501.11251723077396
776,501.11602238349894
777,501.1192903839542
778,501.1228989194525
779,501.12744253600346
780,501.13351712693367
781,501.1417048459529
782,501.1525596288244
783,501.16659351796943
784,501.18426412734414
785,501.20596373203415
786,501.232010486895
787,501.26264214949197
788,501.29801245202674
789,501.3381899766168
790,501.38315908672996
791,501.4328222466716
792,501.4870030156557
793,501.5454491500015
794,501.607835508328
795,501.6737667287937
796,501.7427798879926
797,501.81434754715445
798,501.8878816964644
799,501.9627390827596
800,502.0382283155713
801,502.1136190984354
802,502.1881539085449
803,502.26106231518116
804,502.33157781561664
805,502.3989566511961
806,502.4624976916472
807,502.5215622635393
808,502.5755927855809
809,502.6241291984261
810,502.6668223561987
811,502.7034437621134
812,502.7338912950664
813,502.7581908393883
814,502.7764939097216
815,502.7890714437242
816,502.7963039903285
817,502.79866863043736
818,502.7967231592005
819,502.79108829204915
820,502.7824288331361
821,502.771434787601
822,502.758803311596
823,502.7452222250328
824,502.7313555854457
825,502.7178315349078
826,502.7052323259064
827,502.694086221478
828,502.68486094094254
829,502.67795843859443
830,502.6737109347735
831,502.67237819853807
832,502.6741461078368
833,502.6791265147503
834,502.6873584539375
835,502.69881073834154
836,502.71338593408166
837,502.73092560098934
838,502.75121660876647
839,502.7739983542623
840,502.7989707874556
841,502.8258032160015
842,502.8541438224717
843,502.88362967438394
844,502.9138967851811
845,502.9445895938555
846,502.97536917272674
847,503.00591959368376
848,503.0359521385259
849,503.065207315237
850,503.0934548490047
851,503.12049195818736
852,503.1461403362383
853,503.17024230961624
854,503.19265658269796
855,503.2132538612948
856,503.23191256492635
857,503.24851482863676
858,503.2629430250164
859,503.2750770611847
860,503.284792672687
861,503.29196080387845
862,503.29644796569255
863,503.2981173270649
864,503.2968303484076
865,503.29244898636756
866,503.2848387247524
867,503.2738727425802
868,503.25943737214243
869,503.2414387226369
870,503.2198100763786
871,503.19451949007174
872,503.1655769962957
873,503.13304089150444
874,503.09702274360393
875,503.0576908724847
876,503.01527212562365
877,502.9700518124652
878,502.92237169786745
879,502.87262599538434
880,502.8212553741579
881,502.7687391249665
882,502.71558577163904
883,502.66232246601254
884,502.60948345689275
885,502.5575978833393
886,502.50717720318784
887,502.4587027035919
888,502.4126136456659
889,502.36929657158737
890,502.3290761304377
891,502.29220756534556
892,502.2588709150009
893,502.22916706351555
894,502.203115877365
895,502.18065661843684
896,502.16165060777996
897,502.14588587393064
