frame_number,force
0,499.75378398961095
1,499.77569750928063
2,499.7975891389555
3,499.81943684147495
4,499.84121829402574
5,499.8629107653829
6,499.884491013357
7,499.9059352045885
8,499.92721885756333
9,499.94831680948636
10,499.9692032078527
11,499.98985152763447
12,500.0102346145822
13,500.0303247540472
14,500.0500937631967
15,500.0695131031928
16,500.08855400761524
17,500.1071876242369
18,500.12538516839754
19,500.14311808663473
20,500.16035822863256
21,500.17707802460114
22,500.193250664721
23,500.2088502776238
24,500.2238521057778
25,500.2382326766229
26,500.2519699689399
27,500.26504357400603
28,500.2774348505855
29,500.28912707209605
30,500.30010556394933
31,500.3103578292773
32,500.3198736616395
33,500.32864524335594
34,500.3366672276803
35,500.34393680228726
36,500.35045373078765
37,500.35622036862543
38,500.3612416501483
39,500.3655250450065
40,500.36908048409487
41,500.37192025754194
42,500.3740588891404
43,500.3755129926248
44,500.3763011154427
45,500.376443575576
46,500.37596229674455
47,500.37488064683316
48,500.37322328355594
49,500.3710160102467
50,500.3682856433281
51,500.36505989160065
52,500.36136724610805
53,500.3572368780909
54,500.3526985416212
55,500.34778247707976
56,500.3425193117442
57,500.3369399542515
58,500.33107548038663
59,500.32495700856276
60,500.3186155646201
61,500.3120819369373
62,500.30538652391647
63,500.29855917654635
64,500.29162903905
65,500.28462439052254
66,500.2775724899818
67,500.270499426624
68,500.2634299766068
69,500.256387467618
70,500.249393652892
71,500.242468597012
72,500.2356305764338
73,500.228895997918
74,500.22227933781056
75,500.2157931044345
76,500.2094478251058
77,500.20325205876026
78,500.19721243471594
79,500.1913337172082
80,500.18561889389815
81,500.1800692850301
82,500.17468466892217
83,500.1694634193278
84,500.1644026506166
85,500.15949836720165
86,500.1547456141194
87,500.1501386264799
88,500.14567097662683
89,500.14133571882246
90,500.1371255317865
91,500.1330328594457
92,500.1290500497537
93,500.12516949052036
94,500.1213837403332
95,500.1176856524005
96,500.1140684894355
97,500.1105260281478
98,500.10705265234475
99,500.10364343403353
100,500.10029420206314
101,500.0970015977923
102,500.093763117325
103,500.0905771400993
104,500.0874429437477
105,500.08436070512965
106,500.0813314876346
107,500.0783572153342
108,500.07544063474137
109,500.0725852643803
110,500.0697953315585
111,500.06707569545364
112,500.064431756094
113,500.0618693497025
114,500.0593946319528
115,500.0570139517948
116,500.0547337192471
117,500.05256027059505
118,500.0504997339648
119,500.04855789779606
120,500.04674008461143
121,500.0450510326346
122,500.0434947880624
123,500.04207461095694
124,500.04079289760637
125,500.03965112145113
126,500.03864979299624
127,500.0377884368232
128,500.03706558183814
129,500.0364787600203
130,500.0360245091367
131,500.03569837565743
132,500.035494914956
133,500.03540768647764
134,500.03542924179385
135,500.0355511036053
136,500.03576373427086
137,500.0360564935059
138,500.03641758619597
139,500.03683400237634
140,500.0372914521353
141,500.03777429857564
142,500.03826549206906
143,500.0387465088513
144,500.03919729666546
145,500.0395962299933
146,500.0399200776017
147,500.0401439855062
148,500.04024147877277
149,500.0401844857346
150,500.0399433881392
151,500.0394871003665
152,500.03878318006247
153,500.03779797128766
154,500.03649677965984
155,500.0348440772373
156,500.0328037333776
157,500.03033926674743
158,500.02741411323126
159,500.0239919047248
160,500.020036754469
161,500.01551354531716
162,500.01038821807185
163,500.0046280580778
164,499.9982019798459
165,499.9910808111615
166,499.98323757891944
167,499.97464779822735
168,499.9652897645578
169,499.9551448468903
170,499.94419777856103
171,499.9324369420736
172,499.91985464426966
173,499.90644737863596
174,499.8922160715693
175,499.8771663088307
176,499.8613085374876
177,499.84465823787946
178,499.827236059756
179,499.80906791664296
180,499.7901850324532
181,499.77062393431953
182,499.75042638602423
183,499.72963925797325
184,499.7083143324251
185,499.6865080456699
186,499.6642811710747
187,499.6416984482726
188,499.6188281646932
189,499.59574169621794
190,499.5725130137793
191,499.54921816237567
192,499.5259347188233
193,499.5027412348108
194,499.47971667210726
195,499.45693983681076
196,499.43448881931744
197,499.41244044631014
198,499.39086975054994
199,499.3698494637001
200,499.3494495368702
201,499.32973669308404
202,499.3107740155618
203,499.2926205756022
204,499.275331103773
205,499.2589557077171
206,499.2435396389094
207,499.2291231092889
208,499.2157411573578
209,499.2034235625068
210,499.1921948060203
211,499.18207407718586
212,499.17307532300595
213,499.16520734003717
214,499.1584739066726
215,499.1528739537499
216,499.14840177105236
217,499.14504724730267
218,499.14279614134034
219,499.14163038184626
220,499.1415283921867
221,499.1424654361245
222,499.14441397983546
223,499.14734406615077
224,499.15122369783313
225,499.1560192270133
226,499.16169574713007
227,499.16821748242535
228,499.1755481692775
229,499.1836514236846
230,499.19249108955825
231,499.20203156277717
232,499.2122380862664
233,499.22307701179403
234,499.2345160245988
235,499.2465243274354
236,499.2590727814801
237,499.27213400283176
238,499.28568241454644
239,499.2996942547281
240,499.31414754128275
241,499.329021994208
242,499.34429891728047
243,499.3599610425721
244,499.37599234262694
245,499.3923778157579
246,499.40910324976016
247,499.426154968818
248,499.44351956792576
249,499.46118363882294
250,499.4791334910834
251,499.49735487166873
252,499.5158326863788
253,499.534550727324
254,499.55349141127306
255,499.572635533879
256,499.59196204421875
257,499.6114478430809
258,499.631067607444
259,499.6507936429475
260,499.6705957659038
261,499.69044121624574
262,499.71029460263605
263,499.73011788105214
264,499.7498703687822
265,499.7695087965924
266,499.7889874021271
267,499.80825806698266
268,499.82727049864656
269,499.84597245720227
270,499.8643100257544
271,499.88222792304464
272,499.89966985660834
273,499.9165789147283
274,499.9328979949875
275,499.9485702660864
276,499.9635396576568
277,499.97775137037695
278,499.99115239667873
279,500.003692041718
280,500.0153224352059
281,500.02599902629703
282,500.0356810549962
283,500.04433199414433
284,500.05191995623346
285,500.05841805940855
286,500.0638047472368
287,500.0680640573566
288,500.0711858349366
289,500.0731658875891
290,500.0740060786812
291,500.0737143561922
292,500.0723047149862
293,500.06979709182104
294,500.06621719425567
295,500.06159626644495
296,500.05597079659987
297,500.0493821727752
298,500.0418762953935
299,500.0335031559374
300,500.0243163912127
301,500.0143728216729
302,500.0037319808757
303,499.99245564162254
304,499.9806073432548
305,499.96825192417424
306,499.95545506354364
307,499.9422828359509
308,499.92880128268735
309,499.91507600336206
310,499.9011717717487
311,499.8871521798673
312,499.8730793140747
313,499.85901346595216
314,499.845012878782
315,499.8311335277769
316,499.817428929904
317,499.8039499778628
318,499.7907447926564
319,499.77785859010135
320,499.76533355839143
321,499.75320874591284
322,499.7415199601179
323,499.73029967901687
324,499.7195769768852
325,499.70937746538584
326,499.69972325078277
327,499.69063290766366
328,499.68212146977527
329,499.6742004388976
330,499.66687781261146
331,499.6601581312532
332,499.65404254384396
333,499.64852889290967
334,499.6436118188682
335,499.63928288551176
336,499.6355307284508
337,499.6323412279172
338,499.6296977062365
339,499.6275811489353
340,499.62597044704137
341,499.62484265676346
342,499.62417327159153
343,499.6239365011425
344,499.6241055508175
345,499.62465289657
346,499.6255505499521
347,499.6267703101129
348,499.62828400116007
349,499.63006369458105
350,499.6320819168053
351,499.63431184165546
352,499.6367274670624
353,499.63930377535945
354,499.64201687650774
355,499.644844133703
356,499.64776427143505
357,499.65075746738603
358,499.653805430872
359,499.656891470951
360,499.66000055658884
361,499.6631193699046
362,499.66623635217087
363,499.6693417413199
364,499.67242759934567
365,499.67548782802726
366,499.6785181713578
367,499.6815162025581
368,499.68448129293955
369,499.68741456006666
370,499.69031879416224
371,499.6931983639709
372,499.6960591054373
373,499.69890819813384
374,499.7017540353693
375,499.7046060941843
376,499.7074748107425
377,499.7103714649949
378,499.71330807640936
379,499.71629731067816
380,499.71935239616386
381,499.72248704849903
382,499.72571540196844
383,499.72905194670216
384,499.73251147091526
385,499.736109007091
386,499.7398597800922
387,499.74377915411117
388,499.74788257457124
389,499.7521855005688
390,499.75670332302604
391,499.76145126376014
392,499.7664442517694
393,499.7716967751087
394,499.7772227089556
395,499.78303512234
396,499.7891460677196
397,499.7955663593385
398,499.8023053477505
399,499.8093706985657
400,499.81676818333796
401,499.8245014898372
402,499.8325720580468
403,499.8409789473962
404,499.8497187401776
405,499.8587854856028
406,499.86817068802765
407,499.87786334119795
408,499.8878500082591
409,499.8981149455781
410,499.908640267793
411,499.91940615158256
412,499.93039107547617
413,499.941572092112
414,499.9529251280689
415,499.9644253052213
416,499.97604727661513
417,499.9877655692816
418,499.9995549265926
419,500.01139064388946
420,500.02324889263826
421,500.035107029354
422,500.0469438856181
423,500.0587400353599
424,500.07047803609237
425,500.08214264208806
426,500.0937209887971
427,500.1052027484247
428,500.1165802564205
429,500.12784860813
430,500.1390057245848
431,500.1500523866367
432,500.16099223733204
433,500.17183175336004
434,500.18258018728966
435,500.1932494828775
436,500.20385416597634
437,500.214411213759
438,500.224939905116
439,500.23546165495407
440,500.24599983472353
441,500.25657958117176
442,500.2672275951299
443,500.2779719318391
444,500.2888417838123
445,500.29986725678083
446,500.31107913923097
447,500.3225086664452
448,500.3341872805064
449,500.3461463879736
450,500.35841711673896
451,500.37103007311686
452,500.3840150997531
453,500.397401034562
454,500.4112154705199
455,500.42548451575954
456,500.440232553144
457,500.455481998625
458,500.4712530585907
459,500.48756348824617
460,500.50442835515173
461,500.52185981315813
462,500.5398668914276
463,500.55845530152095
464,500.5776272636201
465,500.59738135130766
466,500.6177123530652
467,500.63861114814915
468,500.6600645949564
469,500.6820554306816
470,500.7045621811575
471,500.7275590797366
472,500.75101599513414
473,500.7748983704424
474,500.7991671777032
475,500.8237788931001
476,500.8486854968078
477,500.8738344998274
478,500.89916899883946
479,500.92462775934706
480,500.95014532655114
481,500.97565216229
482,501.00107480548695
483,501.0263360533869
484,501.05135516150443
485,501.0760480613321
486,501.10032759588927
487,501.124103773627
488,501.1472840411533
489,501.1697735753121
490,501.19147559558536
491,501.21229169820947
492,501.232122213437
493,501.250866587162
494,501.2684237878898
495,501.28469273959854
496,501.29957277997363
497,501.3129641416769
498,501.3247684522668
499,501.3348892466963
500,501.3432324852351
501,501.34970706932637
502,501.3542253485326
503,501.35670361336383
504,501.3570625707653
505,501.35522780031897
506,501.3511301893048
507,501.344706344267
508,501.33589897654264
509,501.32465725965113
510,501.310937157138
511,501.2947017199191
512,501.27592135225314
513,501.25457404546717
514,501.2306455787541
515,501.20412968675635
516,501.1750281940469
517,501.14335111679486
518,501.10911673166476
519,501.0723516113064
520,501.0330906248839
521,500.9913769014234
522,500.94726175368703
523,500.90080456091096
524,500.8520726098775
525,500.80114089495896
526,500.7480918784865
527,500.69301521310564
528,500.63600742802885
529,500.5771715812995
530,500.5166168800188
531,500.4544582697788
532,500.390815993623
533,500.3258151203639
534,500.259585042389
535,500.1922589438378
536,500.12397324061646
537,500.0548669940618
538,499.9850813006936
539,499.9147586615949
540,499.844042336095
541,499.7730756851521
542,499.7020015101346
543,499.63096139280515
544,499.5600950423178
545,499.48953965483105
546,499.41942929069216
547,499.34989427314787
548,499.28106061168324
549,499.21304945283464
550,499.14597656156286
551,499.0799518365112
552,499.0150788622904
553,498.95145450131906
554,498.88916852716403
555,498.82830330126524
556,498.7689334953183
557,498.711125861903
558,498.65493905590534
559,498.60042350902734
560,498.5476213592026
561,498.4965664357941
562,498.4472843001999
563,498.3997923407111
564,498.3540999206806
565,498.31020857985004
566,498.2681122890457
567,498.22779775773853
568,498.1892447923771
569,498.152426701825
570,498.11731074535055
571,498.08385861819846
572,498.05202696911726
573,498.02176794326704
574,497.9930297434658
575,497.9657572033059
576,497.9398923669343
577,497.91537507161075
578,497.8921435304096
579,497.8701349137985
580,497.8492859299875
581,497.8295334041962
582,497.81081485610326
583,497.7930690731179
584,497.77623667499927
585,497.76026066295566
586,497.7450869444629
587,497.730664824634
588,497.71694745619806
589,497.70389224227165
590,497.69146118822647
591,497.67962120057086
592,497.66834433186114
593,497.657607971432
594,497.6473949821889
595,497.63769378380624
596,497.6284983826967
597,497.6198083495693
598,497.61162874644066
599,497.6039700062221
600,497.59684776898035
601,497.5902826794644
602,497.58430015041245
603,497.57893009534433
604,497.5742066332457
605,497.57016776658196
606,497.5668550339828
607,497.5643131392723
608,497.5625895585794
609,497.56173412698735
610,497.56179860598576
611,497.5628362331004
612,497.56490125545247
613,497.56804844945924
614,497.57233262927633
615,497.57780814685077
616,497.5845283867079
617,497.5925452589187
618,497.60190869406875
619,497.6126661443022
620,497.624862094489
621,497.6385375873142
622,497.65372976567625
623,497.67047143513093
624,497.6887906481736
625,497.7087103112146
626,497.73024781463175
627,497.7534146866467
628,497.7782162729278
629,497.80465144521247
630,497.83271234318886
631,497.86238415420524
632,497.89364493529627
633,497.92646548174287
634,497.96080924600113
635,497.99663231034066
636,498.03388341585725
637,498.07250404970085
638,498.11242859157636
639,498.1535845200296
640,498.19589267874807
641,498.2392676027442
642,498.28361790334657
643,498.3288467092561
644,498.3748521589119
645,498.4215279378374
646,498.4687638543523
647,498.5164464482232
648,498.56445962850233
649,498.612685337782
650,498.6610042399585
651,498.70929642750224
652,498.75744214265893
653,498.8053225057745
654,498.8528202436228
655,498.8998204110111
656,498.9462110994118
657,498.9918841266653
658,499.03673570209
659,499.08066706170524
660,499.1235850686849
661,499.1654027746775
662,499.20603993828155
663,499.24542349762646
664,499.28348799456234
665,499.32017594833866
666,499.3554381766572
667,499.3892340615794
668,499.42153175726213
669,499.45230833615153
670,499.48154987006336
671,499.5092514426208
672,499.53541709017423
673,499.56005966976284
674,499.583200654534
675,499.60486985877066
676,499.6251050960056
677,499.64395177469163
678,499.66146243664036
679,499.67769624382777
680,499.69271841912854
681,499.7065996463269
682,499.719415434709
683,499.73124545380085
684,499.74217284431904
685,499.7522835119885
686,499.7616654113643
687,499.7704078271372
688,499.7786006607265
689,499.7863337302992
690,499.79369609247146
691,499.80077539347724
692,499.8076572563841
693,499.81442470933234
694,499.8211576582226
695,499.82793240578974
696,499.83482121748926
697,499.84189193357275
698,499.8492076267264
699,499.85682630536803
700,499.86480066321855
701,499.87317787569054
702,499.8819994433694
703,499.8913010827811
704,499.9011126645207
705,499.9114581981786
706,499.9223558623339
707,499.93381807672927
708,499.94585161313523
709,499.9584577414632
710,499.9716324082293
711,499.98536644539536
712,499.9996458088303
713,500.0144518469956
714,500.02976160157783
715,500.04554814219455
716,500.0617809366208
717,500.07842625626773
718,500.0954476143718
719,500.1128062321198
720,500.1304615262884
721,500.1483716113386
722,500.16649380929016
723,500.184785161522
724,500.2032029371985
725,500.22170513303297
726,500.24025095863567
727,500.25880130094885
728,500.27731916050533
729,500.29577005184535
730,500.3141223606948
731,500.3323476514761
732,500.35042092018415
733,500.3683207894835
734,500.3860296450919
735,500.4035337149532
736,500.42082309487535
737,500.4378917258173
738,500.45473732892816
739,500.47136130505595
740,500.4877686057252
741,500.50396758226645
742,500.5199698189936
743,500.5357899556719
744,500.55144550427553
745,500.56695666467283
746,500.58234614267684
747,500.59763897184376
748,500.612862338226
749,500.6280454058229
750,500.6432191400245
751,500.65841612668646
752,500.6736703852007
753,500.68901717471545
754,500.70449279335327
755,500.72013437089765
756,500.7359796560421
757,500.7520667998634
758,500.7684341375171
759,500.7851199702197
760,500.80216234962
761,500.8195988669327
762,500.8374664494976
763,500.8558011670453
764,500.87463804848204
765,500.89401090788954
766,500.9139521765871
767,500.9344927370997
768,500.95566175478297
769,500.97748650349035
770,500.9999921827635
771,501.02320172525623
772,501.04713559423686
773,501.07181157212847
774,501.09724454240376
775,501.1234462687859
776,501.15042517722077
777,501.1781861469262
778,501.20673031677944
779,501.2360549126234
780,501.26615310010203
781,501.29701386658775
782,501.3286219349401
783,501.3609577116758
784,501.39399727262395
785,501.4277123896112
786,501.46207060148146
787,501.49703533169236
788,501.5325660531015
789,501.568618498588
790,501.6051449141126
791,501.64209434919303
792,501.6794129790749
793,501.71704445320484
794,501.75493026555733
795,501.7930101434094
796,501.83122245205135
797,501.86950461362375
798,501.9077935385385
799,501.94602606757826
800,501.9841394221175
801,502.02207165955053
802,502.05976213084887
803,502.09715193650356
804,502.13418437556953
805,502.17080538051283
806,502.2069639288362
807,502.2426124216596
808,502.2777070197496
809,502.31220792859915
810,502.3460796256091
811,502.3792910241041
812,502.41181557089857
813,502.44363127613775
814,502.47472067571636
815,502.5050707276406
816,502.5346726446172
817,502.56352166634707
818,502.5916167766071
819,502.6189603719908
820,502.6455578906229
821,502.6714174098505
822,502.69654922185265
823,502.7209653955566
824,502.7446793323222
825,502.7677053215375
826,502.79005810077865
827,502.81175242412166
828,502.83280264204336
829,502.85322229686574
830,502.87302373823
831,502.8922177632799
832,502.9108132860861
833,502.9288170405084
834,502.94623332036116
835,502.96306376034613
836,502.97930716047944
837,502.99495935569155
838,503.01001313136965
839,503.0244581851727
840,503.03828113536224
841,503.0514655757021
842,503.0639921762816
843,503.0758388283117
844,503.0869808292984
845,503.0973911035481
846,503.10704045223696
847,503.1158978275362
848,503.12393062629087
849,503.1311049999066
850,503.1373861779296
851,503.1427388033372
852,503.14712727796217
853,503.1505161166063
854,503.15287030799465
855,503.1541556800493
856,503.1543392665263
857,503.1533896720486
858,503.15127743280334
859,503.1479753704146
860,503.1434589364832
861,503.13770654477213
862,503.13069988718627
863,503.1224242292371
864,503.11286868123346
865,503.1020264429133
866,503.0898950207478
867,503.07647641779346
868,503.0617772954944
869,503.0458091057468
870,503.0285881905052
871,503.0101358456741
872,502.9904783462212
873,502.9696469303164
874,502.94767774144765
875,502.92461172846663
876,502.900494504222
877,502.8753761639781
878,502.8493110653032
879,502.82235757158725
880,502.7945777619576
881,502.7660371112443
882,502.73680414453224
883,502.7069500712102
884,502.67654840322643
885,502.64567456205543
886,502.61440547915873
887,502.58281919535233
888,502.5509944649207
889,502.51901037001926
890,502.4869459497896
891,502.4548798472403
892,502.422889976206
893,502.39105321083036
894,502.3594451002651
895,502.3281396106997
896,502.297208895382
897,502.266723091703
