frame_number,force
0,499.7537839877378
1,499.77569750732437
2,499.79758913691217
3,499.8194368393413
4,499.84121829179895
5,499.86291076306054
6,499.88449101093704
7,499.905935202069
8,499.9272188549423
9,499.94831680676197
10,499.96920320502284
11,499.989851524697
12,500.01023461153494
13,500.0303247508884
14,500.0500937599252
15,500.06951309980815
16,500.08855400411824
17,500.10718762062913
18,500.1253851646814
19,500.14311808281303
20,500.16035822470843
21,500.17707802057805
22,500.1932506606029
23,500.20885027341524
24,500.22385210148394
25,500.23823267224935
26,500.25196996449216
27,500.26504356948965
28,500.27743484600643
29,500.28912706746075
30,500.30010555926464
31,500.31035782455035
32,500.319873656878
33,500.3286452385681
34,500.3366672228749
35,500.34393679747296
36,500.3504537259725
37,500.3562203638172
38,500.3612416453544
39,500.36552504023393
40,500.36908047935026
41,500.3719202528317
42,500.37405888447074
43,500.3755129880018
44,500.3763011108721
45,500.3764435710633
46,500.37596229229496
47,500.37488064245065
48,500.37322327924323
49,500.37101600600556
50,500.3682856391595
51,500.36505988750525
52,500.36136724208626
53,500.35723687414264
54,500.35269853774594
55,500.34778247327665
56,500.3425193080122
57,500.3369399505895
58,500.33107547679356
59,500.3249570050372
60,500.3186155611602
61,500.312081933541
62,500.30538652058084
63,500.298559173268
64,500.29162903582517
65,500.2846243873472
66,500.27757248685185
67,500.2704994235353
68,500.2634299735555
69,500.25638746460044
70,500.24939364990473
71,500.2424685940521
72,500.23563057349907
73,500.2288959950068
74,500.22227933492144
75,500.21579310156613
76,500.20944782225666
77,500.2032520559284
78,500.1972124318992
79,500.1913337144041
80,500.1856188911042
81,500.18006928224395
82,500.17468466614196
83,500.16946341655176
84,500.16440264784336
85,500.15949836443076
86,500.15474561135085
87,500.15013862371393
88,500.14567097386384
89,500.14133571606277
90,500.1371255290304
91,500.1330328566933
92,500.1290500470053
93,500.12516948777653
94,500.1213837375947
95,500.11768564966843
96,500.11406848671163
97,500.11052602543447
98,500.1070526496448
99,500.10364343134995
100,500.1002941993986
101,500.0970015951487
102,500.0937631147033
103,500.09057713749957
104,500.0874429411691
105,500.084360702571
106,500.0813314850942
107,500.0783572128098
108,500.07544063223014
109,500.07258526187917
110,500.06979532906365
111,500.06707569296054
112,500.06443175359766
113,500.06186934719767
114,500.0593946294342
115,500.057013949257
116,500.05473371668484
117,500.05256026800305
118,500.0504997313381
119,500.04855789513
120,500.0467400819019
121,500.04505102987804
122,500.04349478525563
123,500.04207460809715
124,500.0407928946908
125,500.03965111847737
126,500.03864978996245
127,500.037788433728
128,500.0370655786809
129,500.0364787568008
130,500.0360245058556
131,500.03569837231584
132,500.0354949115552
133,500.03540768301895
134,500.03542923827877
135,500.0355511000358
136,500.0357637306491
137,500.03605648983415
138,500.0364175824767
139,500.03683399861217
140,500.0372914483295
141,500.0377742947321
142,500.0382654881922
143,500.038746504946
144,500.0391972927366
145,500.0395962260458
146,500.03992007364036
147,500.040143981536
148,500.04024147479873
149,500.0401844817611
150,500.0399433841702
151,500.03948709640537
152,500.03878317611213
153,500.03779796735114
154,500.0364967757401
155,500.0348440733369
156,500.03280372949894
157,500.03033926289305
158,500.0274141094037
159,500.0239919009269
160,500.0200367507035
161,500.01551354158676
162,500.0103882143788
163,500.00462805442385
164,499.9982019762322
165,499.99108080758907
166,499.98323757538856
167,499.9746477947378
168,499.96528976110875
169,499.95514484348047
170,499.9441977751888
171,499.932436938737
172,499.91985464096655
173,499.9064473753643
174,499.892216068327
175,499.8771663056158
176,499.86130853429836
177,499.84465823471373
178,499.8272360566113
179,499.80906791351646
180,499.79018502934156
181,499.77062393121923
182,499.7504263829323
183,499.7296392548869
184,499.70831432934193
185,499.6865080425879
186,499.66428116799216
187,499.64169844518796
188,499.61882816160477
189,499.59574169312424
190,499.5725130106787
191,499.54921815926616
192,499.5259347157024
193,499.5027412316754
194,499.47971666895364
195,499.4569398336353
196,499.4344888161167
197,499.4124404430807
198,499.39086974728866
199,499.36984946040457
200,499.3494495335387
201,499.3297366897158
202,499.3107740121567
203,499.2926205721602
204,499.27533110029384
205,499.2589557042003
206,499.2435396353543
207,499.2291231056948
208,499.2157411537233
209,499.2034235588303
210,499.1921948023005
211,499.1820740734214
212,499.17307531919585
213,499.165207336181
214,499.1584739027704
215,499.1528739498017
216,499.1484017670579
217,499.1450472432615
218,499.1427961372514
219,499.14163037770817
220,499.1415283879981
221,499.1424654318843
222,499.14441397554305
223,499.14734406180617
224,499.1512236934371
225,499.1560192225673
226,499.1616957426362
227,499.1682174778859
228,499.17554816469504
229,499.18365141906224
230,499.1924910848998
231,499.202031558087
232,499.21223808154934
233,499.2230770070553
234,499.2345160198434
235,499.2465243226682
236,499.2590727767062
237,499.27213399805646
238,499.2856824097753
239,499.29969424996693
240,499.3141475365378
241,499.3290219894855
242,499.3442989125867
243,499.3599610379129
244,499.37599233800825
245,499.39237781118567
246,499.40910324524026
247,499.42615496435593
248,499.4435195635264
249,499.4611836344904
250,499.4791334868208
251,499.49735486747824
252,499.51583268226193
253,499.53455072328177
254,499.5534914073059
255,499.57263552998666
256,499.5919620404003
257,499.611447839335
258,499.6310676037688
259,499.65079363934075
260,499.67059576236255
261,499.69044121276727
262,499.71029459921755
263,499.7301178776907
264,499.74987036547464
265,499.7695087933355
266,499.7889873989174
267,499.80825806381665
268,499.8272704955204
269,499.84597245411226
270,499.8643100226969
271,499.88222792001585
272,499.8996698536043
273,499.9165789117451
274,499.93289799202125
275,499.948570263133
276,499.96353965471195
277,499.9777513674362
278,499.99115239373725
279,500.0036920387711
280,500.0153224322492
281,500.0259990233265
282,500.03568105200816
283,500.04433199113515
284,500.05191995319973
285,500.0584180563474
286,500.0638047441465
287,500.0680640542364
288,500.0711858317864
289,500.0731658844091
290,500.0740060754722
291,500.0737143529556
292,500.0723047117241
293,500.06979708853623
294,500.0662171909518
295,500.0615962631265
296,500.0559707932719
297,500.0493821694437
298,500.0418762920647
299,500.03350315261764
300,500.02431638790785
301,500.01437281838855
302,500.0037319776169
303,499.99245563839366
304,499.9806073400596
305,499.96825192101596
306,499.9554550604254
307,499.9422828328757
308,499.92880127965805
309,499.9150760003808
310,499.9011717688171
311,499.8871521769868
312,499.8730793112465
313,499.85901346317723
314,499.845012876061
315,499.83113352511015
316,499.8174289272913
317,499.80394997530374
318,499.79074479015037
319,499.777858587648
320,499.76533355599065
321,499.75320874356464
322,499.7415199578221
323,499.7302996767729
324,499.7195769746919
325,499.7093774632412
326,499.69972324868417
327,499.6906329056082
328,499.68212146776
329,499.6742004369197
330,499.6668778106682
331,499.66015812934194
332,499.654042541962
333,499.64852889105424
334,499.6436118170362
335,499.6392828836998
336,499.6355307266555
337,499.63234122613505
338,499.6296977044643
339,499.62758114717013
340,499.625970445281
341,499.6248426550062
342,499.6241732698366
343,499.6239364993898
344,499.6241055490671
345,499.62465289482236
346,499.6255505482075
347,499.6267703083715
348,499.62828399942185
349,499.63006369284636
350,499.6320819150744
351,499.6343118399287
352,499.63672746534
353,499.6393037736419
354,499.6420168747962
355,499.6448441319985
356,499.64776426973924
357,499.6507574657008
358,499.65380542919917
359,499.6568914692922
360,499.66000055494544
361,499.6631193682774
362,499.66623635056015
363,499.66934173972584
364,499.6724275977684
365,499.6754878264666
366,499.67851816981323
367,499.6815162010286
368,499.68448129142377
369,499.687414558563
370,499.69031879266885
371,499.693198362486
372,499.69605910395904
373,499.69890819666045
374,499.70175403389914
375,499.70460609271606
376,499.7074748092752
377,499.7103714635277
378,499.71330807494127
379,499.7162973092083
380,499.7193523946912
381,499.7224870470224
382,499.7257154004862
383,499.7290519452128
384,499.7325114694175
385,499.73610900558367
386,499.73985977857444
387,499.7437791525823
388,499.7478825730308
389,499.75218549901666
390,499.7567033214621
391,499.76145126218427
392,499.7664442501815
393,499.77169677350867
394,499.7772227073429
395,499.78303512071346
396,499.7891460660778
397,499.7955663576796
398,499.8023053460724
399,499.809370696866
400,499.81676818161395
401,499.8245014880863
402,499.83257205626643
403,499.8409789455838
404,499.84971873833064
405,499.85878548371875
406,499.86817068610367
407,499.87786333923066
408,499.8878500062447
409,499.8981149435128
410,499.9086402656725
411,499.9194061494023
412,499.9303910732312
413,499.9415720897973
414,499.95292512567926
415,499.96442530275107
416,499.9760472740585
417,499.98776556663273
418,499.99955492384635
419,500.011390641041
420,500.023248889683
421,500.03510702628705
422,500.0469438824351
423,500.0587400320566
424,500.0704780326651
425,500.0821426385339
426,500.0937209851144
427,500.105202744613
428,500.11658025248045
429,500.1278486040637
430,500.13900572039563
431,500.1500523823292
432,500.1609922329117
433,500.17183174883286
434,500.18258018266164
435,500.19324947815477
436,500.2038541611652
437,500.21441120886624
438,500.2249399001487
439,500.2354616499192
440,500.24599982962826
441,500.25657957602346
442,500.2672275899361
443,500.2779719266076
444,500.288841778551
445,500.29986725149746
446,500.3110791339331
447,500.3225086611403
448,500.33418727520217
449,500.34614638267766
450,500.3584171114589
451,500.3710300678599
452,500.3840150945261
453,500.3974010293713
454,500.4112154653711
455,500.42548451065704
456,500.4402325480912
457,500.45548199362383
458,500.4712530536423
459,500.48756348335047
460,500.5044283503081
461,500.5218598083655
462,500.5398668866844
463,500.5584552968255
464,500.57762725897095
465,500.59738134670357
466,500.61771234850534
467,500.63861114363294
468,500.66006459048396
469,500.6820554262537
470,500.70456217677594
471,500.72755907540363
472,500.7510159908523
473,500.7748983662146
474,500.7991671735327
475,500.82377888899015
476,500.84868549276183
477,500.87383449584934
478,500.89916899493335
479,500.9246277555168
480,500.9501453228005
481,500.9756521586229
482,501.00107480190735
483,501.0263360498986
484,501.0513551581109
485,501.07604805803646
486,501.1003275926944
487,501.12410377053556
488,501.1472840381678
489,501.16977357243434
490,501.19147559281606
491,501.21229169554823
492,501.2321222108815
493,501.2508665847086
494,501.2684237855328
495,501.2846927373306
496,501.2995727777862
497,501.3129641395607
498,501.3247684502118
499,501.33488924469253
500,501.34323248327274
501,501.34970706739597
502,501.35422534662473
503,501.35670361146913
504,501.35706256887494
505,501.3552277984247
506,501.351130187399
507,501.34470634234265
508,501.33589897459296
509,501.32465725767
510,501.31093715512
511,501.29470171785897
512,501.27592135014606
513,501.25457404330865
514,501.2306455765398
515,501.2041296844823
516,501.17502819171
517,501.14335111439243
518,501.10911672919497
519,501.0723516087689
520,501.0330906222801
521,500.99137689875613
522,500.94726175096065
523,500.9008045581304
524,500.85207260704817
525,500.801140892087
526,500.7480918755788
527,500.69301521016985
528,500.6360074250728
529,500.577171578331
530,500.5166168770454
531,500.4544582668078
532,500.3908159906612
533,500.3258151174176
534,500.25958503946407
535,500.19225894094006
536,500.1239732377518
537,500.0548669912357
538,499.9850812979116
539,499.91475865886196
540,499.84404233341553
541,499.77307568252996
542,499.70200150757336
543,499.6309613903081
544,499.5600950398878
545,499.4895396524704
546,499.4194292884023
547,499.3498942709293
548,499.28106060953604
549,499.21304945075855
550,499.1459765595572
551,499.07995183457535
552,499.01507886042384
553,498.951454499521
554,498.88916852543383
555,498.8283032996023
556,498.7689334937223
557,498.71112586037367
558,498.6549390544427
559,498.6004235076314
560,498.54762135787337
561,498.49656643453153
562,498.447284299004
563,498.3997923395817
564,498.3540999196173
565,498.3102085788518
566,498.2681122881109
567,498.22779775686496
568,498.18924479156186
569,498.15242670106505
570,498.11731074464274
571,498.0838586175396
572,498.0520269685042
573,498.0217679426967
574,497.9930297429348
575,497.9657572028103
576,497.93989236646973
577,497.91537507117255
578,497.892143529993
579,497.8701349133984
580,497.84928592959835
581,497.8295334038124
582,497.81081485571895
583,497.793069072727
584,497.7762366745955
585,497.7602606625328
586,497.7450869440146
587,497.7306648241538
588,497.7169474556798
589,497.7038922417099
590,497.6914611876163
591,497.67962119990756
592,497.66834433114064
593,497.65760797065116
594,497.64739498134554
595,497.6376937828987
596,497.6284983817238
597,497.61980834853017
598,497.61162874533466
599,497.60397000504923
600,497.59684776774094
601,497.59028267815887
602,497.5843001490416
603,497.57893009390904
604,497.5742066317468
605,497.57016776502047
606,497.56685503235985
607,497.5643131375893
608,497.56258955683757
609,497.5617341251881
610,497.56179860413056
611,497.56283623119094
612,497.5649012534907
613,497.56804844744744
614,497.5723326272169
615,497.5778081447467
616,497.5845283845625
617,497.5925452567357
618,497.6019086918525
619,497.61266614205687
620,497.6248620922192
621,497.63853758502455
622,497.65372976337187
623,497.67047143281735
624,497.68879064585667
625,497.7087103089003
626,497.7302478123264
627,497.7534146843567
628,497.7782162706597
629,497.8046514429728
630,497.8327123409839
631,497.862384152041
632,497.89364493317805
633,497.9264654796754
634,497.9608092439886
635,497.9966323083867
636,498.0338834139649
637,498.07250404787254
638,498.1124285898144
639,498.153584518336
640,498.1958926771244
641,498.2392676011913
642,498.28361790186443
643,498.32884670784415
644,498.37485215756936
645,498.42152793656305
646,498.46876385314425
647,498.5164464470791
648,498.5644596274191
649,498.61268533675616
650,498.66100423898615
651,498.7092964265793
652,498.7574421417811
653,498.8053225049375
654,498.8528202428225
655,498.89982041024336
656,498.94621109867245
657,498.99188412595
658,499.0367357013942
659,499.08066706102426
660,499.12358506801417
661,499.1654027740124
662,499.2060399376176
663,499.2454234969591
664,499.28348799388715
665,499.3201759476515
666,499.35543817595374
667,499.38923406085513
668,499.4215317565123
669,499.4523083353708
670,499.48154986924624
671,499.50925144176165
672,499.5354170892672
673,499.5600596688018
674,499.5832006535129
675,499.6048698576835
676,499.62510509484645
677,499.6439517734549
678,499.66146243532074
679,499.6776962424202
680,499.6927184176281
681,499.70659964472907
682,499.71941543301006
683,499.7312454519978
684,499.7421728424097
685,499.75228350997173
686,499.76166540924
687,499.77040782490616
688,499.77860065839013
689,499.7863337278598
690,499.79369608993227
691,499.80077539084203
692,499.8076572536572
693,499.8144247065189
694,499.82115765532825
695,499.8279324028209
696,499.8348212144528
697,499.841891930476
698,499.8492076235776
699,499.8568263021764
700,499.8648006599942
701,499.8731778724444
702,499.88199944011234
703,499.8913010795239
704,499.9011126612738
705,499.91145819495205
706,499.9223558591369
707,499.93381807357014
708,499.94585161002163
709,499.958457738402
710,499.9716324052265
711,499.98536644245564
712,499.9996458059573
713,500.01445184419197
714,500.02976159884497
715,500.04554813953246
716,500.0617809340277
717,500.07842625374
718,500.0954476119044
719,500.11280622970656
720,500.1304615239227
721,500.14837160901345
722,500.16649380699863
723,500.1847851592568
724,500.20320293495274
725,500.22170513079993
726,500.24025095640917
727,500.2588012987234
728,500.2773191582761
729,500.295770049608
730,500.31412235844556
731,500.33234764921195
732,500.35042091790285
733,500.3683207871838
734,500.3860296427731
735,500.4035337126151
736,500.4208230925182
737,500.4378917234416
738,500.45473732653466
739,500.4713613026451
740,500.48776860329735
741,500.5039675798219
742,500.5199698165324
743,500.5357899531942
744,500.55144550178176
745,500.5669566621633
746,500.58234614015197
747,500.597638969304
748,500.61286233567216
749,500.6280454032561
750,500.64321913744584
751,500.65841612409673
752,500.67367038260033
753,500.6890171721047
754,500.7044927907324
755,500.7201343682672
756,500.735979653403
757,500.7520667972163
758,500.76843413486296
759,500.78511996755987
760,500.8021623469563
761,500.8195988642675
762,500.8374664468336
763,500.85580116438564
764,500.8746380458297
765,500.89401090524717
766,500.91395217395666
767,500.9344927344825
768,500.95566175218005
769,500.9774865009024
770,500.9999921801908
771,501.023201722699
772,501.0471355916953
773,501.07181156960314
774,501.0972445398958
775,501.12344626629664
776,501.15042517475166
777,501.17818614447924
778,501.2067303143572
779,501.2360549102282
780,501.26615309773644
781,501.29701386425415
782,501.3286219326407
783,501.36095770941307
784,501.39399727040023
785,501.4277123874288
786,501.46207059934284
787,501.49703532959984
788,501.532566051057
789,501.5686184965933
790,501.6051449121689
791,501.6420943473014
792,501.67941297723627
793,501.71704445141995
794,501.75493026382657
795,501.7930101417327
796,501.83122245042864
797,501.8695046120547
798,501.90779353702266
799,501.9460260661151
800,501.9841394207067
801,502.02207165819163
802,502.0597621295416
803,502.0971519352479
804,502.1341843743658
805,502.1708053793614
806,502.2069639277373
807,502.2426124206131
808,502.27770701875545
809,502.3122079276573
810,502.34607962471915
811,502.3792910232655
812,502.41181557011055
813,502.44363127539896
814,502.4747206750247
815,502.5050707269935
816,502.53467264401195
817,502.563521665781
818,502.5916167760777
819,502.6189603714953
820,502.6455578901586
821,502.6714174094145
822,502.6965492214421
823,502.72096539516895
824,502.74467933195507
825,502.7677053211888
826,502.79005810044674
827,502.8117524238049
828,502.83280264173976
829,502.85322229657294
830,502.8730237379452
831,502.8922177629995
832,502.9108132858059
833,502.92881704022335
834,502.9462333200657
835,502.96306376003423
836,502.97930716014463
837,502.99495935532707
838,503.01001313096856
839,503.02445818472825
840,503.0382811348679
841,503.05146557515116
842,503.06399217566747
843,503.07583882762765
844,503.0869808285375
845,503.0973911027032
846,503.10704045130103
847,503.11589782650236
848,503.12393062515264
849,503.13110499865775
850,503.1373861765644
851,503.1427388018504
852,503.147127276349
853,503.15051611486257
854,503.1528703061169
855,503.1541556780347
856,503.1543392643728
857,503.1533896697549
858,503.15127743036857
859,503.1479753678386
860,503.1434589337671
861,503.13770654191796
862,503.1306998841974
863,503.1224242261178
864,503.1128686779891
865,503.1020264395506
866,503.0898950172746
867,503.07647641421863
868,503.0617772918274
869,503.0458091019981
870,503.028588186686
871,503.0101358417965
872,502.9904783422982
873,502.9696469263612
874,502.94767773747355
875,502.92461172448697
876,502.90049450024986
877,502.8753761600263
878,502.84931106138396
879,502.822357567712
880,502.79457775813665
881,502.7660371074871
882,502.7368041408474
883,502.70695006760565
884,502.6765483997089
885,502.6456745586305
886,502.61440547583044
887,502.5828191921235
888,502.5509944617935
889,502.519010366995
890,502.4869459468692
891,502.4548798444245
892,502.4228899734954
893,502.3910532082252
894,502.35944509776544
895,502.32813960830543
896,502.29720889309283
897,502.26672308951834
