acceleration,velocity,displacement
-0.004349772231278237,0.0,0.0
-0.003919807886414775,-2.067395029423253e-06,-5.168487573558132e-10
-0.003490273044395258,-3.919915262125761e-06,-2.0136763302430666e-09
-0.0030616000955066623,-5.557883547101241e-06,-4.383126032549817e-09
-0.0026342270348197155,-6.9818403296828355e-06,-7.518057001745836e-09
-0.0022085998708395544,-8.192547056097652e-06,-1.1311653848190958e-08
-0.0017851746376837427,-9.190990683228476e-06,-1.5657538283022492e-08
-0.001364418968803555,-9.9783890848503e-06,-2.0449883225042185e-08
-0.0009468132150669875,-1.0556197130817936e-05,-2.5583529778959243e-08
-0.0005328510947297242,-1.0926113208267113e-05,-3.0954107363730504e-08
-0.00012303985882520935,-1.1090085946655846e-05,-3.645815715246125e-08
0.000282100046069867,-1.1050320899844682e-05,-4.199325886408638e-08
0.000682035827447049,-1.0809286931465452e-05,-4.745816082191391e-08
0.0010762236972317834,-1.0369722050295744e-05,-5.275291306735421e-08
0.0014641106811333312,-9.734638455704465e-06,-5.7779003193854265e-08
0.0018451368196993171,-8.907326580496303e-06,-6.243949445290445e-08
0.0022187376881015928,-7.891357953546076e-06,-6.663916558641505e-08
0.002584347177891298,-6.6905867370478536e-06,-7.028465175906353e-08
0.002941400506346649,-5.309149815988367e-06,-7.328458589732259e-08
0.003289337427061731,-3.7514653326362717e-06,-7.554973968447875e-08
0.0036276056037515903,-2.0222295749329414e-06,-7.699316341137106e-08
0.003955664090610793,-1.264121513423454e-07,-7.753032384293987e-08
0.004272986853188306,1.930750584607429e-06,-7.70792392346236e-08
0.004579066270347611,4.1437638654914076e-06,-7.55606106220989e-08
0.004873416575501986,6.506884576953807e-06,-7.28979485114876e-08
0.005155577214439252,9.014133024439116e-06,-6.901769411113937e-08
0.005425116109642346,1.1659306355459514e-05,-6.384933426616471e-08
0.005681632822329235,1.443599358845241e-05,-5.732550928018673e-08
0.005924761593520474,1.7337592192414836e-05,-4.938211283496992e-08
0.006154174231583738,2.035732614869089e-05,-3.9958383249693487e-08
0.006369582806979218,2.348826540833163e-05,-2.8996985360437854e-08
0.006570742119134582,2.672334663986008e-05,-1.6444082348389927e-08
0.006757451907875367,3.0055395146612567e-05,-2.249396901771763e-09
0.006929558782807031,3.3477147819283166e-05,1.3633738839702169e-08
0.007086957835631966,3.6981276973892915e-05,3.124834503799619e-08
0.007229593885817614,4.056041490425531e-05,5.063376800753325e-08
0.007357462295168965,4.420717894950196e-05,7.182566647097256e-08
0.007470609279758639,4.791419684323386e-05,9.485601041915651e-08
0.007569131656230025,5.167413207723103e-05,1.1975309264927274e-07
0.00765317598630137,5.5479708987863876e-05,1.4654155291554646e-07
0.007722937123681122,5.93237372653595e-05,1.752424144788523e-07
0.0077786562125155955,6.319913559940868e-05,2.0587313269504436e-07
0.007820618223590075,6.70989542084351e-05,2.384476551470053e-07
0.007849149134365026,7.101639604792388e-05,2.7297649271109504e-07
0.00786461286360566,7.494483654741655e-05,3.0946680085993015e-07
0.007867408069667759,7.88778417807349e-05,3.47922470441968e-07
0.00785796491702805,8.280918502740885e-05,3.8834422714400394e-07
0.007836741906053355,8.673286173317921e-05,4.3072973883415095e-07
0.007804222844801636,9.064310292089295e-05,4.75073729997669e-07
0.007760914019497644,9.453438713696777e-05,5.213681025121341e-07
0.007707341594148287,9.840145104037926e-05,5.696020620564709e-07
0.007644049242080386,0.00010223929874943643,6.197622495039248e-07
0.007571595984988661,0.00010604321005620369,6.718328767053348e-07
0.007490554190679627,0.00010980874760012076,7.257958661194159e-07
0.0074015076626734585,0.00011353176306345903,7.816309937853109e-07
0.0073050497463405025,0.00011720840241571252,8.393160351551038e-07
0.007201781378340381,0.00012083511019688274,8.988269133082526e-07
0.007092309015878383,0.00012440863279543742,9.601378490563327e-07
0.006977242395763633,0.00012792602064834793,1.023221512417279e-06
0.0068571920912068535,0.00013138462927009056,1.0880491748968888e-06
0.006732766859043441,0.00013478211900765314,1.1545908619663247e-06
0.00660457079689218,0.00013811645342163705,1.2228155050736474e-06
0.0064732003506421405,0.00014138589620852062,1.2926910924811867e-06
0.0063392412254128505,0.00014458900660253436,1.3641848181839506e-06
0.006203265258902463,0.0001477246332236132,1.4372632281404874e-06
0.006065827314170404,0.00015079190636688142,1.511892363038111e-06
0.005927462239379536,0.0001537902287552689,1.5880378968186486e-06
0.005788681929668403,0.0001567192647975309,1.6656652702068484e-06
0.0056499725171026745,0.00015957892840922367,1.744739818508537e-06
0.005511791713371116,0.00016236936946684212,1.8252268929775534e-06
0.005374566337873834,0.00016509095897965337,1.9070919750891772e-06
0.005238690077054818,0.00016774427308338555,1.990300783104937e-06
0.005104521532579604,0.00017033007598579416,2.074819370372232e-06
0.004972382620894203,0.0001728493020241626,2.160614214874721e-06
0.004842557381843096,0.00017530303702484695,2.2476522996369734e-06
0.004715291240764001,0.0001776924991804987,2.3359011836883097e-06
0.00459079075372477,0.0001800190196791209,2.4253290634032148e-06
0.00446922385527446,0.0001822840233313707,2.5159048241558376e-06
0.0043507206190108024,0.000184489009449942,2.6075980823511657e-06
0.004235374523810395,0.0001866355332356473,2.700379218022563e-06
0.004123244190458469,0.0001887251879142145,2.7942193983100286e-06
0.004014355523422925,0.00019075958784268486,2.8890905922492536e-06
0.003908704173100703,0.00019274035276681576,2.984965577401629e-06
0.0038062582309713964,0.00019466909336783377,3.081817938935291e-06
0.0037069610781969354,0.00019654739819512587,3.179622061826031e-06
0.0036107343175347645,0.0001983768220440588,3.278353116885827e-06
0.003517480727839643,0.0002001588758054024,3.3779870413481924e-06
0.0034270871964274044,0.00020189501778646916,3.4785005147461604e-06
0.0033394276064979155,0.00020358664648720048,3.5798709308145776e-06
0.0032543656759901904,0.00020523509480782252,3.6820763661383335e-06
0.0031717577543385425,0.0002068416256654047,3.78509554625664e-06
0.0030914555841094577,0.0002084074290000167,3.888907809922996e-06
0.003013309024792225,0.0002099336201522421,3.9934930722110605e-06
0.0029371687178957207,0.0002114212395879141,4.0988317871460995e-06
0.0028628886557493477,0.00021287125393132535,4.20490491052591e-06
0.0027903286114262446,0.00021428455824811925,4.311693863570771e-06
0.0027193563928905357,0.00021566197949919843,4.4191804980076e-06
0.0026498498932056177,0.00021700428107072247,4.52734706315008e-06
0.0025816989172764097,0.00021831216827334298,4.636176175486096e-06
0.0025148067731436624,0.000219586294695948,4.7456507912284194e-06
0.002449091618804016,0.00022082726929393493,4.85575418222589e-06
0.002384487554467715,0.00022203566408725286,4.966469915571187e-06
0.0023209454512667146,0.00022321202233868646,5.077781837177672e-06
0.0022584335121994797,0.000224356867079553,5.189674059532232e-06
0.0021969375637019657,0.00022547070984852837,5.302130953764252e-06
0.002136461075919719,0.00022655405950843378,5.415137146103492e-06
0.002077024913567118,0.00022760743100580549,5.528677518732052e-06
0.0020186668287712336,0.00022863135394139009,5.6427372149688506e-06
0.001961440710747481,0.00022962638082626977,5.757301648660765e-06
0.0019054155963222248,0.0002305930949030372,5.872356517593092e-06
0.001850674429322663,0.0002315321174094484,5.987887820671214e-06
0.00179731255147733,0.0002324441141546484,6.103881878562238e-06
0.0017454359165292278,0.00023332980127165005,6.220325357418813e-06
0.0016951590367841815,0.00023418995000997842,6.33720529523922e-06
0.0016466026924836178,0.00023502539044229536,6.454509130352288e-06
0.001599891456130826,0.00023583701397944897,6.572224731457724e-06
0.0015551510984647629,0.00023662577461809787,6.690340428607111e-06
0.0015125059435015379,0.00023739268887858946,6.808845044481283e-06
0.0014720762309805217,0.00023813883442220997,6.927727925306483e-06
0.0014339755356651428,0.0002388653473638714,7.046978970753003e-06
0.0013983082905828232,0.0002395734183204334,7.1665886621740795e-06
0.0013651674642541612,0.00024026428725914265,7.286548088568974e-06
0.0013346324469614452,0.00024093923723694655,7.406848969692996e-06
0.0013067672042685408,0.00024159958714975406,7.527483675789671e-06
0.0012816187536564185,0.0002422466836392353,7.648445243486918e-06
0.0012592160054509239,0.00024288189232901213,7.76972738747898e-06
0.0012395689762638292,0.00024350658857444084,7.891324507704843e-06
0.0012226683379351897,0.0002441221479029906,8.0132316918242e-06
0.0012084852262019823,0.0002447299362940249,8.135444712873454e-06
0.0011969712161308962,0.00024533130040460814,8.257960022048112e-06
0.0011880583753939471,0.00024592755780248937,8.380774736599887e-06
0.0011816593214577578,0.0002465199872267023,8.503886622857184e-06
0.0011776672255139548,0.0002471098188634452,8.627294074379721e-06
0.0011759557176800942,0.00024769822459924374,8.750996085245393e-06
0.001176378652623544,0.0002482863081918196,8.874992218443158e-06
0.0011787696975813946,0.00024887509527937084,8.999282569310955e-06
0.001182941714859879,0.00024946552313248117,9.123867723913919e-06
0.0011886859318358412,0.0002500584300441551,9.248748712208078e-06
0.001195770917014758,0.0002506545442563678,9.373926955783209e-06
0.0012039414023705445,0.0002512544723362141,9.499404209931355e-06
0.001212917006094855,0.0002518586869383305,9.62518249974999e-06
0.0012223909172280095,0.00025246751391916117,9.751264049964364e-06
0.0012320286056623872,0.0002530811187998838,9.877651208144125e-06
0.001241466617324128,0.0002536994926056304,1.0004346360995504e-05
0.0012503115076347526,0.0002543224371368701,1.013135184343113e-05
0.001258138963112095,0.00025494954975455685,1.0258669840153987e-05
0.001264493164603636,0.00025558020778648576,1.0386302279539248e-05
0.0012688864530154037,0.00025621355269089054,1.0514250719658593e-05
0.0012707993646621214,0.00025684847414530993,1.0642516226367643e-05
0.0012696811064113603,0.0002574835942630783,1.077109924346974e-05
0.0012649505396345093,0.00025811725217458973,1.0899999455079157e-05
0.0012559977345359462,0.00025874748924313237,1.1029215640433587e-05
0.0012421861408975807,0.0002593720352119908,1.1158745521547368e-05
0.001222855396796841,0.0002599882955964144,1.1288585604249469e-05
0.0011973247650616697,0.000260593340636879,1.1418731013307792e-05
0.0011648971532745675,0.00026118389611646305,1.1549175322496127e-05
0.0011248636434534063,0.00026175633631564507,1.1679910380604154e-05
0.0010765084367303911,0.000262306679335691,1.1810926134516987e-05
0.0010191141099677918,0.00026283058497236555,1.1942210450594002e-05
0.0009519670859624103,0.0002633233552713481,1.207374893565493e-05
0.0008743632319623335,0.0002637799378508293,1.2205524758935476e-05
0.0007856135157477176,0.0002641949320377568,1.2337518476407622e-05
0.0006850496630778416,0.0002645625978324632,1.2469707858875177e-05
0.0005720297809200636,0.0002648768676934627,1.260206772525666e-05
0.0004459439420484645,0.0002651313611242048,1.2734569782461076e-05
0.00030621975953097706,0.0002653194020495997,1.2867182473254528e-05
0.00015232799507101642,0.0002654340389882502,1.299987083351399e-05
-1.6211768495303145e-05,0.0002654680680448941,1.3132596360272277e-05
-0.00019982539489723938,0.00026541405875404596,1.3265316891972011e-05
-0.00039887844269745814,0.0002652643827946473,1.3397986502359184e-05
-0.0006136704585399142,0.000265011245569338,1.3530555409450181e-05
-0.0008444293888918346,0.00026464672060748005,1.3662969900994385e-05
-0.0010913061809276821,0.0002641627867150252,1.3795172277825012e-05
-0.001354369635810621,0.0002635513677608406,1.392710081644398e-05
-0.0016336015767436684,0.00026280437495770204,1.4058689752123615e-05
-0.0019288924057185752,0.00026191375146208647,1.4189869283728563e-05
-0.002240037141211882,0.00026087151907535386,1.4320565601362922e-05
-0.002566732044073107,0.00025966982677903263,1.445070093782652e-05
-0.0029085719463449984,0.0002583010007814281,1.4580193644716635e-05
-0.003265048399718737,0.00025675759569491216,1.470895829383572e-05
-0.003635548760982799,0.0002550324464047368,1.4836905804360632e-05
-0.004019356332639483,0.00025311872013133123,1.4963943595994649e-05
-0.004415651669074804,0.00025100996813090266,1.5089975768060208e-05
-0.004823515127809838,0.0002487001764316815,1.5214903304200853e-05
-0.005241930691086646,0.0002461838149769574,1.5338624302053014e-05
-0.0056697910245700105,0.00024345588454804324,1.5461034226934265e-05
-0.006105903696300301,0.00024051196086782566,1.5582026188288233e-05
-0.006548998452365412,0.00023734823533065922,1.5701491237337853e-05
-0.006997735427675893,0.0002339615518606489,1.581931868413568e-05
-0.007450714158738432,0.0002303494394640453,1.5935396431966853e-05
-0.00790648326466818,0.00022651014010819365,1.6049611326859914e-05
-0.008363550669413586,0.00022244263162467321,1.616184951979313e-05
-0.008820394241186608,0.00021814664539702316,1.6271996839048556e-05
-0.009275472720268504,0.0002136226786566594,1.6379939170061975e-05
-0.009727236800762484,0.00020887200127640165,1.648556284004524e-05
-0.01017414023117746,0.00020389665701841666,1.6588755004618945e-05
-0.010614650802780245,0.00019869945925992722,1.668940403368853e-05
-0.011047261102110543,0.00019328398128370453,1.6787399893824438e-05
-0.01147049891417581,0.00018765454127963295,1.6882634524465274e-05
-0.011882937173728538,0.00018181618225765687,1.6975002205349597e-05
-0.012283203372660943,0.0001757746471210595,1.7064399912694277e-05
-0.01266998834100997,0.00016953634919264176,1.7150727661772702e-05
-0.013042054325268889,0.00016310833852607205,1.723388883370238e-05
-0.013398242289701622,0.00015649826437232943,1.731379048442698e-05
-0.01373747836789948,0.00014971433420792914,1.7390343634072045e-05
-0.014058779399686383,0.00014276526976603267,1.7463463535065534e-05
-0.014361257507575184,0.00013566026053921727,1.7533069917641846e-05
-0.014644123694623225,0.00012840891523866767,1.7599087211586316e-05
-0.01490669047170742,0.00012102121169708501,1.7661444743320255e-05
-0.015148373538525071,0.0001135074456945269,1.7720076907668158e-05
-0.015368692548709628,0.00010587817917271823,1.777492331388497e-05
-0.015567270989970303,9.814418828804824e-05,1.782592890575016e-05
-0.01574383520868895,9.031641173838343e-05,1.7873044055756767e-05
-0.015898212607946886,8.240589978422447e-05,1.7916224633637418e-05
-0.016030329052027593,7.442376436923085e-05,1.795543204967578e-05
-0.016140205518925414,6.638113072649259e-05,1.799063327344971e-05
-0.016227954048591637,5.828909083461333e-05,1.8021800828839988e-05
-0.016293773034024683,5.015865906395925e-05,1.8048912766314633e-05
-0.01633794190050994,4.200073033032559e-05,1.8071952613663205e-05
-0.01636081522472898,3.382604104901586e-05,1.809090930650804e-05
-0.016362816360999934,2.5645133152583634e-05,1.8105777100058443e-05
-0.01634443065809853,1.7468321397809018e-05,1.811655546369604e-05
-0.016306198356146644,9.305664144247723e-06,1.8123248960081553e-05
-0.01624870724361501,1.1669377443073107e-06,1.8125867110553692e-05
-0.01617258513708114,-6.938385350866727e-06,1.8124424248652052e-05
-0.01607849224010964,-1.5001154695164423e-05,1.8118939363640545e-05
-0.01596711345301488,-2.3012556118445554e-05,1.810943593593714e-05
-0.015839150730599248,-3.096412216434908e-05,1.809594176636644e-05
-0.015695315600014914,-3.884773874700262e-05,1.8078488801138605e-05
-0.015536321950387344,-4.6655648134603184e-05,1.8057112954418205e-05
-0.015362879198954982,-5.4380448421938766e-05,1.8031853930279068e-05
-0.015175685932833773,-6.201508970488596e-05,1.8002755045747362e-05
-0.01497542411927725,-6.955286721791372e-05,1.796986305651666e-05
-0.014762753968972472,-7.698741173997615e-05,1.793322798677719e-05
-0.014538309528639836,-8.431267761437923e-05,1.78929029644386e-05
-0.014302695069876187,-9.152292876400823e-05,1.7848944062844002e-05
-0.014056482324444104,-9.86127231125883e-05,1.7801410149874853e-05
-0.013800208590834482,-0.00010557689584140795,1.7750362745136352e-05
-0.013534375713299115,-0.00011241054191744136,1.769586588569664e-05
-0.013259449923102379,-0.00011910899832654173,1.7637986000635642e-05
-0.01297586253007699,-0.00012566782643983656,1.7576791794444046e-05
-0.012684011447388215,-0.00013208279493420285,1.7512354139100536e-05
-0.012384263512932842,-0.00013834986367428312,1.7444745974448416e-05
-0.012076957540085502,-0.0001444651689375377,1.7374042216295462e-05
-0.011762408002957617,-0.0001504250103232985,1.7300319671480253e-05
-0.011440909249086788,-0.00015622583963630958,1.722365695899035e-05
-0.011112740135611966,-0.00016186425198248426,1.714413443608565e-05
-0.010778168995207104,-0.00016733697926518904,1.706183412827373e-05
-0.010437458846996556,-0.00017264088622573996,1.6976839661900998e-05
-0.010090872773972514,-0.00017777296913098223,1.688923619806182e-05
-0.009738679395490333,-0.00018273035717334795,1.6799110366485736e-05
-0.009381158369899903,-0.0001875103166146955,1.6706550198038726e-05
-0.009018605859948643,-0.00019211025767215765,1.6611645054467012e-05
-0.008651339880039499,-0.0001965277441071547,1.6514485554022185e-05
-0.008279705430104315,-0.00020076050543469065,1.6415163491636724e-05
-0.00790407931792744,-0.0002048064516216986,1.6313771752372628e-05
-0.007524874582893198,-0.00020866369009690374,1.6210404216942977e-05
-0.007142544453768332,-0.0002123305448560691,1.6105155658204732e-05
-0.006757585792617372,-0.00021580557741766553,1.59981216276363e-05
-0.006370541989456242,-0.00021908760936318393,1.5889398330941087e-05
-0.005982005277298347,-0.00022217574617987258,1.5779082492055324e-05
-0.005592618440187467,-0.00022506940210924404,1.5667271204983046e-05
-0.005203075890224628,-0.00022776832569184707,1.5554061773032772e-05
-0.0048141240877502735,-0.0002302726256863408,1.5439551535188226e-05
-0.00442656126673065,-0.00023258279702496103,1.53238376795104e-05
-0.004041236411178309,-0.00023469974644443827,1.520701704364305e-05
-0.0036590474225588797,-0.00023662481740287255,1.5089185902681223e-05
-0.0032809384302653695,-0.00023835981386607862,1.4970439744863985e-05
-0.0029078962218029333,-0.0002399070225290957,1.4850873035765192e-05
-0.002540945794609145,-0.00024126923303319873,1.4730578971874618e-05
-0.002181145050062934,-0.00024244975574436674,1.4609649224680226e-05
-0.0018295786596598338,-0.00024345243667179742,1.4488173676576185e-05
-0.0014873511357391604,-0.0002442816691206472,1.4366240150128075e-05
-0.0011555791409644904,-0.0002449424016898231,1.4243934132425457e-05
-0.0008353830797159589,-0.0002454401422449932,1.4121338496441752e-05
-0.0005278780367924334,-0.0002457809575241203,1.3998533221499473e-05
-0.00023416416678497123,-0.00024597146807501467,1.387559511509969e-05
4.468331486822692e-05,-0.00024601883828799385,1.3752597538508938e-05
0.0003076243486560721,-0.00024593076137211276,1.362961013859391e-05
0.0005536642529484016,-0.00024571543922171166,1.3506698588445454e-05
0.0007818637666126131,-0.0002453815572168214,1.338392433933582e-05
0.0009913487591894407,-0.00024493825408537084,1.3261344386510272e-05
0.0011813194803512782,-0.0002443950870254857,1.3139011051232558e-05
0.001351059232082914,-0.00024376199234737712,1.3016971781389342e-05
0.0014999423507921067,-0.00024304924195165837,1.2895268972814583e-05
0.0016274413886218882,-0.00024226739601680488,1.2773939813322467e-05
0.0017331333876353188,-0.0002414272523227406,1.2653016151237581e-05
0.0018167051509538313,-0.0002405397926880933,1.2532524389984873e-05
0.0018779574310266484,-0.00023961612704259818,1.24124854100522e-05
0.0019168079691770448,-0.00023866743569254725,1.2292914519368413e-05
0.0019332933264735242,-0.0002377049103686346,1.2173821432853117e-05
0.0019275694499311373,-0.00023673969467453344,1.2055210281592326e-05
0.0018999109322651894,-0.00023578282457898436,1.1937079651778946e-05
0.0018507089518681157,-0.00023484516960795102,1.1819422653232213e-05
0.0017804679158044893,-0.00023393737539103288,1.1702227016982467e-05
0.0016898008644789743,-0.000233069808195962,1.1585475221085719e-05
0.001579423731722321,-0.00023225250204691168,1.1469144643525e-05
