frame_number,force
0,688.7627600073237
1,688.7069993345795
2,688.6513287992583
3,688.5958381183625
4,688.5406161784825
5,688.485750645331
6,688.4313275999217
7,688.3774312066157
8,688.3241434168106
9,688.2715437109508
10,688.2197088804345
11,688.1687128496636
12,688.1186265370577
13,688.0695177526285
14,688.0214511289599
15,687.9744880820433
16,687.9286867981576
17,687.8841022428584
18,687.8407861883837
19,687.7987872563065
20,687.758150972461
21,687.7189198306937
22,687.6811333613335
23,687.6448282001825
24,687.610038154352
25,687.57679426216
26,687.5451248454449
27,687.515055553728
28,687.4866094001679
29,687.4598067892184
30,687.4346655357496
31,687.4112008754477
32,687.3894254666398
33,687.369349384325
34,687.3509801079481
35,687.3343225049689
36,687.3193788123167
37,687.3061486172815
38,687.294628838329
39,687.2848137051074
40,687.276694736222
41,687.2702607137616
42,687.2654976550142
43,687.2623887838519
44,687.2609145060952
45,687.2610523939775
46,687.2627771842126
47,687.2660607925719
48,687.2708723462514
49,687.2771782344298
50,687.2849421771583
51,687.2941253124053
52,687.3046863004101
53,687.3165814437386
54,687.3297648209088
55,687.3441884314034
56,687.3598023505289
57,687.3765548938544
58,687.3943927922984
59,687.4132613797703
60,687.4331047955487
61,687.4538662035886
62,687.4754880306788
63,687.4979122245122
64,687.5210805312719
65,687.544934790667
66,687.5694172448616
67,687.5944708563959
68,687.620039628976
69,687.6460689241525
70,687.6725057669216
71,687.6992991343952
72,687.7264002235853
73,687.7537626962696
74,687.7813429001619
75,687.8091000660147
76,687.8369964800893
77,687.8649976309226
78,687.8930723287486
79,687.9211927955828
80,687.9493347240943
81,687.9774773037933
82,688.0056032135301
83,688.0336985798243
84,688.0617529011002
85,688.0897589382813
86,688.1177125722885
87,688.1456126290973
88,688.1734606735276
89,688.2012607738515
90,688.2290192399314
91,688.25674433734
92,688.2844459790555
93,688.3121353958087
94,688.3398247864042
95,688.3675269501321
96,688.3952549045478
97,688.423021493381
98,688.4508389906968
99,688.4787187080481
100,688.5066706112389
101,688.5347029531797
102,688.5628219295621
103,688.5910313641259
104,688.6193324294943
105,688.647723408157
106,688.6761994967771
107,688.7047526554953
108,688.733371501917
109,688.7620412473553
110,688.7907436714736
111,688.8194571309384
112,688.8481565976851
113,688.8768137226848
114,688.9053969219227
115,688.9338714827747
116,688.962199690664
117,688.9903409769347
118,689.0182520888935
119,689.0458872824851
120,689.0731985377221
121,689.1001357966
122,689.1266472224396
123,689.1526794787418
124,689.1781780252209
125,689.2030874287979
126,689.2273516876764
127,689.2509145666197
128,689.2737199406228
129,689.2957121424809
130,689.316836308205
131,689.3370387136424
132,689.3562670961705
133,689.3744709568331
134,689.3916018406517
135,689.4076135957032
136,689.4224626140859
137,689.4361080591322
138,689.448512082754
139,689.4596400352401
140,689.4694606681315
141,689.4779463294415
142,689.4850731493538
143,689.4908212137358
144,689.4951747226708
145,689.4981221315855
146,689.499656272834
147,689.4997744556161
148,689.4984785420905
149,689.4957749974486
150,689.4916749115022
151,689.4861939893706
152,689.4793525096678
153,689.4711752501971
154,689.4616913831231
155,689.4509343434721
156,689.4389416762479
157,689.4257548679923
158,689.4114191679434
159,689.3959834022934
160,689.3794997832674
161,689.3620237136195
162,689.3436135867377
163,689.3243305822315
164,689.3042384558715
165,689.2834033211665
166,689.2618934186208
167,689.2397788685739
168,689.2171314042934
169,689.1940240830488
170,689.1705309739785
171,689.1467268227258
172,689.122686693789
173,689.0984855919813
174,689.0741980645323
175,689.0498977857602
176,689.025657127198
177,689.0015467176386
178,688.9776349998232
179,688.953987793047
180,688.9306678727843
181,688.9077345785793
182,688.8852434598276
183,688.8632459665351
184,688.8417891896461
185,688.8209156536811
186,688.80066316328
187,688.7810647044531
188,688.7621484003828
189,688.7439375202241
190,688.7264505379266
191,688.7097012371787
192,688.6936988582569
193,688.6784482823664
194,688.6639502483773
195,688.6502015954271
196,688.6371955231593
197,688.6249218604258
198,688.6133673338179
199,688.6025158291765
200,688.5923486416727
201,688.5828447128067
202,688.5739808553991
203,688.5657319696326
204,688.5580712539121
205,688.5509704138613
206,688.5443998713879
207,688.5383289735433
208,688.5327261981992
209,688.5275593512553
210,688.5227957490356
211,688.5184023797491
212,688.514346038652
213,688.5105934322588
214,688.5071112476874
215,688.5038661844661
216,688.5008249483794
217,688.4979542102401
218,688.4952205360484
219,688.4925902975112
220,688.4900295725844
221,688.4875040448496
222,688.4849789089817
223,688.4824187880492
224,688.4797876672825
225,688.4770488482428
226,688.4741649268719
227,688.4710977984448
228,688.4678086917158
229,688.4642582333585
230,688.4604065423994
231,688.4562133533343
232,688.4516381663195
233,688.446640422965
234,688.4411797063229
235,688.4352159636247
236,688.4287097503591
237,688.4216224942415
238,688.4139167769765
239,688.4055566303291
240,688.3965078414336
241,688.3867382610625
242,688.3762181078282
243,688.3649202607816
244,688.3528205327074
245,688.3398979169631
246,688.3261348020026
247,688.3115171492182
248,688.2960346308255
249,688.2796807252287
250,688.2624527681675
251,688.2443519591725
252,688.2253833241548
253,688.2055556361069
254,688.1848812967893
255,688.1633761826105
256,688.1410594575867
257,688.1179533557893
258,688.0940829355743
259,688.0694758083251
260,688.0441618455477
261,688.0181728699937
262,687.9915423386059
263,687.9643050267963
264,687.9364967243304
265,687.908153952699
266,687.8793137126003
267,687.8500132687169
268,687.8202899778455
269,687.7901811654782
270,687.7597240547449
271,687.7289557498805
272,687.6979132739938
273,687.6666336580403
274,687.6351540750004
275,687.6035120109144
276,687.5717454631107
277,687.5398931556458
278,687.5079947618839
279,687.4760911234838
280,687.4442244539503
281,687.4124385144739
282,687.3807787510735
283,687.3492923847616
284,687.3180284494451
285,687.2870377750274
286,687.2563729161201
287,687.2260880300809
288,687.1962387109846
289,687.1668817875849
290,687.1380750931844
291,687.1098772143282
292,687.0823472240428
293,687.0555444041632
294,687.029527960211
295,687.0043567315909
296,686.9800888995587
297,686.9567816947958
298,686.9344911049961
299,686.9132715812432
300,686.8931757413526
301,686.8742540690995
302,686.8565546094255
303,686.8401226604136
304,686.8250004629259
305,686.8112268888548
306,686.7988371293627
307,686.7878623853526
308,686.778329563671
309,686.7702609841028
310,686.7636741036024
311,686.7585812646794
312,686.7549894740396
313,686.7529002159753
314,686.7523093034932
315,686.7532067692291
316,686.7555767978438
317,686.759397701744
318,686.7646419422347
319,686.7712761978515
320,686.7792614804478
321,686.7885532981817
322,686.7991018633428
323,686.8108523420419
324,686.8237451422368
325,686.8377162364158
326,686.852697515224
327,686.8686171682693
328,686.8854000884958
329,686.9029682969106
330,686.9212413847238
331,686.9401369697318
332,686.9595711629338
333,686.979459040077
334,686.9997151114994
335,687.0202537828962
336,687.0409897998376
337,687.0618386696941
338,687.0827170556894
339,687.1035431390867
340,687.124236947051
341,687.1447206450532
342,687.1649187932779
343,687.184758566352
344,687.2041699352657
345,687.223085810143
346,687.2414421427825
347,687.2591779885257
348,687.2762355277605
349,687.2925600481823
350,687.3080998897647
351,687.3228063552278
352,687.3366335896563
353,687.3495384337251
354,687.3614802555863
355,687.372420766957
356,687.3823238294564
357,687.3911552575498
358,687.3988826244341
359,687.4054750771576
360,687.4109031673995
361,687.4151387041926
362,687.4181546339782
363,687.4199249519944
364,687.4204246477586
365,687.419629686475
366,687.4175170271495
367,687.4140646767659
368,687.4092517782327
369,687.4030587283004
370,687.3954673203198
371,687.3864609055794
372,687.3760245660743
373,687.3641452911663
374,687.3508121507693
375,687.336016458301
376,687.319751917277
377,687.3020147458566
378,687.2828037740502
379,687.2621205091733
380,687.2399691666336
381,687.2163566648297
382,687.1912925842299
383,687.164789091748
384,687.1368608328454
385,687.1075247951977
386,687.0768001486479
387,687.0447080664981
388,687.0112715334388
389,686.9765151456728
390,686.9404649088927
391,686.9031480396949
392,686.8645927757279
393,686.8248281994261
394,686.7838840798844
395,686.7417907375102
396,686.6985789361145
397,686.6542798067441
398,686.608924806912
399,686.5625457182177
400,686.5151746847175
401,686.4668442937914
402,686.4175877005797
403,686.3674387961122
404,686.3164324180796
405,686.2646046022978
406,686.2119928726632
407,686.1586365673976
408,686.1045771986529
409,686.0498588407083
410,685.9945285397066
411,685.9386367360221
412,685.8822376892009
413,685.825389894998
414,685.7681564845726
415,685.7106055974366
416,685.6528107215512
417,685.5948509946729
418,685.5368114597172
419,685.4787832639986
420,685.4208637895712
421,685.3631567012567
422,685.3057719006159
423,685.248825377232
424,685.1924389523723
425,685.1367399140433
426,685.0818605462739
427,685.0279375584489
428,684.9751114220386
429,684.9235256222598
430,684.8733258319686
431,684.8246590154232
432,684.7776724710308
433,684.7325128247165
434,684.6893249883915
435,684.648251100024
436,684.6094294622618
437,684.572993495353
438,684.5390707178548
439,684.5077817662162
440,684.4792394626678
441,684.4535479402606
442,684.4308018341089
443,684.4110855484697
444,684.3944726097843
445,684.381025115704
446,684.3707932889873
447,684.3638151427328
448,684.3601162598964
449,684.3597096864742
450,684.3625959355284
451,684.3687630990429
452,684.3781870659237
453,684.3908318460644
454,684.4066500008806
455,684.4255831789615
456,684.4475627516787
457,684.4725105394965
458,684.5003396171538
459,684.5309551851874
460,684.5642554955156
461,684.6001328189856
462,684.6384744423692
463,684.6791636813764
464,684.7220808954187
465,684.7671044897135
466,684.8141118909436
467,684.8629804834973
468,684.9135884938213
469,684.9658158109403
470,685.0195447324039
471,685.0746606268873
472,685.13105250685
473,685.1886135067293
474,685.2472412642344
475,685.3068382046167
476,685.3673117301045
477,685.4285743186346
478,685.4905435377418
479,685.5531419814725
480,685.6162971404424
481,685.6799412169512
482,685.7440108980326
483,685.8084470994893
484,685.8731946932297
485,685.9382022283014
486,686.0034216531733
487,686.0688080438586
488,686.1343193402223
489,686.1999160916324
490,686.2655612128939
491,686.3312197518721
492,686.3968586709916
493,686.4624466453628
494,686.5279538802114
495,686.5933519496136
496,686.6586136576528
497,686.723712922154
498,686.7886246801255
499,686.8533248131309
500,686.9177900903715
501,686.9819981271689
502,687.0459273563963
503,687.1095570101447
504,687.1728671090603
505,687.2358384574985
506,687.2984526433797
507,687.3606920418653
508,687.4225398218986
509,687.4839799548412
510,687.544997224789
511,687.6055772398506
512,687.6657064421125
513,687.725372111728
514,687.7845623587706
515,687.8432660962255
516,687.9014729892205
517,687.959173378845
518,688.0163581823488
519,688.0730187738353
520,688.1291468506149
521,688.1847342908692
522,688.239773008773
523,688.2942548134731
524,688.3481712777489
525,688.4015136204082
526,688.4542726037912
527,688.5064384452165
528,688.5580007400685
529,688.6089483948376
530,688.6592695697522
531,688.7089516313624
532,688.757981115296
533,688.8063436989803
534,688.8540241838906
535,688.9010064867341
536,688.9472736386775
537,688.9928077914086
538,689.0375902287399
539,689.0816013824672
540,689.1248208511861
541,689.1672274212182
542,689.2087990901904
543,689.2495130957208
544,689.2893459532403
545,689.3282735079733
546,689.3662710066392
547,689.403313194253
548,689.4393744401339
549,689.4744288952622
550,689.5084506812638
551,689.5414141099468
552,689.5732939315908
553,689.6040656099459
554,689.6337056215627
555,689.6621917759903
556,689.6895035516505
557,689.7156224406758
558,689.7405322954546
559,689.7642196700051
560,689.7866741499665
561,689.8078886654126
562,689.8278597808545
563,689.8465879570992
564,689.8640777802615
565,689.880338154054
566,689.8953824524622
567,689.9092286311163
568,689.9218992967907
569,689.9334217347637
570,689.9438278931591
571,689.9531543226828
572,689.9614420702369
573,689.9687365259134
574,689.9750872245554
575,689.9805476050749
576,689.9851747327222
577,689.9890289910886
578,689.9921737513748
579,689.9946750261098
580,689.9966011131401
581,689.9980222337194
582,689.999010166384
583,689.9996378764927
584,689.9999791402469
585,690.0001081618838
586,690.000099183553
587,690.0000260887563
588,689.9999620015413
589,689.9999788844201
590,690.0001471381216
591,690.0005352059545
592,690.0012091850754
593,690.0022324468321
594,690.0036652688998
595,690.0055644830042
596,690.0079831428959
597,690.0109702171487
598,690.0145703101322
599,690.0188234127437
600,690.0237646828441
601,690.0294242542467
602,690.0358270728502
603,690.0429927592064
604,690.0509354982701
605,690.0596639586347
606,690.0691812443785
607,690.0794848822114
608,690.090566845211
609,690.1024136130608
610,690.115006268239
611,690.1283206280065
612,690.1423274126156
613,690.1569924503933
614,690.1722769201712
615,690.1881376308947
616,690.2045273371219
617,690.2213950879634
618,690.2386866063603
619,690.2563446953316
620,690.2743096672878
621,690.292519791377
622,690.3109117524982
623,690.3294211146566
624,690.3479827808492
625,690.3665314414615
626,690.3850020032445
627,690.4033299915442
628,690.4214519197427
629,690.4393056217957
630,690.456830545987
631,690.4739680101108
632,690.4906614197268
633,690.5068564515266
634,690.5225012031797
635,690.5375463101087
636,690.551945029554
637,690.5656532934088
638,690.5786297328607
639,690.5908356787143
640,690.602235140819
641,690.6127947687901
642,690.6224837953447
643,690.6312739636342
644,690.6391394405576
645,690.6460567185746
646,690.6520045087092
647,690.6569636272783
648,690.6609168785559
649,690.6638489352101
650,690.6657462178393
651,690.6665967741908
652,690.6663901578356
653,690.6651173054748
654,690.6627704119359
655,690.6593428025366
656,690.654828803861
657,690.649223615518
658,690.6425231864358
659,690.6347240996789
660,690.6258234700799
661,690.6158188591261
662,690.604708210984
663,690.5924898121124
664,690.5791622752902
665,690.5647245481763
666,690.5491759471109
667,690.5325162180188
668,690.5147456269937
669,690.4958650830318
670,690.475876294514
671,690.4547819598308
672,690.4325859915997
673,690.4092937733184
674,690.3849124464799
675,690.3594512247294
676,690.3329217299577
677,690.3053383439151
678,690.2767185683107
679,690.2470833864347
680,690.21645761986
681,690.1848702742827
682,690.1523548686347
683,690.118949741194
684,690.0846983257179
685,690.0496493897247
686,690.0138572261704
687,689.9773817893215
688,689.9402887659988
689,689.9026495747319
690,689.8645412877054
691,689.8260464735445
692,689.7872529623598
693,689.7482535371404
694,689.7091455567977
695,689.6700305159865
696,689.6310135461557
697,689.592202862338
698,689.5537091614716
699,689.5156449798683
700,689.478124018759
701,689.4412604474185
702,689.4051681938182
703,689.3699602334951
704,689.3357478879527
705,689.3026401436707
706,689.2707430015448
707,689.2401588649933
708,689.2109859737974
709,689.1833178901303
710,689.1572430428297
711,689.1328443353209
712,689.1101988211745
713,689.0893774488245
714,689.0704448739694
715,689.0534593355928
716,689.0384725899247
717,689.0255298959445
718,689.0146700458444
719,689.0059254338653
720,688.9993221567516
721,688.9948801387782
722,688.9926132742727
723,688.9925295811256
724,688.9946313600748
725,688.9989153565191
726,689.0053729238136
727,689.0139901886321
728,689.0247482193632
729,689.0376231975583
730,689.0525865908243
731,689.0696053243065
732,689.0886419477301
733,689.1096547958775
734,689.1325981419477
735,689.1574223451355
736,689.1840739956336
737,689.2124960614493
738,689.2426280413825
739,689.2744061274411
740,689.3077633785325
741,689.3426299059781
742,689.3789330705666
743,689.4165976908513
744,689.4555462630655
745,689.4956991934954
746,689.5369750434139
747,689.5792907847144
748,689.6225620622462
749,689.6667034576255
750,689.7116287492205
751,689.7572511635386
752,689.8034836137384
753,689.8502389212172
754,689.8974300165464
755,689.9449701168031
756,689.9927728775054
757,690.0407525185627
758,690.0888239246486
759,690.1369027211065
760,690.184905326834
761,690.2327489856505
762,690.280351777555
763,690.3276326110616
764,690.374511197608
765,690.4209080092741
766,690.4667442220826
767,690.5119416490008
768,690.5564226689975
769,690.6001101601304
770,690.6429274446901
771,690.6847982528495
772,690.7256467091124
773,690.7653973443031
774,690.8039751352833
775,690.8413055745199
776,690.8773147713757
777,690.9119295864999
778,690.9450778004327
779,690.9766883177502
780,691.0066914081505
781,691.0350189849659
782,691.0616049196659
783,691.0863853888258
784,691.1092992484877
785,691.1302884297501
786,691.1492983485299
787,691.1662783218554
788,691.1811819830983
789,691.1939676892739
790,691.2045989145148
791,691.2130446244508
792,691.2192796260251
793,691.2232848863131
794,691.2250478129803
795,691.224562488983
796,691.2218298551343
797,691.2168578358636
798,691.2096614055295
799,691.2002625946934
800,691.1886904374867
801,691.1749808625533
802,691.159176531224
803,691.1413266275034
804,691.1214866048111
805,691.0997178941078
806,691.0760875773957
807,691.0506680299503
808,691.0235365339936
809,690.994774865703
810,690.9644688565969
811,690.9327079298449
812,690.8995846123804
813,690.8651940251133
814,690.8296333556775
815,690.7930013199633
816,690.755397619203
817,690.716922398502
818,690.6776757111576
819,690.6377569917425
820,690.5972645400998
821,690.5562950180055
822,690.5149429601377
823,690.4733003011123
824,690.4314559206331
825,690.3894952088873
826,690.3474996538351
827,690.3055464510539
828,690.2637081356904
829,690.2220522351616
830,690.1806409408226
831,690.1395307972795
832,690.0987724094697
833,690.0584101697103
834,690.0184820090618
835,689.9790191791326
836,689.9400460716358
837,689.9015800833316
838,689.8636315330197
839,689.8262036348691
840,689.789292529318
841,689.7528873702585
842,689.7169704659186
843,689.6815174705705
844,689.6464976243635
845,689.6118740386287
846,689.5776040234962
847,689.543639453667
848,689.5099271670862
849,689.4764093904207
850,689.4430241847359
851,689.4097059046877
852,689.3763856649645
853,689.3429918086711
854,689.309450373843
855,689.2756855560424
856,689.2416201663789
857,689.2071760848108
858,689.1722747082829
859,689.1368373924792
860,689.1007858850044
861,689.0640427470311
862,689.0265317602372
863,688.9881783162884
864,688.948909787237
865,688.9086558770725
866,688.8673489568391
867,688.8249243872554
868,688.781320832926
869,688.7364805710038
870,688.6903497950946
871,688.6428789130214
872,688.5940228354598
873,688.5437412518083
874,688.4919988898033
875,688.4387657556929
876,688.3840173518785
877,688.3277348691951
878,688.2699053522118
879,688.2105218380703
880,688.1495834712025
881,688.0870955965896
882,688.0230698333522
883,687.9575241295489
884,687.8904827986753
885,687.8219765380928
886,687.7520424289141
887,687.6807239157764
888,687.6080707641129
889,687.5341389926075
890,687.4589907793254
891,687.3826943407669
892,687.3053237833614
893,687.226958927128
894,687.1476851018629
895,687.0675929170645
896,686.9867780074031
897,686.9053407558607
898,686.8233859967884
899,686.7410227007274
900,686.6583636416545
901,686.5755250459043
902,686.4926262213207
903,686.4097891654634
904,686.327138152429
905,686.2447992984588
906,686.1629001068375
907,686.081568992905
908,686.0009347904587
909,685.9211262411822
910,685.8422714688164
911,685.764497439831
912,685.6879294126009
913,685.6126903776482
914,685.538900492445
915,685.4666765156777
916,685.3961312474255
