frame_number,force
0,597.3371600000196
1,597.976342723276
2,598.5924249117037
3,599.1638093183542
4,599.6717321940547
5,600.1012914906681
6,600.4421109479136
7,600.688640660547
8,600.8401360503756
9,600.9003745631549
10,600.8771711667815
11,600.7817457251539
12,600.6279775827197
13,600.4315658596913
14,600.2091156034211
15,599.9771834172718
16,599.7513161206084
17,599.5451039065405
18,599.3692775532186
19,599.2309201846356
20,599.1329089167843
21,599.0737129012417
22,599.0476356488829
23,599.0455098927885
24,599.0557634908217
25,599.0657094455515
26,599.0628827644216
27,599.0362453022411
28,598.9771104556041
29,598.8797086115401
30,598.741399945315
31,598.5625991751921
32,598.3464850769218
33,598.0985481683781
34,597.8260150257312
35,597.5371838426706
36,597.2407084796288
37,596.9448823416772
38,596.6569981435493
39,596.3828735316584
40,596.1266127432823
41,595.8906198372279
42,595.6758097521091
43,595.4819097322426
44,595.3077361599924
45,595.1513850713908
46,595.0103621901512
47,594.8817363376774
48,594.762382402427
49,594.6493079066097
50,594.539995370445
51,594.432681673268
52,594.3265238780562
53,594.2216370091159
54,594.1190166982551
55,594.02037516798
56,593.9279211678192
57,593.8441090039297
58,593.771379437137
59,593.7119158076673
60,593.6674362564358
61,593.6390401974277
62,593.6271237780004
63,593.6313623646877
64,593.6507308154712
65,593.683526195513
66,593.7273949228083
67,593.7794203388523
68,593.8363404294747
69,593.8949122277671
70,593.9523547305317
71,594.0067474159099
72,594.0572669573748
73,594.1041981615382
74,594.1487265845143
75,594.1925779353365
76,594.2375905759754
77,594.2852978922987
78,594.3365854259364
79,594.3914844075362
80,594.4491482695285
81,594.5080182255056
82,594.5661361264464
83,594.6215322831373
84,594.672609748001
85,594.7184577279013
86,594.7590454338922
87,594.7952714238795
88,594.8288785718473
89,594.8622851427707
90,594.8983997521019
91,594.9404615527409
92,594.9918936343593
93,595.0561194172805
94,595.1362984789303
95,595.2349807734462
96,595.353720480901
97,595.4927114245281
98,595.6505147014309
99,595.8239535047994
100,596.008233358649
101,596.1972952352568
102,596.384345462988
103,596.5624661983467
104,596.7252037602562
105,596.8670419122096
106,596.9836863306623
107,597.0721313789201
108,597.1305538568787
109,597.1581442523899
110,597.154998026295
111,597.1221385372114
112,597.0616636234212
113,596.976941297718
114,596.8727456971064
115,596.7552245149061
116,596.6316236152533
117,596.5097562168212
118,596.3972694979078
119,596.3008053588943
120,596.2251729911719
121,596.1726667862062
122,596.1426714523731
123,596.1316625270255
124,596.1336189900381
125,596.1407571062819
126,596.1444316070507
127,596.1360514587004
128,596.1078987223203
129,596.0537892502322
130,595.9695528446322
131,595.8533284321668
132,595.7056723495609
133,595.5294798597504
134,595.3297275112272
135,595.1130524917045
136,594.8871942389127
137,594.6603416629865
138,594.440460921821
139,594.2347075537268
140,594.0490234753621
141,593.8879712164768
142,593.7547810323323
143,593.6515155026527
144,593.5792288598033
145,593.5380316268894
146,593.5270411096275
147,593.5442597493567
148,593.5864503812545
149,593.6490749084742
150,593.7263481214995
151,593.8114418830548
152,593.8968543420785
153,593.9749274331798
154,594.0384571934653
155,594.0813115928487
156,594.0989643341168
157,594.088874183039
158,594.0506819215905
159,593.9862426849807
160,593.8995350953677
161,593.7964824019634
162,593.6846987180602
163,593.5731488445222
164,593.4716924828517
165,593.3904848365572
166,593.3392286902956
167,593.3263136819533
168,593.3579355641655
169,593.4373421861688
170,593.5643594499611
171,593.7352936891839
172,593.9432252076946
173,594.178643770353
174,594.4303393078003
175,594.6864422007718
176,594.9354996204995
177,595.1674687446421
178,595.3745033070886
179,595.5514223810201
180,595.6957989108888
181,595.807689827128
182,595.8891170576202
183,595.9434532243216
184,595.9748473969028
185,595.9877682604225
186,595.9866831471792
187,595.9758503304411
188,595.9591763843935
189,595.9400798300364
190,595.9213165946654
191,595.9047632544525
192,595.8911967799295
193,595.8801246032937
194,595.869704247877
195,595.8567729241609
196,595.8370037721086
197,595.8052088438943
198,595.7557970199722
199,595.6833604331066
200,595.5833232231937
201,595.4525625619474
202,595.2899086986088
203,595.096441651715
204,594.8755210588761
205,594.6325159901014
206,594.3742551539485
207,594.1082909348145
208,593.8421269967521
209,593.5825623979948
210,593.3352569810238
211,593.1045520790697
212,592.893509976265
213,592.7040781316583
214,592.537260096739
215,592.393202618895
216,592.2711751263117
217,592.1694837111295
218,592.085396647396
219,592.0151594238345
220,591.9541539121269
221,591.8972181871167
222,591.8390995240309
223,591.7749735092301
224,591.700939622643
225,591.6144057788385
226,591.514297433521
227,591.4010618208773
228,591.2764742097228
229,591.1432813189457
230,591.0047382654935
231,590.8641159390138
232,590.7242681189108
233,590.58733513962
234,590.4546219970607
235,590.3266431498389
236,590.2032949316946
237,590.0841058750315
238,589.968518403457
239,589.8561596678172
240,589.7470573852868
241,589.6417577477472
242,589.5413242385681
243,589.4472359018735
244,589.3612347670488
245,589.285177171076
246,589.2209300267887
247,589.1703301566391
248,589.1351911754183
249,589.1173062614612
250,589.1183855899726
251,589.1399048461001
252,589.1829057577512
253,589.247833130402
254,589.3344833720375
255,589.4420842541494
256,589.5694621806708
257,589.715220098643
258,589.8778556796806
259,590.0557768911528
260,590.2472059830161
261,590.4500024693863
262,590.6614692099212
263,590.878209830116
264,591.0960824830061
265,591.3102769748136
266,591.5155431763628
267,591.7065889933643
268,591.8786212638339
269,592.0279461018359
270,592.1525171214942
271,592.2523301184231
272,592.3295946345241
273,592.388652869066
274,592.4356574260795
275,592.4780524332632
276,592.5239216323794
277,592.5812760827424
278,592.6573598948215
279,592.7580514740763
280,592.8874190576602
281,593.0474533557809
282,593.2379689416811
283,593.4566647705507
284,593.6993583821986
285,593.9604179829929
286,594.2333784570095
287,594.5116616081328
288,594.7892839403613
289,595.0614518098752
290,595.3249811745817
291,595.5784992983888
292,595.8223962121507
293,596.0585242139006
294,596.2896924404318
295,596.5190397148231
296,596.7493792120986
297,596.9826082391244
298,597.2192719334798
299,597.4583436619874
300,597.6972333199253
301,597.9319874222942
302,598.1576289611069
303,598.368593901033
304,598.5592347702184
305,598.7243703071414
306,598.8598568729
307,598.9631349923999
308,599.0336729278729
309,599.0732176461078
310,599.0857880819783
311,599.0773894505517
312,599.0554663127915
313,599.028145227599
314,599.0033556975148
315,598.9879543012651
316,598.9869909172006
317,599.00323545782
318,599.0370310320088
319,599.0864698808874
320,599.1478280708606
321,599.216165953937
322,599.2860022390744
323,599.3519809944038
324,599.4094590429554
325,599.4549476830065
326,599.4863585465223
327,599.5030352369304
328,599.5055932441715
329,599.495625912577
330,599.4753515505635
331,599.4472717015258
332,599.4138907898264
333,599.3775254479455
334,599.3402105310975
335,599.303683922213
336,599.269410394146
337,599.2386044217969
338,599.2122381006375
339,599.1910492854454
340,599.1755706057778
341,599.1661854913723
342,599.1632001819714
343,599.1669083759032
344,599.1776231513026
345,599.1956659885975
346,599.2213271645568
347,599.2548212172977
348,599.2962398324756
349,599.3454700304986
350,599.4020380920397
351,599.4648759699302
352,599.5320593346319
353,599.6005991329291
354,599.666373009256
355,599.7242647046547
356,599.7685403705335
357,599.7934393497571
358,599.7939106582327
359,599.7663916304082
360,599.7094989355487
361,599.6244940114253
362,599.5154152331527
363,599.3888387760799
364,599.2533071275252
365,599.1185098743491
366,598.994307450182
367,598.8896823839187
368,598.8117129069376
369,598.7646867090941
370,598.749481741698
371,598.7633202401912
372,598.7999536800753
373,598.850269700311
374,598.9032430377383
375,598.94710128216
376,598.9705550141606
377,598.9639485187386
378,598.9202092393649
379,598.835498853056
380,598.7094954178983
381,598.5452752410346
382,598.3488197922986
383,598.1282312305127
384,597.8927762956373
385,597.6518861844944
386,597.4142290452216
387,597.1869473310119
388,596.9751162765115
389,596.7814455141786
390,596.6062310072599
391,596.4475653034051
392,596.3018053221052
393,596.1642637367263
394,596.0300451405392
395,595.8949122106654
396,595.7560480348162
397,595.6125798259658
398,595.4657537323714
399,595.3187072430826
400,595.1758647919559
401,595.0420584600707
402,594.9215297748987
403,594.8169977812503
404,594.728983289126
405,594.65554875519
406,594.5925358435506
407,594.5342695116311
408,594.4745862182806
409,594.4079707616628
410,594.3305630415535
411,594.2408221626291
412,594.1397131644217
413,594.0304022032537
414,593.9175717707581
415,593.8065472892345
416,593.7024320836628
417,593.6093972861977
418,593.5302114400431
419,593.4660488471718
420,593.4165797708246
421,593.380305174581
422,593.3550562234839
423,593.3385474679001
424,593.3288614401612
425,593.3247576623044
426,593.325745937331
427,593.3319311486378
428,593.3436948538292
429,593.3613054302383
430,593.3845459042541
431,593.4124308820728
432,593.4430589133518
433,593.473616976551
434,593.500528508337
435,593.5197271695149
436,593.5270418546902
437,593.5186743734841
438,593.4917279233514
439,593.4447114167774
440,593.3779187925796
441,593.2935796592245
442,593.1957157231352
443,593.0897181271677
444,592.9817469484398
445,592.8780924184989
446,592.784612525839
447,592.7063076122384
448,592.6470485899367
449,592.6094521479249
450,592.594883664989
451,592.6035542524988
452,592.6346611371671
453,592.6865141226325
454,592.7566079923838
455,592.8416360640995
456,592.9374768937478
457,593.0392134855709
458,593.1412596572601
459,593.2376638249348
460,593.3226196297957
461,593.3911352552883
462,593.4397375071237
463,593.4670601627192
464,593.4741956226774
465,593.4647423897496
466,593.4445316910588
467,593.4210648764848
468,593.4027435462813
469,593.3980121654813
470,593.414537315758
471,593.4585181080627
472,593.5341804875793
473,593.6434792621781
474,593.786024304635
475,593.959243484503
476,594.1587672187983
477,594.3789709843445
478,594.6135790860225
479,594.8562381258885
480,595.1009956252254
481,595.3426434927271
482,595.576905309353
483,595.8004720446552
484,596.0109237450989
485,596.2065993425006
486,596.3864770512675
487,596.5501026255007
488,596.6975632479902
489,596.8294687076295
490,596.9468883060764
491,597.0512089057843
492,597.1439144060209
493,597.2263232495692
494,597.2993485279786
495,597.3633534116667
496,597.418152500611
497,597.4631652178597
498,597.4976848196283
499,597.5212029653686
500,597.53372304044
501,597.5359961632296
502,597.5296199369777
503,597.5169590806097
504,597.5008886908273
505,597.4844213216489
506,597.4703301178203
507,597.4608857361806
508,597.4577739691587
509,597.4621784751707
510,597.4749398813126
511,597.4966740565626
512,597.5277622004267
513,597.5681977268446
514,597.6173544375661
515,597.6737925525874
516,597.7352204753603
517,597.7986744702337
518,597.860887966301
519,597.9187460403277
520,597.9697025612288
521,598.012077932555
522,598.045213306075
523,598.069494576524
524,598.0862712082563
525,598.0976931313373
526,598.1064828177148
527,598.1156565338447
528,598.1282132127351
529,598.146814620635
530,598.173476237391
531,598.2092820410852
532,598.2541486063086
533,598.306691429781
534,598.3642541388707
535,598.423127912303
536,598.4789371439422
537,598.5271331890648
538,598.563528027196
539,598.5848017590849
540,598.5889268044906
541,598.5754667290101
542,598.5457212278637
543,598.5026968931404
544,598.4508944071425
545,598.3959223312529
546,598.3439693975789
547,598.301187253969
548,598.2730549738106
549,598.2638067169097
550,598.2759945194022
551,598.3102393494811
552,598.3652137581514
553,598.4378914357301
554,598.5240618487342
555,598.6190340309582
556,598.7183837932441
557,598.8185819544478
558,598.9173801615979
559,599.0138920680873
560,599.1083693851022
561,599.2017347175239
562,599.2949917174868
563,599.3886665304216
564,599.4824212498775
565,599.5749213004516
566,599.6639613131858
567,599.7467895562125
568,599.820533100328
569,599.8826144700803
570,599.9310666759717
571,599.9646955460095
572,599.9830898348918
573,599.9865178137132
574,599.9757621396387
575,599.95193687352
576,599.9163160897832
577,599.8701965675577
578,599.8148156057551
579,599.7513343831396
580,599.6808761783087
581,599.6045931368337
582,599.5237319035855
583,599.43967024281
584,599.3539024311392
585,599.2679644961602
586,599.1833071398345
587,599.101138161058
588,599.0222680284742
589,598.9470012486147
590,598.8751121169579
591,598.8059168762701
592,598.7384130794327
593,598.6714267854518
594,598.6037116356177
595,598.5339778929864
596,598.4608696520212
597,598.3829324266908
598,598.2986140505016
599,598.2063233987848
600,598.1045454390288
601,597.9919936561196
602,597.8677811319415
603,597.7315998708647
604,597.5838962483216
605,597.4260162595713
606,597.260281407526
607,597.0899546639488
608,596.9190695152597
609,596.7521280810008
610,596.5937183710859
611,596.4481259404834
612,596.3190019899814
613,596.2091194788848
614,596.120232344191
615,596.053044404348
616,596.00726865976
617,595.9817245951116
618,595.974419669047
619,595.9825999675279
620,596.002799317695
621,596.0309325827632
622,596.0624620087285
623,596.0926308339823
624,596.1167314715932
625,596.1303750269685
626,596.1297452385453
627,596.1118254446975
628,596.0745741371404
629,596.0170155773053
630,595.9392271376964
631,595.8422392419637
632,595.727895284062
633,595.5987253336907
634,595.4578605633556
635,595.3089715901081
636,595.1561803537264
637,595.0038854568598
638,594.8564574374398
639,594.7178059491713
640,594.5908842129746
641,594.4772422475124
642,594.3767422702325
643,594.2875153879938
644,594.2061902583899
645,594.1283746851319
646,594.0493279364549
647,593.9647291686566
648,593.8714240417337
649,593.7680192417204
650,593.6552055133658
651,593.5357372317006
652,593.4140737548431
653,593.2957609638505
654,593.1866677143012
655,593.092192115732
656,593.0165408033814
657,592.9621731391982
658,592.9294830398205
659,592.9167544878557
660,592.9203780606031
661,592.9352727264633
662,592.9554382757975
663,592.9745720990777
664,592.9866981214208
665,592.9867499406948
666,592.9710296427351
667,592.9374623162403
668,592.8856052678473
669,592.8164343664446
670,592.7319819834955
671,592.6349178975726
672,592.5281508673897
673,592.4145047283307
674,592.2965017892224
675,592.1762701309357
676,592.0555795351955
677,591.9359976032146
678,591.8191341495793
679,591.7069114399156
680,591.6017787860005
681,591.5067975300867
682,591.425556316438
683,591.3619242685918
684,591.3196912291471
685,591.302162342363
686,591.3117674437962
687,591.3497240345431
688,591.415767283798
689,591.5079458783329
690,591.6224911394415
691,591.7537942715094
692,591.8945552603167
693,592.0361774822245
694,592.1694525286855
695,592.2854992077929
696,592.3768194965937
697,592.4382749947795
698,592.4678080102789
699,592.4668094801302
700,592.440117732118
701,592.3956816632038
702,592.3439375067944
703,592.296949569887
704,592.2673745285671
705,592.2673350468053
706,592.3073197334594
707,592.3952372236488
708,592.5357253005907
709,592.7297652876723
710,592.9746122985559
711,593.2640375637595
712,593.5888665622545
713,593.937761284564
714,594.2981487639612
715,594.6571747998587
716,595.0025758589403
717,595.3234017972428
718,595.6105682888711
719,595.8572501419444
720,596.0591293272763
721,596.2144913452257
722,596.3241461697618
723,596.391153992312
724,596.420363831364
725,596.4178162020708
726,596.3900979075017
727,596.3437458185435
728,596.2847781691873
729,596.2183993972178
730,596.14888153247
731,596.0795822527474
732,596.0130442940053
733,595.9511373072904
734,595.8952176359682
735,595.8462735135428
736,595.805014784929
737,595.7718797895462
738,595.7469603099375
739,595.7298742654939
740,595.7196396664367
741,595.7146137585605
742,595.7125470225935
743,595.710765430017
744,595.7064550430159
745,595.6969984098258
746,595.6803060543842
747,595.6550936044611
748,595.6210692885327
749,595.57901069327
750,595.5307209860731
751,595.4788692103122
752,595.426740310162
753,595.3779350416696
754,595.3360507075018
755,595.3043503073112
756,595.2854250390749
757,595.2808873319993
758,595.2911644169113
759,595.3154520893338
760,595.3518378596139
761,595.3975551630897
762,595.4493140390224
763,595.5036595959664
764,595.5573184657223
765,595.6075003327251
766,595.6521282041605
767,595.6899753455242
768,595.7206900760933
769,595.7446984180499
770,595.7629925541453
771,595.7768422436867
772,595.7875029569344
773,595.796012970959
774,595.8031422028462
775,595.809488284032
776,595.8156556992413
777,595.8224307993466
778,595.8308754471076
779,595.8422929376087
780,595.8580599680414
781,595.8793529931514
782,595.9068189366054
783,595.940254390697
784,595.9783702020544
785,596.0187245284569
786,596.0578911401822
787,596.0918792515512
788,596.1167462966639
789,596.1292764272547
790,596.1275697575719
791,596.111417183068
792,596.0824048422038
793,596.0437600366263
794,595.9999888005684
795,595.9563636527544
796,595.9183097363469
797,595.8907233920804
798,595.8772583290057
799,595.8796434180251
800,595.8971429652338
801,595.926302423508
802,595.961103561184
803,595.9935719146636
804,596.01476351304
805,596.0159574090691
806,595.9898366017532
807,595.9314611686567
808,595.8388975288233
809,595.7134323089854
810,595.5593587163655
811,595.3833869673781
812,595.1937931806315
813,594.9994578086948
814,594.8089357608249
815,594.6296538869742
816,594.4672807151305
817,594.3252929871143
818,594.2047772056196
819,594.1045170776865
820,594.0213919727205
821,593.951044926935
822,593.8887009891151
823,593.829967162099
824,593.7714534085426
825,593.7111188319874
826,593.6483338159552
827,593.583719355145
828,593.5188606119926
829,593.4559913720193
830,593.397718502154
831,593.346817926068
832,593.3061002520587
833,593.2783170283178
834,593.2660574810345
835,593.2715812128595
836,593.2965588291037
837,593.3417470562375
838,593.4066805336009
839,593.4894855975732
840,593.586900161714
841,593.6945344894401
842,593.8073515678323
843,593.9202907039011
844,594.0289098980248
845,594.1299029126075
846,594.2213802985509
847,594.3028851860888
848,594.3752020640052
849,594.4400654457229
850,594.4998735221117
851,594.5574747588611
852,594.6160450016074
853,594.679032085495
854,594.7501261600597
855,594.8332079061591
856,594.9322258686915
857,595.0509703945243
858,595.1927521593913
859,595.3600366299279
860,595.5541031720653
861,595.7747828432248
862,596.020300178231
863,596.2872257295192
864,596.5705503059161
865,596.8639070729438
866,597.1599656978128
867,597.4509909440914
868,597.7295149609151
869,597.9890417282838
870,598.2246900206752
871,598.4336864352935
872,598.6156431340809
873,598.7725890951692
874,598.9087525749613
875,599.0301084327141
876,599.1437170202461
877,599.2569039517372
878,599.3763604834254
879,599.5072687144416
880,599.6525642946663
881,599.812444454022
882,599.9842136600475
883,600.1625226306458
884,600.3399919654149
885,600.5081363981728
886,600.6584457746229
887,600.7834474920261
888,600.8775777809528
889,600.9377323803965
890,600.9634476388751
891,600.9567547981226
892,600.9218118381033
893,600.8644249331331
894,600.7915424813223
895,600.710771443324
896,600.6299388579948
897,600.5566972376874
898,600.4981563119262
899,600.460523262436
900,600.4487479527415
901,600.4661926138884
902,600.5143705306106
903,600.5928157659077
904,600.6991459854588
905,600.8293611318908
906,600.9783828237793
907,601.140779250569
908,601.3115492167467
909,601.4867971534321
910,601.6641539547859
911,601.8428763904241
912,602.0236454488218
913,602.2081445548185
914,602.398524231568
915,602.5968550002209
916,602.8046407855513
917,603.0224292191565
918,603.2495372016019
