frame_number,force
0,828.5432700096922
1,828.4698010273005
2,828.39658910577
3,828.3238895494445
4,828.2519541743687
5,828.1810296240146
6,828.1113557527084
7,828.0431640948915
8,827.97667643669
9,827.9121035041636
10,827.8496437795933
11,827.7894824534418
12,827.7317905157
13,827.6767239868343
14,827.624423286048
15,827.575012733151
16,827.528600179575
17,827.48527676342
18,827.4451167827974
19,827.4081776815283
20,827.3745001414427
21,827.3441082755965
22,827.3170099164931
23,827.293196993635
24,827.2726459960046
25,827.2553185166726
26,827.2411618772884
27,827.2301098294744
28,827.2220833291456
29,827.2169913794954
30,827.2147319385627
31,827.2151928868809
32,827.218253049328
33,827.2237832636479
34,827.2316474870444
35,827.2417039316812
36,827.2538062194649
37,827.2678045462819
38,827.2835468460885
39,827.3008799456118
40,827.3196507005401
41,827.3397071040384
42,827.3608993584824
43,827.3830809014511
44,827.4061093772555
45,827.4298475456883
46,827.4541641201057
47,827.4789345270643
48,827.5040415797608
49,827.5293760581943
50,827.5548371907089
51,827.5803330339447
52,827.6057807506166
53,827.6311067867877
54,827.6562469523398
55,827.6811464097482
56,827.7057595766769
57,827.7300499476055
58,827.75398983948
59,827.7775600666643
60,827.8007495509285
61,827.8235548724073
62,827.8459797675491
63,827.8680345805881
64,827.8897356760209
65,827.9111048203805
66,827.9321685421457
67,827.9529574794332
68,827.9735057261548
69,827.9938501877136
70,828.0140299564189
71,828.0340857148924
72,828.054059173281
73,828.0739925435628
74,828.0939280522655
75,828.1139074919198
76,828.1339718113012
77,828.1541607443542
78,828.1745124773998
79,828.1950633539606
80,828.2158476166284
81,828.2368971861703
82,828.2582414796436
83,828.2799072715233
84,828.301918604019
85,828.3242967537677
86,828.3470602611415
87,828.3702250255401
88,828.3938044658397
89,828.4178097402805
90,828.4422500153046
91,828.4671327693321
92,828.4924641159447
93,828.5182491310861
94,828.5444921699758
95,828.5711971613548
96,828.5983678697575
97,828.6260081204912
98,828.6541219859674
99,828.6827139348758
100,828.711788946943
101,828.7413525957954
102,828.7714111011924
103,828.8019713501121
104,828.8330408843785
105,828.8646278513672
106,828.8967409145854
107,828.9293891227746
108,828.9625817386963
109,828.9963280307136
110,829.030637031307
111,829.0655172672257
112,829.1009764667042
113,829.137021250196
114,829.1736568118544
115,829.2108865990002
116,829.2487119961563
117,829.2871320194058
118,829.3261430261979
119,829.3657384452171
120,829.4059085303396
121,829.4466401420332
122,829.4879165590967
123,829.5297173236653
124,829.5720181228671
125,829.6147907110035
126,829.6580028760422
127,829.7016184532566
128,829.745597387149
129,829.7898958407206
130,829.8344663491504
131,829.879258013568
132,829.9242167299619
133,829.9692854478
134,830.014404452421
135,830.0595116654102
136,830.1045429586283
137,830.1494324797507
138,830.194112989083
139,830.238516208655
140,830.2825731852871
141,830.3262146694287
142,830.3693715108764
143,830.4119750711156
144,830.4539576505325
145,830.4952529274412
146,830.5357964046773
147,830.5755258582008
148,830.6143817807117
149,830.6523078116654
150,830.6892511435296
151,830.7251628931737
152,830.7599984275186
153,830.7937176341482
154,830.8262851303278
155,830.8576704073159
156,830.8878479100682
157,830.9167970545586
158,830.944502186019
159,830.9709524821599
160,830.9961418062162
161,831.020068515035
162,831.042735227092
163,831.0641485548388
164,831.0843188058742
165,831.103259658254
166,831.1209878163313
167,831.137522654163
168,831.1528858531301
169,831.1671010387614
170,831.1801934191551
171,831.1921894246236
172,831.2031163462158
173,831.2130019703009
174,831.2218742074439
175,831.2297607155481
176,831.2366885188775
177,831.2426836260757
178,831.2477706520315
179,831.2519724500922
180,831.2553097618145
181,831.2578008909431
182,831.2594614073599
183,831.2603038860497
184,831.2603376857143
185,831.2595687713923
186,831.2579995854438
187,831.2556289715586
188,831.2524521564981
189,831.2484607934003
190,831.243643068437
191,831.2379838698923
192,831.2314650162222
193,831.2240655380007
194,831.2157620079037
195,831.2065289126525
196,831.1963390610232
197,831.1851640225751
198,831.172974592191
199,831.1597412752554
200,831.1454347874995
201,831.130026562889
202,831.113489262637
203,831.0957972780185
204,831.0769272187569
205,831.0568583776628
206,831.0355731618249
207,831.0130574817396
208,830.9893010922569
209,830.9642978823385
210,830.9380461136317
211,830.9105486100999
212,830.88181290173
213,830.851851324603
214,830.8206810782565
215,830.7883242403854
216,830.7548077389566
217,830.7201632823054
218,830.6844272481344
219,830.64764053245
220,830.6098483598055
221,830.5711000572043
222,830.5314487954607
223,830.4909513031143
224,830.4496675586782
225,830.4076604668213
226,830.364995523172
227,830.3217404714959
228,830.2779649566473
229,830.2337401768428
230,830.1891385390319
231,830.1442333214895
232,830.0990983483754
233,830.0538076814248
234,830.008435333531
235,829.9630550078173
236,829.9177398644637
237,829.8725623163631
238,829.8275938535008
239,829.7829048945442
240,829.7385646623644
241,829.6946410782884
242,829.651200668247
243,829.6083084730165
244,829.5660279545156
245,829.5244208903991
246,829.4835472497836
247,829.4434650440247
248,829.4042301483526
249,829.3658960927504
250,829.3285138231628
251,829.2921314363683
252,829.2567938935018
253,829.2225427183379
254,829.1894156872664
255,829.1574465186991
256,829.1266645704767
257,829.0970945543679
258,829.0687562768702
259,829.0416644154519
260,829.0158283390579
261,828.9912519806459
262,828.9679337673806
263,828.9458666113014
264,828.9250379606997
265,828.9054299106273
266,828.8870193697414
267,828.8697782798849
268,828.853673884464
269,828.838669041611
270,828.8247225779139
271,828.811789678155
272,828.7998223061967
273,828.788769651824
274,828.7785785980566
275,828.7691942033413
276,828.7605601928778
277,828.7526194526405
278,828.7453145187677
279,828.7385880547644
280,828.7323833097898
281,828.7266445527003
282,828.7213174779798
283,828.7163495811272
284,828.7116905023017
285,828.70729233774
286,828.7031099185492
287,828.6991010561443
288,828.6952267530644
289,828.69145137746
290,828.6877427995069
291,828.6840724884236
292,828.6804155695456
293,828.6767508421099
294,828.6730607600776
295,828.6693313801003
296,828.6655522819763
297,828.6617164672205
298,828.6578202408002
299,828.6538630803506
300,828.6498474968104
301,828.6457788902424
302,828.6416654040798
303,828.6375177799642
304,828.6333492136582
305,828.6291752102645
306,828.6250134347491
307,828.6208835526027
308,828.6168070557147
309,828.6128070694931
310,828.608908138123
311,828.6051359854554
312,828.6015172497323
313,828.5980791916344
314,828.5948493770725
315,828.5918553381117
316,828.5891242165301
317,828.5866823945473
318,828.5845551172216
319,828.5827661121082
320,828.5813372140582
321,828.5802880052646
322,828.5796354813774
323,828.5793937530403
324,828.5795737890658
325,828.5801832041111
326,828.5812260914265
327,828.5827029002002
328,828.5846103566779
329,828.5869414279919
330,828.5896853271418
331,828.5928275568082
332,828.5963499886496
333,828.6002309734951
334,828.6044454768875
335,828.6089652345562
336,828.6137589237067
337,828.6187923477304
338,828.6240286332837
339,828.6294284394024
340,828.6349501784238
341,828.6405502480865
342,828.6461832737058
343,828.651802359181
344,828.6573593458222
345,828.6628050785533
346,828.668089680039
347,828.6731628345051
348,828.6779740839058
349,828.6824731390121
350,828.686610206692
351,828.6903363324255
352,828.6936037547783
353,828.6963662668869
354,828.698579579085
355,828.7002016761951
356,828.7011931623136
357,828.7015175851742
358,828.7011417317682
359,828.7000358871975
360,828.6981740496335
361,828.695534095435
362,828.6920978897313
363,828.6878513391456
364,828.682784385022
365,828.676890937747
366,828.6701687554936
367,828.6626192733106
368,828.6542473902147
369,828.6450612229065
370,828.6350718356246
371,828.6242929568787
372,828.6127406946956
373,828.6004332615213
374,828.5873907178459
375,828.5736347408705
376,828.5591884221114
377,828.5440760960395
378,828.5283232004467
379,828.5119561679358
380,828.4950023465211
381,828.477489945806
382,828.4594480037846
383,828.4409063685742
384,828.4218956897398
385,828.4024474150643
386,828.3825937898215
387,828.3623678561836
388,828.341803450452
389,828.3209351957988
390,828.299798488607
391,828.2784294775738
392,828.2568650363351
393,828.2351427316838
394,828.2133007897078
395,828.191378061452
396,828.169413988832
397,828.147448571196
398,828.1255223331586
399,828.1036762944235
400,828.0819519419243
401,828.0603912042046
402,828.0390364281037
403,828.0179303583158
404,827.9971161204957
405,827.9766372079049
406,827.9565374703863
407,827.9368611033334
408,827.9176526336038
409,827.8989568989529
410,827.880819017421
411,827.8632843432217
412,827.846398406331
413,827.8302068342465
414,827.8147552557409
415,827.8000891871058
416,827.7862539012219
417,827.7732942793656
418,827.7612546456086
419,827.7501785840816
420,827.7401087399433
421,827.73108660541
422,827.7231522927461
423,827.7163442967391
424,827.7106992496393
425,827.7062516712973
426,827.7030337160761
427,827.7010749166368
428,827.7004019241136
429,827.7010382452038
430,827.7030039784707
431,827.7063155531389
432,827.7109854730966
433,827.7170220673992
434,827.7244292474677
435,827.733206271026
436,827.7433475135839
437,827.7548422498597
438,827.7676744498293
439,827.7818225964533
440,827.7972595334593
441,827.8139523513596
442,827.8318623188087
443,827.8509448655792
444,827.8711496232074
445,827.8924205289654
446,827.9146959974565
447,827.9379091620584
448,827.9619881863757
449,827.986856643848
450,828.0124339611755
451,828.0386359183935
452,828.065375196056
453,828.0925619589862
454,828.1201044667308
455,828.1479097027451
456,828.1758840164005
457,828.2039337732618
458,828.2319660096122
459,828.2598890874023
460,828.2876133458668
461,828.3150517455787
462,828.3421204993576
463,828.368739682559
464,828.3948338135837
465,828.4203323944713
466,828.4451704011863
467,828.4692887136437
468,828.4926344768064
469,828.5151613866038
470,828.5368298978839
471,828.557607355382
472,828.5774680519052
473,828.5963932202893
474,828.6143709672532
475,828.6313961579275
476,828.6474702595223
477,828.6626011516853
478,828.6768029099984
479,828.6900955676551
480,828.7025048586576
481,828.7140619442297
482,828.7248031227507
483,828.7347695221448
484,828.7440067723783
485,828.7525646550823
486,828.7604967276474
487,828.7678599201961
488,828.7747141050769
489,828.7811216394451
490,828.7871468820749
491,828.7928556860954
492,828.798314870092
493,828.803591670838
494,828.8087531814601
495,828.8138657788102
496,828.8189945434399
497,828.8242026753018
498,828.8295509084626
499,828.835096928706
500,828.8408947988718
501,828.8469943980499
502,828.8534408820808
503,828.8602741738313
504,828.8675284923219
505,828.8752319300937
506,828.8834060881421
507,828.8920657768782
508,828.9012187895266
509,828.9108657512302
510,828.9210000435775
511,828.931607801279
512,828.942667976271
513,828.9541524647575
514,828.9660262937994
515,828.9782478650412
516,828.990769253628
517,829.003536560377
518,829.016490315034
519,829.0295659282467
520,829.0426941901608
521,829.0558018142959
522,829.0688120257554
523,829.081645191696
524,829.0942194891676
525,829.1064516022475
526,829.1182574383505
527,829.129552853091
528,829.1402543735101
529,829.1502799103141
530,829.159549450851
531,829.1679857258812
532,829.1755148446055
533,829.1820668937377
534,829.1875764976096
535,829.1919833375231
536,829.1952326298219
537,829.1972755632294
538,829.198069696524
539,829.1975793174665
540,829.195775763307
541,829.1926377025344
542,829.1881513767536
543,829.182310800377
544,829.1751179140409
545,829.1665826857804
546,829.1567231528669
547,829.1455653975122
548,829.1331434513702
549,829.1194991262606
550,829.104681770825
551,829.0887479541447
552,829.0717610773868
553,829.0537909136078
554,829.0349130751903
555,829.015208409574
556,828.9947623273376
557,828.9736640709192
558,828.9520059355723
559,828.9298824558241
560,828.907389570955
561,828.8846237823113
562,828.8616813139039
563,828.8386572860401
564,828.8156449100999
565,828.7927347115382
566,828.7700137878184
567,828.7475651078669
568,828.7254668594146
569,828.7037918501563
570,828.6826069679109
571,828.6619727039698
572,828.6419427429516
573,828.6225636218151
574,828.6038744598966
575,828.5859067608399
576,828.5686842866218
577,828.5522230039654
578,828.5365311037266
579,828.5216090936146
580,828.507449963757
581,828.4940394233518
582,828.4813562050099
583,828.4693724316105
584,828.4580540390236
585,828.4473612471035
586,828.4372490707339
587,828.4276678625037
588,828.4185638790246
589,828.409879863887
590,828.4015556413759
591,828.3935287161738
592,828.3857348752219
593,828.3781087884686
594,828.370584605341
595,828.3630965440296
596,828.3555794714866
597,828.3479694730418
598,828.3402044106433
599,828.3322244674088
600,828.3239726740547
601,828.3153954110874
602,828.3064428801117
603,828.2970695382771
604,828.2872344913318
605,828.2769018424194
606,828.2660409948433
607,828.2546269071453
608,828.2426402985768
609,828.2300678033499
610,828.2169020730545
611,828.2031418275242
612,828.1887918548005
613,828.1738629610079
614,828.1583718713933
615,828.1423410845149
616,828.1257986822029
617,828.1087780980367
618,828.0913178467035
619,828.0734612161697
620,828.055255924479
621,828.0367537430662
622,828.0180100884284
623,827.9990835838415
624,827.9800355927233
625,827.9609297251063
626,827.9418313185283
627,827.922806894866
628,827.9039235958423
629,827.8852486022474
630,827.8668485447442
631,827.848788916519
632,827.8311334989012
633,827.8139438100507
634,827.7972785847056
635,827.7811932912102
636,827.7657396913222
637,827.7509654483921
638,827.7369137895809
639,827.7236232271586
640,827.7111273425211
641,827.6994546349036
642,827.6886284354026
643,827.6786668858914
644,827.6695829815785
645,827.6613846751773
646,827.654075039629
647,827.6476524845789
648,827.6421110193963
649,827.63744055319
650,827.6336272208633
651,827.6306537244144
652,827.6284996806946
653,827.6271419703326
654,827.6265550861402
655,827.6267114816031
656,827.6275819205615
657,827.6291358283358
658,827.6313416429799
659,827.63416716362
660,827.6375798915395
661,827.6415473592978
662,827.6460374440707
663,827.6510186632797
664,827.6564604525207
665,827.6623334268047
666,827.6686096257866
667,827.6752627423673
668,827.6822683324898
669,827.6896040025737
670,827.6972495700251
671,827.7051871916175
672,827.7134014544148
673,827.7218794245566
674,827.7306106506779
675,827.7395871204887
676,827.7488031705496
677,827.7582553503402
678,827.767942242646
679,827.7778642435294
680,827.7880233067781
681,827.7984226593177
682,827.8090664950639
683,827.8199596547042
684,827.8311072979939
685,827.842514573855
686,827.8541862923875
687,827.8661266019874
688,827.8783386742457
689,827.8908243992779
690,827.9035840944697
691,827.9166162299974
692,827.9299171749442
693,827.943480968653
694,827.9572991232005
695,827.971360464224
696,827.985651018137
697,828.0001539532661
698,828.0148495804376
699,828.0297154156709
700,828.0447263047829
701,828.0598546073389
702,828.0750704357152
703,828.0903419443121
704,828.1056356643035
705,828.1209168804342
706,828.1361500475703
707,828.1512992451884
708,828.1663286673743
709,828.1812031445279
710,828.195888691323
711,828.210353073905
712,828.2245663881627
713,828.2385016402623
714,828.2521353200785
715,828.2654479574369
716,828.2784246503046
717,828.2910555533929
718,828.3033363149882
719,828.3152684494365
720,828.3268596331598
721,828.3381239139347
722,828.3490818263728
723,828.3597604104363
724,828.3701931334313
725,828.3804197183705
726,828.3904858828301
727,828.4004429931441
728,828.4103476398134
729,828.4202611414406
730,828.4302489856994
731,828.4403802162249
732,828.4507267739402
733,828.4613628005948
734,828.4723639112668
735,828.483806441438
736,828.4957666733962
737,828.5083200464392
738,828.5215403553096
739,828.5354989414783
740,828.5502638828231
741,828.5658991892949
742,828.5824640145416
743,828.6000118947646
744,828.6185900254395
745,828.6382385845753
746,828.6589901093647
747,828.6808689322307
748,828.7038906821449
749,828.7280618571076
750,828.7533794735988
751,828.7798307987364
752,828.8073931709528
753,828.8360339149266
754,828.8657103553895
755,828.89636993189
756,828.9279504135865
757,828.9603802108385
758,828.9935787788148
759,829.0274571069561
760,829.0619182871438
761,829.0968581535188
762,829.1321659877788
763,829.1677252843401
764,829.2034145693582
765,829.2391082666153
766,829.2746776024208
767,829.309991541439
768,829.3449177458756
769,829.3793235512887
770,829.4130769529188
771,829.4460475965225
772,829.4781077673662
773,829.5091333707576
774,829.539004897533
775,829.5676083680701
776,829.5948362484588
777,829.6205883323114
778,829.644772581051
779,829.6673059142128
780,829.6881149399497
781,829.7071366157353
782,829.7243188304891
783,829.7396209011195
784,829.753013977624
785,829.7644813511708
786,829.7740186594358
787,829.7816339835593
788,829.7873478317222
789,829.7911930055219
790,829.793214346778
791,829.7934683639247
792,829.7920227388922
793,829.7889557175216
794,829.7843553890466
795,829.7783188628033
796,829.770951353031
797,829.762365185233
798,829.752678739705
799,829.7420153490681
800,829.7305021669837
801,829.7182690250382
802,829.7054472944284
803,829.6921687684775
804,829.6785645808957
805,829.6647641730091
806,829.6508943211726
807,829.6370782333553
808,829.6234347213905
809,829.6100774529984
810,829.5971142861364
811,829.5846466876652
812,829.5727692377751
813,829.5615692200123
814,829.551126294078
815,829.5415122459872
816,829.5327908087842
817,829.5250175469698
818,829.5182397985831
819,829.5124966702339
820,829.5078190821196
821,829.5042298614637
822,829.5017438830769
823,829.5003682548967
824,829.5001025449778
825,829.500939044936
826,829.50286306358
827,829.5058532437702
828,829.5098818956803
829,829.5149153404028
830,829.5209142587928
831,829.5278340414853
832,829.5356251372787
833,829.5442333984505
834,829.5536004226337
835,829.5636638916667
836,829.5743579088692
837,829.5856133377874
838,829.5973581470698
839,829.6095177667356
840,829.6220154600619
841,829.634772713119
842,829.6477096419309
843,829.6607454161773
844,829.6737986980128
845,829.6867880942281
846,829.6996326195153
847,829.7122521682843
848,829.724567992328
849,829.7365031815095
850,829.747983144607
851,829.7589360875261
852,829.7692934859357
853,829.7789905489931
854,829.7879666707644
855,829.7961658667326
856,829.8035371941025
857,829.8100351555397
858,829.8156200859733
859,829.8202585212266
860,829.8239235458653
861,829.826595116213
862,829.8282603535322
863,829.828913802186
864,829.8285576479792
865,829.8272018922819
866,829.8248644776644
867,829.8215713607422
868,829.8173565277941
869,829.8122619482489
870,829.8063374604027
871,829.7996405833769
872,829.7922362500198
873,829.784196457316
874,829.7755998335928
875,829.7665311246506
876,829.7570806030847
877,829.7473434064159
878,829.7374188109299
879,829.7274094497773
880,829.7174204855229
881,829.7075587482642
882,829.6979318505029
883,829.6886472896522
884,829.6798115489623
885,829.6715292078437
886,829.6639020727503
887,829.6570283395229
888,829.6510017971246
889,829.6459110812103
890,829.6418389847228
891,829.6388618322059
892,829.637048924289
893,829.636462057912
894,829.6371551260551
895,829.6391737985715
896,829.6425552836771
897,829.6473281679786
898,829.6535123317627
899,829.6611189356416
900,829.6701504742722
901,829.6806008925215
902,829.6924557592502
903,829.7056924940135
904,829.7202806424405
905,829.7361821964396
906,829.753351955208
907,829.7717379221071
908,829.7912817313164
909,829.8119190972823
910,829.8335802794952
911,829.8561905550287
912,829.8796706916281
913,829.903937414909
914,829.9289038644022
915,829.9544800349626
916,829.9805732025654
917,830.0070883364776
918,830.0339285025943
