frame_number,force
0,704.9636800059836
1,704.9181039849499
2,704.8726843930879
3,704.8275761284161
4,704.7829310581064
5,704.7388965781536
6,704.695614255044
7,704.6532185670445
8,704.6118357587168
9,704.5715828190074
10,704.5325665906291
11,704.4948830167283
12,704.4586165301299
13,704.423839590112
14,704.3906123707766
15,704.3589826032303
16,704.3289855710707
17,704.3006442552286
18,704.2739696201779
19,704.248961029218
20,704.2256067727677
21,704.2038846915124
22,704.183762876414
23,704.1652004295025
24,704.1481482716181
25,704.1325499848053
26,704.1183426776804
27,704.1054578622039
28,704.0938223302885
29,704.0833590188269
30,704.0739878523042
31,704.0656265533535
32,704.0581914133114
33,704.0515980167315
34,704.0457619156542
35,704.0405992511935
36,704.0360273216124
37,704.0319650973606
38,704.028333684475
39,704.0250567384013
40,704.0220608307602
41,704.0192757718959
42,704.0166348921496
43,704.0140752845027
44,704.0115380106058
45,704.0089682716145
46,704.0063155448802
47,704.0035336869576
48,704.0005810021142
49,703.9974202737357
50,703.9940187544455
51,703.9903481099865
52,703.98638431213
53,703.982107477054
54,703.9775016474433
55,703.9725545184623
56,703.9672571094774
57,703.9616033853895
58,703.9555898341338
59,703.9492150097574
60,703.942479052344
61,703.9353831964225
62,703.9279292789751
63,703.9201192575767
64,703.9119547488034
65,703.9034365964244
66,703.8945644775846
67,703.8853365531255
68,703.8757491659184
69,703.8657965892443
70,703.8554708259421
71,703.8447614578029
72,703.8336555432857
73,703.8221375604179
74,703.8101893911364
75,703.7977903433804
76,703.7849172077254
77,703.7715443459397
78,703.7576438093176
79,703.7431854850529
80,703.7281372695124
81,703.7124652680017
82,703.6961340206963
83,703.6791067531531
84,703.6613456476189
85,703.6428121294866
86,703.6234671625493
87,703.6032715472368
88,703.5821862174702
89,703.560172533596
90,703.5371925703965
91,703.5132094001727
92,703.4881873716886
93,703.462092386685
94,703.434892176638
95,703.406556583152
96,703.377057845675
97,703.3463709001102
98,703.3144736914894
99,703.281347503138
100,703.2469773034677
101,703.2113521094708
102,703.174465363388
103,703.1363153167875
104,703.0969054155358
105,703.0562446801322
106,703.014348077796
107,702.9712368843471
108,702.9269390348185
109,702.8814894620587
110,702.8349304225213
111,702.7873118079192
112,702.7386914403714
113,702.6891353469845
114,702.6387180074008
115,702.5875225650677
116,702.5356409909098
117,702.4831741879765
118,702.430232027918
119,702.3769333139929
120,702.3234056690045
121,702.2697853485178
122,702.2162169798306
123,702.1628532266644
124,702.1098543794108
125,702.0573878708693
126,702.0056277174632
127,701.95475388629
128,701.9049515893951
129,701.856410507968
130,701.809323950207
131,701.7638879472589
132,701.7203002921116
133,701.6787595268423
134,701.6394638841617
135,701.6026101893856
136,701.5683927286861
137,701.5370020892271
138,701.5086239771508
139,701.483438020295
140,701.4616165636414
141,701.4433234668503
142,701.428712915065
143,701.4179282561494
144,701.4111008787659
145,701.4083491456734
146,701.4097773956121
147,701.4154750257584
148,701.4255156653155
149,701.4399564494521
150,701.4588374014534
151,701.4821809294288
152,701.5099914421821
153,701.542255087283
154,701.5789396134585
155,701.6199943589214
156,701.6653503661977
157,701.7149206217616
158,701.7686004158974
159,701.8262678158745
160,701.8877842444806
161,701.9529951558465
162,702.0217308004358
163,702.0938070704782
164,702.1690264162639
165,702.2471788233122
166,702.3280428409519
167,702.4113866539761
168,702.4969691900386
169,702.5845412560041
170,702.6738466966459
171,702.7646235689797
172,702.8566053252661
173,702.949521997663
174,703.0431013780493
175,703.1370701876632
176,703.2311552325131
177,703.325084541631
178,703.4185884860152
179,703.5114008765852
180,703.6032600397772
181,703.6939098696737
182,703.7831008556964
183,703.8705910844172
184,703.9561472125878
185,704.0395454063911
186,704.1205722400888
187,704.1990255463312
188,704.2747152104563
189,704.3474639016847
190,704.4171077346816
191,704.4834968552337
192,704.5464959441214
193,704.6059846342647
194,704.6618578380179
195,704.7140259834631
196,704.7624151600643
197,704.8069671751032
198,704.8476395234204
199,704.8844052742979
200,704.9172528805414
201,704.9461859155996
202,704.9712227445739
203,704.9923961339116
204,705.0097528026288
205,705.023352915874
206,705.0332695202635
207,705.0395879196755
208,705.0424049897993
209,705.0418284298947
210,705.0379759514096
211,705.0309744052927
212,705.020958852326
213,705.0080715827202
214,704.9924610921354
215,704.9742810215489
216,704.9536890688593
217,704.9308458814209
218,704.9059139405699
219,704.8790564507783
220,704.8504362467218
221,704.8202147311429
222,704.7885508551113
223,704.7556001505526
224,704.7215138232921
225,704.6864379136125
226,704.650512530174
227,704.6138711617084
228,704.5766400693498
229,704.5389377614314
230,704.5008745523206
231,704.4625522067254
232,704.4240636700706
233,704.3854928836365
234,704.3469146804375
235,704.3083947550338
236,704.269989698575
237,704.2317470900304
238,704.1937056354408
239,704.1558953480509
240,704.1183377626242
241,704.0810461775742
242,704.0440259195544
243,704.0072746267605
244,703.9707825486349
245,703.9345328604489
246,703.8985019916285
247,703.8626599670878
248,703.8269707612682
249,703.7913926647662
250,703.7558786632637
251,703.7203768281679
252,703.6848307181573
253,703.6491797907678
254,703.6133598233293
255,703.5773033432256
256,703.5409400687198
257,703.5041973630167
258,703.4670007048047
259,703.4292741775549
260,703.3909409778179
261,703.3519239410253
262,703.3121460827289
263,703.2715311533678
264,703.2300042045651
265,703.187492164095
266,703.1439244154002
267,703.0992333765811
268,703.0533550736722
269,703.0062297036353
270,702.9578021833976
271,702.9080226820706
272,702.8568471340909
273,702.8042377311672
274,702.7501633903648
275,702.6946001944023
276,702.6375317987732
277,702.5789497993699
278,702.5188540543361
279,702.4572529548764
280,702.394163641391
281,702.3296121634362
282,702.2636335842506
283,702.1962720321153
284,702.1275807009268
285,702.0576218012119
286,701.9864664614288
287,701.9141945787204
288,701.8408946184904
289,701.7666633627007
290,701.6916056070338
291,701.6158338070526
292,701.5394676736562
293,701.4626337187023
294,701.3854647522783
295,701.308099333324
296,701.2306811750827
297,701.1533585065135
298,701.0762833906168
299,700.999611000633
300,700.9234988551225
301,700.8481060131014
302,700.7735922311325
303,700.7001170858264
304,700.6278390672492
305,700.5569146506112
306,700.4874973549216
307,700.41973679816
308,700.3537777592953
309,700.2897592584333
310,700.2278136674707
311,700.1680658645283
312,700.1106324455309
313,700.0556210051577
314,700.0031294970717
315,699.9532456804641
316,699.9060466570642
317,699.8615985001406
318,699.819955975125
319,699.7811623507284
320,699.7452492995177
321,699.7122368869001
322,699.6821336467051
323,699.6549367402495
324,699.6306321943882
325,699.6091952128004
326,699.5905905537603
327,699.5747729671397
328,699.5616876834281
329,699.5512709477871
330,699.5434505921223
331,699.538146637747
332,699.535271920745
333,699.5347327322493
334,699.536429467014
335,699.5402572758484
336,699.5461067200065
337,699.5538644275308
338,699.5634137519748
339,699.5746354325338
340,699.5874082519277
341,699.6016096858898
342,699.6171165372175
343,699.6338055481881
344,699.6515539867457
345,699.6702402031506
346,699.6897441542113
347,699.7099478919853
348,699.7307360136255
349,699.7519960693926
350,699.7736189266609
351,699.7954990886853
352,699.8175349676723
353,699.8396291121135
354,699.8616883881629
355,699.8836241140779
356,699.9053521456935
357,699.9267929097601
358,699.9478713809606
359,699.9685169981072
360,699.9886635161859
361,700.0082487936313
362,700.0272145172694
363,700.045505869165
364,700.0630711399797
365,700.0798612937101
366,700.095829489969
367,700.1109305720618
368,700.1251205313723
369,700.1383559608568
370,700.1505935127657
371,700.1617893775483
372,700.1718988013429
373,700.1808756579378
374,700.1886720879136
375,700.1952382140454
376,700.2005219391242
377,700.2044688304105
378,700.2070220934894
379,700.2081226369397
380,700.2077092278936
381,700.2057187373065
382,700.2020864726046
383,700.1967465944293
384,700.1896326134421
385,700.1806779621091
386,700.1698166343801
387,700.1569838832539
388,700.1421169633159
389,700.1251559033611
390,700.1060442933313
391,700.084730069583
392,700.061166282677
393,700.0353118326221
394,700.0071321581771
395,699.976599869315
396,699.9436953147175
397,699.9084070785472
398,699.8707324023186
399,699.8306775284298
400,699.7882579623342
401,699.7434986512334
402,699.6964340789609
403,699.6471082789443
404,699.5955747686739
405,699.5418964093565
406,699.4861451937626
407,699.4284019646282
408,699.3687560658428
409,699.307304928928
410,699.244153597519
411,699.1794141924382
412,699.1132053196045
413,699.0456514230436
414,698.9768820862702
415,698.9070312874177
416,698.8362366159887
417,698.7646384608837
418,698.6923791798416
419,698.6196022599055
420,698.5464514776348
421,698.4730700667448
422,698.3995998994521
423,698.3261806859936
424,698.2529491950926
425,698.1800384972981
426,698.1075772333206
427,698.0356889106124
428,697.964491233153
429,697.8940954711665
430,697.824605878761
431,697.7561191679818
432,697.6887240473927
433,697.6225008320822
434,697.5575211305388
435,697.4938476130158
436,697.4315338659235
437,697.3706243367706
438,697.3111543735276
439,697.2531503607914
440,697.1966299530359
441,697.1416024030286
442,697.0880689814296
443,697.0360234815604
444,696.985452801247
445,696.9363375918379
446,696.8886529635715
447,696.8423692366566
448,696.7974527283836
449,696.7538665677623
450,696.7115715302527
451,696.6705268860446
452,696.6306912557777
453,696.59202346723
454,696.5544834053065
455,696.5180328461977
456,696.4826362657336
457,696.4482616124512
458,696.4148810375447
459,696.3824715757207
460,696.3510157721023
461,696.3205022505616
462,696.2909262185776
463,696.2622899031679
464,696.234602911941
465,696.207882513147
466,696.1821538288206
467,696.157449935514
468,696.1338118677218
469,696.1112885203856
470,696.0899364492216
471,696.069819570587
472,696.0510087651546
473,696.0335813910785
474,696.0176207127763
475,696.00321525155
476,695.9904580647102
477,695.9794459609349
478,695.9702786613486
479,695.963057917941
480,695.95788660274
481,695.9548677819682
482,695.9541037892564
483,695.95569531107
484,695.9597404957568
485,695.9663340952884
486,695.9755666467161
487,695.9875236990604
488,696.0022850904363
489,696.0199242790686
490,696.0405077303922
491,696.0640943611292
492,696.0907350407635
493,696.1204721516096
494,696.1533392103286
495,696.1893605552569
496,696.2285511044989
497,696.2709161894151
498,696.3164514672588
499,696.3651429152378
500,696.4169669061733
501,696.4718903637128
502,696.52987099342
503,696.5908575852037
504,696.6547903820173
505,696.7216015092382
506,696.7912154587515
507,696.8635496217831
508,696.9385148646573
509,697.0160161411147
510,697.095953133491
511,697.1782209138918
512,697.2627106164683
513,697.3493101126147
514,697.4379046812405
515,697.5283776658887
516,697.6206111099932
517,697.7144863615086
518,697.8098846385867
519,697.9066875490836
520,698.0047775586867
521,698.104038405023
522,698.2043554573527
523,698.3056160228089
524,698.4077096009534
525,698.5105280893889
526,698.6139659442641
527,698.7179203000062
528,698.8222910519697
529,698.9269809042668
530,699.0318953839002
531,699.1369428222151
532,699.2420343052551
533,699.3470835949204
534,699.4520070224419
535,699.5567233549638
536,699.6611536356443
537,699.7652209980138
538,699.86885045621
539,699.971968673572
540,700.0745037126053
541,700.1763847696504
542,700.2775418979895
543,700.3779057238308
544,700.4774071604718
545,700.5759771266081
546,700.6735462751893
547,700.7700447395063
548,700.8654019030039
549,700.9595461982393
550,701.0524049388183
551,701.1439041867769
552,701.2339686570341
553,701.3225216600218
554,701.4094850831236
555,701.4947794110565
556,701.5783237849494
557,701.6600360995731
558,701.7398331375745
559,701.817630738486
560,701.893343999148
561,701.9668875016542
562,702.0381755653113
563,702.1071225201816
564,702.1736430008751
565,702.2376522595491
566,702.2990664962305
567,702.3578032032489
568,702.4137815198843
569,702.46692259373
570,702.5171499462231
571,702.5643898406302
572,702.6085716513188
573,702.6496282333459
574,702.6874962911528
575,702.7221167444499
576,702.753435088558
577,702.7814017461969
578,702.8059724083134
579,702.8271083626076
580,702.8447768091205
581,702.8589511621999
582,702.8696113376742
583,702.8767440237757
584,702.8803429345685
585,702.8804090451282
586,702.8769508080633
587,702.8699843508066
588,702.8595336523344
589,702.8456306966795
590,702.8283155990746
591,702.8076366993092
592,702.7836506165212
593,702.7564222605433
594,702.7260247967856
595,702.6925395636288
596,702.6560559426886
597,702.6166711830191
598,702.5744901808405
599,702.5296252170128
600,702.4821956551818
601,702.4323276041881
602,702.3801535488523
603,702.3258119533041
604,702.2694468405826
605,702.2112073518953
606,702.1512472893377
607,702.0897246468577
608,702.0268011348429
609,701.9626417032064
610,701.8974140663186
611,701.8312882310634
612,701.7644360274049
613,701.6970306399593
614,701.6292461394501
615,701.561257013958
616,701.493237700553
617,701.4253621177427
618,701.3578031984176
619,701.2907324222763
620,701.2243193467871
621,701.1587311368248
622,701.0941320945298
623,701.0306831916168
624,700.9685416059571
625,700.9078602634262
626,700.8487873856096
627,700.7914660442683
628,700.7360337242395
629,700.6826218973354
630,700.631355610716
631,700.5823530941657
632,700.535725391427
633,700.4915760208256
634,700.4500006698834
635,700.4110869279414
636,700.374914060191
637,700.3415528256655
638,700.3110653404343
639,700.283504985514
640,700.2589163570769
641,700.2373352546758
642,700.2187887015846
643,700.2032949902446
644,700.1908637457121
645,700.1814960012939
646,700.1751842826942
647,700.1719126989799
648,700.1716570404042
649,700.1743848855791
650,700.1800557239995
651,700.1886211033501
652,700.2000248127661
653,700.2142031128126
654,700.2310850212627
655,700.2505926617873
656,700.2726416805652
657,700.2971417331573
658,700.3239970405579
659,700.3531070094855
660,700.3843669082879
661,700.4176685867664
662,700.4529012260078
663,700.4899521029873
664,700.5287073542852
665,700.5690527239183
666,700.6108742820423
667,700.6540591034616
668,700.6984958963089
669,700.7440755713924
670,700.7906917424447
671,700.8382411483719
672,700.8866239911899
673,700.9357441869323
674,700.9855095303293
675,701.0358317769688
676,701.0866266489359
677,701.1378137714661
678,701.1893165487676
679,701.2410619870274
680,701.2929804722147
681,701.3450055098051
682,701.3970734327344
683,701.4491230825583
684,701.5010954672772
685,701.552933398315
686,701.6045811091267
687,701.6559838585746
688,701.707087523035
689,701.757838181925
690,701.8081817019984
691,701.8580633263288
692,701.9074272742822
693,701.9562163591356
694,702.0043716305545
695,702.051832049925
696,702.0985342070845
697,702.1444120867257
698,702.1893968913159
699,702.2334169249175
700,702.2763975395118
701,702.3182611432253
702,702.3589272685949
703,702.3983126985099
704,702.4363316474319
705,702.4728959957062
706,702.5079155749764
707,702.5412985026784
708,702.5729515631945
709,702.6027806323673
710,702.6306911405678
711,702.6565885675383
712,702.6803789601067
713,702.7019694620067
714,702.7212688440155
715,702.7381880232012
716,702.7526405625163
717,702.7645431454034
718,702.7738160228869
719,702.7803834318458
720,702.784173982987
721,702.7851210161508
722,702.7831629197103
723,702.7782434105409
724,702.7703117718368
725,702.7593230480006
726,702.7452381984056
727,702.7280242142451
728,702.7076542044375
729,702.6841074574851
730,702.6573694861522
731,702.627432060708
732,702.5942932346223
733,702.5579573646355
734,702.5184351254995
735,702.4757435185513
736,702.4299058728085
737,702.380951837654
738,702.328917366925
739,702.2738446943366
740,702.2157822992374
741,702.1547848604923
742,702.0909131958505
743,702.0242341845333
744,701.9548206712893
745,701.8827513503237
746,701.8081106274764
747,701.7309884592968
748,701.6514801684958
749,701.5696862362835
750,701.4857120725259
751,701.3996677642236
752,701.3116678021257
753,701.2218307851114
754,701.1302791024785
755,701.0371385951574
756,700.9425381979331
757,700.8466095659388
758,700.74948668955
759,700.6513055017523
760,700.5522034808268
761,700.4523192491408
762,700.351792166583
763,700.2507619155292
764,700.1493680739025
765,700.0477496740954
766,699.9460447475441
767,699.8443898564266
768,699.7429196147173
769,699.6417662010067
770,699.5410588659199
771,699.4409234379559
772,699.3414818326224
773,699.2428515702968
774,699.1451453084868
775,699.0484703948756
776,698.9529284491309
777,698.8586149834556
778,698.765619073278
779,698.6740230896723
780,698.5839025041352
781,698.4953257746963
782,698.4083543202307
783,698.3230425871583
784,698.2394382096347
785,698.1575822615658
786,698.0775095968809
787,697.9992492732938
788,697.9228250536647
789,697.8482559776597
790,697.7755569946308
791,697.7047396467108
792,697.6358127895361
793,697.5687833372212
794,697.503657018147
795,697.4404391284576
796,697.3791352707631
797,697.3197520665369
798,697.2622978321715
799,697.2067832104251
800,697.1532217505546
801,697.101630431243
802,697.0520301205636
803,697.004445967338
804,696.9589077189073
805,696.9154499615047
806,696.8741122806523
807,696.8349393398255
808,696.7979808760297
809,696.7632916113573
810,696.730931080374
811,696.7009633741573
812,696.6734568026205
813,696.6484834771703
814,696.626118815801
815,696.6064409727439
816,696.5895301952507
817,696.5754681112949
818,696.5643369537052
819,696.5562187279526
820,696.5511943321924
821,696.5493426392409
822,696.5507395509563
823,696.5554570359993
824,696.5635621622237
825,696.5751161349476
826,696.590173351875
827,696.6087804844633
828,696.6309755946143
829,696.6567872954441
830,696.6862339656486
831,696.7193230277071
832,696.7560502998452
833,696.796399430285
834,696.8403414206581
835,696.887834244167
836,696.9388225630372
837,696.993237548548
838,697.0509968054248
839,697.1120044011694
840,697.1761510003029
841,697.2433141031825
842,697.3133583885681
843,697.3861361584153
844,697.461487882683
845,697.5392428413148
846,697.6192198599693
847,697.7012281354462
848,697.7850681458227
849,697.870532638746
850,697.9574076891361
851,698.0454738150821
852,698.1345071386197
853,698.2242805771223
854,698.3145650515211
855,698.405130698977
856,698.4957480792569
857,698.586189365672
858,698.6762295131324
859,698.7656473976534
860,698.8542269232037
861,698.941758092716
862,699.0280380400509
863,699.1128720185187
864,699.196074339411
865,699.2774692517726
866,699.3568917535437
867,699.4341883245695
868,699.5092175731071
869,699.581850788696
870,699.6519723958071
871,699.719480304791
872,699.7842861587031
873,699.8463154756395
874,699.9055076864382
875,699.9618160682268
876,700.015207575869
877,700.06566257513
878,700.113174482545
879,700.1577493178985
880,700.1994051765446
881,700.23817163063
882,700.2740890700265
883,700.3072079945765
884,700.3375882685781
885,700.3652983465895
886,700.390414477551
887,700.4130198928912
888,700.4332039841667
889,700.4510614766014
890,700.4666916057762
891,700.4801973050569
892,700.4916844113009
893,700.50126089636
894,700.5090361318152
895,700.5151201938353
896,700.5196232137702
897,700.5226547781475
898,700.5243233794873
899,700.5247359171216
900,700.5239972453438
901,700.5222097649703
902,700.5194730536591
903,700.5158835298882
904,700.5115341455651
905,700.5065141032206
906,700.5009085954507
907,700.4947985660307
908,700.4882604935027
909,700.4813661990255
910,700.4741826810193
911,700.4667719795658
912,700.4591910734731
913,700.4514918124256
914,700.4437208859422
915,700.4359198301086
916,700.4281250722072
917,700.4203680122207
