frame_number,force
0,618.3924000001581
1,618.3117716666924
2,618.2325512593463
3,618.1561200691777
4,618.0838070402691
5,618.0168647546046
6,617.9564475929857
7,617.9035922149918
8,617.8592002932976
9,617.8240234239192
10,617.7986502169913
11,617.7834956441736
12,617.7787927965378
13,617.784587371564
14,617.8007354390112
15,617.8269051753737
16,617.862583171033
17,617.9070856453175
18,617.9595746139925
19,618.019078840744
20,618.0845192317574
21,618.154738106044
22,618.2285314565412
23,618.3046829724133
24,618.3819983251752
25,618.4593380833418
26,618.5356476226564
27,618.6099825662403
28,618.6815286253473
29,618.7496151437224
30,618.8137220752853
31,618.8734804878748
32,618.928666979542
33,618.9791926568361
34,619.0250876025431
35,619.0664820273907
36,619.103585450229
37,619.1366652132903
38,619.1660254703553
39,619.1919875952387
40,619.2148727675593
41,619.2349872577348
42,619.2526106677419
43,619.2679871535917
44,619.2813194886437
45,619.2927657248704
46,619.3024381800078
47,619.3104045156159
48,619.3166907426388
49,619.3212860553024
50,619.3241494076684
51,619.3252176839975
52,619.3244151831966
53,619.32166397433
54,619.3168945374211
55,619.3100560364328
56,619.3011256073502
57,619.2901161891617
58,619.277082663356
59,619.2621263167879
60,619.2453977774741
61,619.227098539517
62,619.2074810610779
63,619.1868473069276
64,619.1655455927389
65,619.1439656727201
66,619.1225321465926
67,619.1016964122726
68,619.0819275519309
69,619.0637026765669
70,619.0474972800333
71,619.0337759993399
72,619.0229838808459
73,619.0155379647799
74,619.0118189062327
75,619.0121625197036
76,619.016851463039
77,619.0261075794518
78,619.0400855477118
79,619.0588683914422
80,619.0824651112624
81,619.110810373948
82,619.1437659814127
83,619.1811237905707
84,619.2226097881528
85,619.2678890841427
86,619.316571679648
87,619.3682189864527
88,619.4223511753321
89,619.4784554486871
90,619.5359952453077
91,619.5944202067745
92,619.6531765093122
93,619.7117169694056
94,619.7695102678679
95,619.8260487468592
96,619.8808544363652
97,619.9334831410091
98,619.983526540354
99,620.0306123854226
100,620.0744030344767
101,620.1145927304102
102,620.1509041672417
103,620.1830850098781
104,620.2109050458154
105,620.2341545080657
106,620.2526438799175
107,620.2662052763244
108,620.2746953277269
109,620.2779993602479
110,620.276036568483
111,620.2687658173226
112,620.2561917019623
113,620.2383705510948
114,620.2154161272161
115,620.187504763156
116,620.1548795481659
117,620.1178530338844
118,620.0768078833854
119,620.0321949653287
120,619.9845285757132
121,619.9343787326347
122,619.8823607885183
123,619.8291228479954
124,619.7753316189893
125,619.7216573878303
126,619.6687588069037
127,619.6172680828479
128,619.5677769780616
129,619.5208238841891
130,619.4768821576297
131,619.436349913532
132,619.3995415280564
133,619.3666811746382
134,619.3378987539672
135,619.3132284860619
136,619.2926102231116
137,619.2758933235128
138,619.2628427772065
139,619.2531471705963
140,619.2464280112875
141,619.2422499383489
142,619.2401314303482
143,619.2395557323299
144,619.2399818012268
145,619.240855104888
146,619.2416181138522
147,619.2417203355676
148,619.240627811105
149,619.2378321226352
150,619.2328590663836
151,619.2252771523472
152,619.2147059801772
153,619.2008243315697
154,619.1833775754505
155,619.1621838291774
156,619.1371383751458
157,619.1082160646221
158,619.075471660627
159,619.0390381388479
160,618.9991229293367
161,618.9560020765072
162,618.9100123930507
163,618.86154187761
164,618.8110188862689
165,618.7589006713981
166,618.705661836886
167,618.6517830563097
168,618.5977402165765
169,618.5439940778567
170,618.4909805464742
171,618.4391016907839
172,618.3887177030848
173,618.3401401302905
174,618.2936267968346
175,618.2493788193286
176,618.2075399125255
177,618.1681978887943
178,618.1313880073953
179,618.0970976970269
180,618.065272114765
181,618.0358200178588
182,618.0086195774213
183,617.9835240363622
184,617.9603673627884
185,617.9389701483278
186,617.9191459402103
187,617.9007080345078
188,617.8834765571902
189,617.8672854764275
190,617.8519890755254
191,617.8374674011328
192,617.823630260804
193,617.8104194086686
194,617.7978086134202
195,617.7858014212949
196,617.7744266360536
197,617.7637317458009
198,617.7537746530638
199,617.7446141614948
200,617.7362998296088
201,617.7288620038964
202,617.7223029801723
203,617.7165902162242
204,617.7116523082824
205,617.7073780874903
206,617.7036187651569
207,617.7001926472699
208,617.6968916246319
209,617.6934884798933
210,617.6897440865818
211,617.6854138261509
212,617.6802529624864
213,617.6740211589156
214,617.6664866240744
215,617.6574304006698
216,617.6466510926151
217,617.6339700015604
218,617.6192363247924
219,617.6023318291651
220,617.5831743592564
221,617.5617196963057
222,617.5379615471588
223,617.5119296885773
224,617.4836865208109
225,617.4533225138737
226,617.4209511906039
227,617.3867043155124
228,617.3507278698166
229,617.3131792381561
230,617.2742258303632
231,617.2340451193421
232,617.1928257954576
233,617.1507694516138
234,617.108092043995
235,617.0650244671702
236,617.0218119342181
237,616.9787122640554
238,616.9359934196916
239,616.8939306249298
240,616.8528031951244
241,616.8128910112536
242,616.7744704629212
243,616.7378096991522
244,616.70316311407
245,616.6707651192784
246,616.6408233812733
247,616.6135118029707
248,616.5889636110617
249,616.5672650006529
250,616.5484498780066
251,616.5324962764155
252,616.5193249221098
253,616.5088001571423
254,616.5007330601409
255,616.4948863127402
256,616.4909802469147
257,616.4886995349362
258,616.4877000659
259,616.487615678602
260,616.4880645957486
261,616.4886555715449
262,616.4889938647667
263,616.4886872073856
264,616.487351999343
265,616.4846199870392
266,616.4801456083626
267,616.4736140104457
268,616.4647495184855
269,616.4533241128041
270,616.4391653411093
271,616.4221631194231
272,616.4022750014558
273,616.3795295748748
274,616.3540276095412
275,616.3259405606719
276,616.2955062116906
277,616.2630216457788
278,616.2288341531845
279,616.1933309058292
280,616.1569282407783
281,616.1200612815904
282,616.0831744514053
283,616.0467132037819
284,616.0111170437591
285,615.9768137045116
286,615.944214244724
287,615.9137088316243
288,615.8856630369044
289,615.8604145691144
290,615.8382704384753
291,615.8195045222253
292,615.804355385926
293,615.7930241386015
294,615.78567214582
295,615.7824185685764
296,615.7833378551718
297,615.7884574387909
298,615.7977559858394
299,615.8111626012254
300,615.8285574006554
301,615.8497737995988
302,615.874602780432
303,615.9027992950423
304,615.9340907876248
305,615.968187532615
306,616.0047941087518
307,616.0436209971356
308,616.0843951387066
309,616.1268683605874
310,616.1708228291315
311,616.2160730506141
312,616.2624643588038
313,616.3098681860369
314,616.3581746004269
315,616.4072826256337
316,616.4570888692506
317,616.5074750765924
318,616.5582954024862
319,616.6093643582087
320,616.6604464132636
321,616.7112480661248
322,616.761412948613
323,616.8105203626959
324,616.8580876097946
325,616.9035764077153
326,616.9464034341022
327,616.9859546296613
328,617.0216025221445
329,617.0527255907288
330,617.0787285450106
331,617.0990623180322
332,617.1132426357724
333,617.1208662824756
334,617.12162453124
335,617.1153134547076
336,617.1018409132665
337,617.081230087587
338,617.0536196143727
339,617.0192606386901
340,616.9785112564845
341,616.931828822518
342,616.8797605033383
343,616.822932353345
344,616.7620371235072
345,616.6978209557259
346,616.6310690359342
347,616.5625901868983
348,616.4932003558158
349,616.4237050703642
350,616.3548811781382
351,616.2874584267515
352,616.2221015800178
353,616.1593937941498
354,616.0998219465984
355,616.0437645603103
356,615.9914829251054
357,615.9431159722475
358,615.8986793304695
359,615.8580687190381
360,615.8210674660199
361,615.7873576125801
362,615.7565338683218
363,615.7281195898577
364,615.70158388958
365,615.6763589494759
366,615.6518566997426
367,615.6274842541505
368,615.602657779136
369,615.5768146744185
370,615.5494240108435
371,615.519995182683
372,615.4880847853233
373,615.4533018275301
374,615.4153114730925
375,615.3738375727559
376,615.3286643166044
377,615.2796373817584
378,615.2266649272466
379,615.1697186887802
380,615.1088352416643
381,615.0441172434031
382,614.9757342507169
383,614.9039226555191
384,614.8289843832276
385,614.7512841250792
386,614.6712449758171
387,614.5893424412294
388,614.5060968700978
389,614.422064403773
390,614.3378264856871
391,614.2539778717454
392,614.1711130272319
393,614.0898108581664
394,614.0106179257216
395,613.9340306206377
396,613.8604771617657
397,613.790300594785
398,613.7237440855786
399,613.6609396977434
400,613.6019015707728
401,613.546524065917
402,613.4945850799985
403,613.445754360652
404,613.3996063331048
405,613.3556367440915
406,613.3132823522398
407,613.2719428645876
408,613.2310042630338
409,613.1898625903033
410,613.1479472296805
411,613.1047427482146
412,613.0598084433067
413,613.0127947817118
414,612.963455962161
415,612.9116579452349
416,612.8573815132065
417,612.8007202048477
418,612.7418732652841
419,612.6811340478401
420,612.6188745880909
421,612.5555272925253
422,612.4915648009037
423,612.4274790836373
424,612.3637607573654
425,612.3008795017125
426,612.2392663550636
427,612.1792985076513
428,612.12128698195
429,612.065467380399
430,612.0119937654433
431,611.9609356932062
432,611.9122784078771
433,611.865926211959
434,611.8217090105662
435,611.7793918928555
436,611.7386873483058
437,611.6992694373539
438,611.6607890622339
439,611.6228894255688
440,611.5852207997414
441,611.5474538962097
442,611.5092914405994
443,611.4704779162796
444,611.4308076569675
445,611.3901314783053
446,611.3483619347545
447,611.3054771886117
448,611.2615233909106
449,611.2166153677258
450,611.1709353290194
451,611.1247293551337
452,611.0783015754739
453,611.0320061707794
454,610.9862375270297
455,610.9414189694455
456,610.8979904795656
457,610.8563957339757
458,610.8170688487663
459,610.7804213975646
460,610.7468304298815
461,610.7166281749227
462,610.6900938891165
463,610.667448045347
464,610.6488488480081
465,610.6343908549431
466,610.6241052953761
467,610.6179615910111
468,610.6158696754491
469,610.6176828837584
470,610.6232013296013
471,610.6321757736345
472,610.644312046069
473,610.6592761196524
474,610.6766999166416
475,610.6961878912857
476,610.7173243993684
477,610.7396818548092
478,610.7628296439382
479,610.7863436867976
480,610.8098163982996
481,610.8328666504979
482,610.8551492607959
483,610.8763636026949
484,610.8962611085307
485,610.9146515728289
486,610.9314081939378
487,610.9464712401086
488,610.9598501603462
489,610.9716239318524
490,610.9819394724175
491,610.9910080523139
492,610.9990998051356
493,611.0065366244304
494,611.013683863457
495,611.0209412380082
496,611.02873315652
497,611.037498488946
498,611.0476796968317
499,611.0597113200073
500,611.0740079372839
501,611.0909517862657
502,611.1108802773657
503,611.1340737471305
504,611.1607439385526
505,611.1910237887987
506,611.2249591246945
507,611.2625028358843
508,611.3035120305102
509,611.3477485879318
510,611.3948834008871
511,611.4445044099353
512,611.496128267835
513,611.5492152026247
514,611.6031864664437
515,611.6574436772765
516,611.7113893201335
517,611.7644476056221
518,611.816084780706
519,611.865827907344
520,611.9132811411723
521,611.9581386856519
522,612.0001938446424
523,612.0393438847694
524,612.075590664492
525,612.1090371321922
526,612.1398798744941
527,612.1683980141177
528,612.1949389599671
529,612.2199017200353
530,612.243718608837
531,612.2668362268639
532,612.28969659769
533,612.3127192795996
534,612.3362850776268
535,612.3607217196748
536,612.3862916283987
537,612.4131817839344
538,612.441495651824
539,612.4712472269455
540,612.5023573495163
541,612.5346525042678
542,612.5678662961989
543,612.6016437380575
544,612.6355484042052
545,612.6690723737946
546,612.7016486790544
547,612.7326657488783
548,612.761483222613
549,612.7874485865842
550,612.8099143018839
551,612.8282552998232
552,612.8418867780751
553,612.8502820506989
554,612.8529898281108
555,612.8496499360551
556,612.8400063715274
557,612.8239168016721
558,612.8013579906
559,612.7724270043175
560,612.7373383085957
561,612.6964170556909
562,612.6500890199618
563,612.5988678151681
564,612.5433401525914
565,612.4841499389557
566,612.4219820146249
567,612.3575463378487
568,612.2915633801755
569,612.2247513519767
570,612.1578156583655
571,612.0914407782533
572,612.0262845743525
573,611.9629748069983
574,611.9021073340914
575,611.8442452714937
576,611.7899183805102
577,611.7396220947537
578,611.6938157963141
579,611.652920168826
580,611.6173136740376
581,611.5873283776382
582,611.5632454791775
583,611.5452909823308
584,611.5336319539372
585,611.5283737645638
586,611.5295586200248
587,611.537165607936
588,611.5511123872523
589,611.5712585248142
590,611.5974103442234
591,611.6293270495163
592,611.6667278416002
593,611.7092997221183
594,611.7567056651332
595,611.8085928801544
596,611.8646010030793
597,611.924370162368
598,611.9875489023971
599,612.0538019056032
600,612.1228173945424
601,612.1943140548749
602,612.2680472994817
603,612.3438146879794
604,612.4214603411959
605,612.5008782359157
606,612.5820142730879
607,612.6648669573109
608,612.7494864628076
609,612.8359718522753
610,612.9244662574695
611,613.0151498978886
612,613.1082309100226
613,613.2039341013312
614,613.3024879132516
615,613.4041100186257
616,613.508992050969
617,613.6172839965749
618,613.7290788425851
619,613.8443981878318
620,613.9631796509564
621,614.0852670031318
622,614.2104039620998
623,614.3382324317569
624,614.4682956051859
625,614.6000458526332
626,614.7328568592549
627,614.8660391533492
628,614.9988579730206
629,615.1305523655554
630,615.2603545233125
631,615.387508601164
632,615.5112885431831
633,615.6310146736829
634,615.7460689072876
635,615.8559083873809
636,615.9600772470105
637,616.0582161368216
638,616.1500692713828
639,616.2354889648478
640,616.3144378187425
641,616.3869888012373
642,616.4533234450814
643,616.5137283319884
644,616.5685899271209
645,616.6183876971468
646,616.663685340677
647,616.7051199399901
648,616.7433889565917
649,616.7792352254539
650,616.8134303562786
651,616.8467571252426
652,616.8799914962015
653,616.9138848495425
654,616.9491468614177
655,616.9864293519151
656,617.0263113987643
657,617.0692861153879
658,617.1157496407715
659,617.1659929723176
660,617.2201972378009
661,617.2784328654984
662,617.3406629238258
663,617.40675071171
664,617.4764714749895
665,617.549527825508
666,617.6255680280418
667,617.7042059122973
668,617.7850409341064
669,617.8676769483013
670,617.9517385285523
671,618.0368840381566
672,618.1228149915178
673,618.2092815174411
674,618.2960839697354
675,618.3830709355487
676,618.470134066086
677,618.5572003171383
678,618.644222327067
679,618.7311677092711
680,618.8180079623178
681,618.9047075804534
682,618.9912138819276
683,619.0774480666837
684,619.1632979911886
685,619.2486130595
686,619.3332014986935
687,619.4168301387095
688,619.4992266373162
689,619.5800838828648
690,619.6590661303702
691,619.7358163338547
692,619.8099641212661
693,619.8811338908888
694,619.9489526061918
695,620.0130570575049
696,620.0731006008351
697,620.1287595635852
698,620.1797395477888
699,620.2257818025258
700,620.2666697802084
701,620.3022359747204
702,620.3323690819781
703,620.3570213241701
704,620.3762154621611
705,620.3900507365358
706,620.3987068609234
707,620.4024452750942
708,620.4016071191317
709,620.3966077388837
710,620.3879278388615
711,620.3761015435142
712,620.3617016441868
713,620.3453223422938
714,620.3275599380414
715,620.3089921282602
716,620.2901567970133
717,620.2715313699614
718,620.2535139341406
719,620.2364073451181
720,620.2204073930446
721,620.2055957965996
722,620.1919384471975
723,620.1792890212887
724,620.1673978129281
725,620.1559253858322
726,620.1444604180843
727,620.1325409378134
728,620.1196780131278
729,620.1053808334857
730,620.0891820128426
731,620.0706619229644
732,620.0494709769567
733,620.0253489943012
734,619.9981409986019
735,619.9678089657889
736,619.9344391739465
737,619.8982449687651
738,619.8595649674322
739,619.8188569171516
740,619.776687525009
741,619.7337185886611
742,619.6906897788243
743,619.648398513342
744,619.6076774613954
745,619.5693702762907
746,619.5343062374424
747,619.5032746355159
748,619.4769998819796
749,619.4561183675025
750,619.4411580399336
751,619.432521578593
752,619.4304738974989
753,619.435134462313
754,619.4464745714388
755,619.4643194249398
756,619.4883545552984
757,619.518136038332
758,619.5531038509159
759,619.5925977837275
760,619.6358753819986
761,619.6821313938117
762,619.730518141844
763,619.7801661624455
764,619.83020444735
765,619.879779709631
766,619.9280742713058
767,619.9743224109501
768,620.0178252608843
769,620.0579645108107
770,620.0942151781899
771,620.1261575607314
772,620.1534882841196
773,620.1760301446556
774,620.193740203398
775,620.2067153515316
776,620.2151944658798
777,620.2195564051971
778,620.220313412563
779,620.218099849946
780,620.2136565083529
781,620.2078109961292
782,620.2014549014658
783,620.195518526746
784,620.1909439982637
785,620.188657514485
786,620.1895414795716
787,620.1944073080575
788,620.2039697611426
789,620.2188237353712
790,620.2394243995485
791,620.2660714115684
792,620.2988976934577
793,620.337863037871
794,620.3827527259881
795,620.4331812734882
796,620.4886012793276
797,620.548317117314
798,620.6115029718428
799,620.6772245900789
800,620.744464126989
801,620.8121475076321
802,620.8791737254286
803,620.9444453971988
804,621.0068997081416
805,621.0655386495284
806,621.1194572740546
807,621.1678686580796
808,621.2101244013286
809,621.2457297983142
810,621.2743532394278
811,621.2958298763264
812,621.3101600154762
813,621.3175029741207
814,621.3181671941821
815,621.3125973290445
816,621.3013589335048
817,621.2851213769799
818,621.2646396253454
819,621.2407355311014
820,621.2142792181219
821,621.1861710301979
822,621.1573243119341
823,621.1286490667602
824,621.1010363907066
825,621.0753435410619
826,621.0523795611307
827,621.0328915638994
828,621.0175520327047
829,621.0069476780408
830,621.0015703802422
831,621.0018105745662
832,621.0079532050347
833,621.0201761602178
834,621.0385509495462
835,621.0630453422034
836,621.0935277984305
837,621.1297736851141
838,621.1714733339088
839,621.2182419051818
840,621.2696308269084
841,621.3251403906893
842,621.3842329686859
843,621.4463462680588
844,621.5109060455995
845,621.5773377463594
846,621.6450765827591
847,621.7135756326708
848,621.7823116525478
849,621.850788511781
850,621.9185384026434
851,621.9851211688917
852,622.0501222199756
853,622.1131496352924
854,622.1738312135989
855,622.2318122663237
856,622.2867548069922
857,622.3383385110478
858,622.3862635265202
859,622.4302549582738
860,622.4700686242758
861,622.5054975091838
862,622.5363782575894
863,622.5625970703402
864,622.5840944756319
865,622.6008686068324
866,622.6129767836725
867,622.6205353230071
868,622.6237175915874
869,622.622750382594
870,622.6179087886977
871,622.6095098658377
872,622.597905488513
873,622.5834748211738
874,622.5666167451716
875,622.5477424288651
876,622.5272680813263
877,622.5056078378288
878,622.483166697215
879,622.4603334507369
880,622.4374736007547
881,622.414922368588
882,622.392978014051
883,622.3718957774068
884,622.3518827415796
885,622.3330937874662
886,622.3156286643379
887,622.2995301397028
888,622.2847832581597
889,622.271315844044
890,622.2590004360111
891,622.2476578198493
892,622.237062242356
893,622.2269482506533
894,622.2170189268976
895,622.2069551257886
896,622.196425221319
897,622.1850948597096
898,622.1726363067451
899,622.1587371395187
900,622.1431081804
901,622.1254906302372
902,622.1056623522447
903,622.0834432785211
904,622.0586999827059
905,622.0313494877721
906,622.0013622569411
907,621.9687640993352
908,621.9336365711562
909,621.8961154572792
910,621.8563870520734
911,621.8146821765156
912,621.7712681316241
913,621.7264390273084
914,621.6805050589463
915,621.6337812901611
916,621.5865763764479
917,621.5391815255731
