frame_number,force
0,600.8821400000304
1,601.041197327522
2,601.1934824155271
3,601.3328821617574
4,601.454478658152
5,601.5548820610107
6,601.632341576138
7,601.6866696164607
8,601.719048344832
9,601.7317972684491
10,601.7281597247662
11,601.7121202149028
12,601.6882177017919
13,601.6613000796351
14,601.6361826276593
15,601.6172165224037
16,601.6078195059598
17,601.6100510688626
18,601.6243216744833
19,601.6493107273797
20,601.6821341759523
21,601.7187518442481
22,601.7545459089092
23,601.7849576199109
24,601.80605977142
25,601.8149678154339
26,601.81003707246
27,601.7908404796592
28,601.7579617747983
29,601.7126722471162
30,601.6565835432579
31,601.5913729987775
32,601.5186498231781
33,601.4399764889054
34,601.3570021181148
35,601.2716225536439
36,601.1860667529668
37,601.1028337659411
38,601.0244698377604
39,600.9532494910154
40,600.8908609671339
41,600.8381778883759
42,600.7951524220496
43,600.760830920958
44,600.733486125244
45,600.7108638585399
46,600.69053361063
47,600.6703043033052
48,600.6486283783319
49,600.6248904784289
50,600.5994882156573
51,600.5736713230395
52,600.5491859631991
53,600.52783182625
54,600.5110564571198
55,600.4996828519535
56,600.4938083922059
57,600.492852571947
58,600.4956937315976
59,600.5008337743786
60,600.5065594817374
61,600.5111086394952
62,600.5128730159666
63,600.5106636632966
64,600.504030131373
65,600.4935792438012
66,600.4812000537755
67,600.4700873128743
68,600.4644797977066
69,600.4690942074135
70,600.4883223206067
71,600.5253356321713
72,600.5812792451501
73,600.6547269543671
74,600.7415207054742
75,600.8350438669607
76,600.9268959750844
77,601.0078685186787
78,601.0690827740303
79,601.1031392758813
80,601.1051303800241
81,601.0733742244329
82,601.0097475394897
83,600.9195448084077
84,600.8108772563219
85,600.6937172062823
86,600.5787488532602
87,600.4761934957297
88,600.3947567684464
89,600.3408154741348
90,600.3179202565447
91,600.3266326932987
92,600.3646545647869
93,600.4271723982337
94,600.5073487088818
95,600.5969260020262
96,600.686937173868
97,600.7685135091662
98,600.833746322465
99,600.8765112322952
100,600.8931401119048
101,600.882841705597
102,600.8478111526598
103,600.793010745442
104,600.7256476346629
105,600.6544165932655
106,600.5886005410064
107,600.5371200297386
108,600.5076119524509
109,600.5056198741527
110,600.5339927285736
111,600.5925867239878
112,600.6783228270566
113,600.7855813200808
114,600.9068520618553
115,601.0335270785582
116,601.1567208947341
117,601.268028554325
118,601.3601735760134
119,601.4275340307694
120,601.4665381152485
121,601.4758968519087
122,601.4566295089576
123,601.4118642620165
124,601.3464454620929
125,601.2664122371455
126,601.1784186899462
127,601.0891571807772
128,601.0048330315742
129,600.9307249700763
130,600.8708582738928
131,600.8278159021091
132,600.8027011922059
133,600.7952392319339
134,600.803982477955
135,600.8265863125484
136,600.860133697221
137,600.9014970911323
138,600.9477230258291
139,600.9964120278297
140,601.0460481931823
141,601.0962154594862
142,601.1476334748264
143,601.2019684289573
144,601.2614244363996
145,601.3281786333251
146,601.4037609830717
147,601.4884897947343
148,601.5810686665945
149,601.6784374539549
150,601.775937084319
151,601.8677851480779
152,601.9477821466244
153,602.010110280597
154,602.0500683387152
155,602.064605831885
156,602.0525683200092
157,602.0146379089983
158,601.9530333982077
159,601.871092557721
160,601.7728666929603
161,601.6628157108944
162,601.5456282184083
163,601.4261372716486
164,601.3092740162564
165,601.1999966348704
166,601.1031437149563
167,601.02318733423
168,600.9638972448286
169,600.927958854216
170,600.9166028915338
171,600.9293083476745
172,600.96364123838
173,601.0152874349922
174,601.0783196475484
175,601.1457045412099
176,601.2100114695703
177,601.2642380511138
178,601.3026318680724
179,601.3213776389939
180,601.3190454165467
181,601.2967475226768
182,601.2580009431599
183,601.2083192127362
184,601.1545759797831
185,601.1042086230935
186,601.064357187101
187,601.0410484904348
188,601.0385382434556
189,601.058910377782
190,601.1019880403946
191,601.165541528276
192,601.2457184426785
193,601.3375994530412
194,601.4357977108314
195,601.5350428062245
196,601.63069713538
197,601.7191497897329
198,601.7980422982047
199,601.8663075124136
200,601.9240350225986
201,601.9722028317603
202,602.012334174843
203,602.046149114949
204,602.0752774747958
205,602.1010800624256
206,602.1245921562517
207,602.1465630498606
208,602.1675291149122
209,602.1878441777747
210,602.2076188046468
211,602.226585483685
212,602.2439701669299
213,602.2584665659928
214,602.2683710420612
215,602.2718727801454
216,602.2674368338751
217,602.2541847899134
218,602.2321815662045
219,602.2025756544127
220,602.167586960435
221,602.1303580721044
222,602.0946800576467
223,602.0646049202668
224,602.0439819841963
225,602.0359816077579
226,602.0426687234559
227,602.0646718149042
228,602.100990354404
229,602.1489942918422
230,602.2046605541461
231,602.2630473379746
232,602.3189458984026
233,602.3675992467654
234,602.4053539252598
235,602.430121403896
236,602.441567733919
237,602.4410119933526
238,602.4310780164984
239,602.4151915569919
240,602.3970334411348
241,602.3800483960341
242,602.3670822425801
243,602.3601903256473
244,602.3606263345536
245,602.3689760761999
246,602.385358137408
247,602.4096029336984
248,602.441353697025
249,602.4800813919628
250,602.5250373509558
251,602.5751740076108
252,602.6290582825178
253,602.6847991742102
254,602.7400179079491
255,602.7918987325125
256,602.8373522632206
257,602.8732897345835
258,602.8969605479751
259,602.9062778053112
260,602.9000638265928
261,602.8781788622373
262,602.8415260658487
263,602.7919405211591
264,602.7319797723985
265,602.6646509810245
266,602.5931246869598
267,602.520477549352
268,602.4494824879478
269,602.3824488962496
270,602.3211137057565
271,602.2665778095867
272,602.2192650563172
273,602.1788750554598
274,602.1443254946496
275,602.1137197951664
276,602.084401092954
277,602.0531478893448
278,602.0165320378403
279,601.9714086514061
280,601.9154611533572
281,601.8477005683078
282,601.7688179907784
283,601.6813068522874
284,601.5893055069353
285,601.4981610990488
286,601.4137779242362
287,601.3418729726587
288,601.2872912589485
289,601.2535108015752
290,601.2423997560868
291,601.254212483595
292,601.2877562632266
293,601.3406334120652
294,601.409470114392
295,601.4900888019911
296,601.5776482089287
297,601.6668256865879
298,601.7521210501752
299,601.8283186886678
300,601.8910746534888
301,601.9375266080115
302,601.966782804644
303,601.9801449112016
304,601.9809596128289
305,601.97407236047
306,601.9649615375946
307,601.9587294843784
308,601.9591762123131
309,601.9681622118597
310,601.9853872436718
311,602.0085964253462
312,602.034110599934
313,602.0575112400402
314,602.0743165462789
315,602.0805453488931
316,602.0731322839363
317,602.0501965358841
318,602.0111740305415
319,601.9568211790654
320,601.8891060310295
321,601.8110122624319
322,601.7262754765293
323,601.6390581581935
324,601.553575486352
325,601.4737106723638
326,601.4026762923424
327,601.3427687472017
328,601.2952398933396
329,601.2602904143424
330,601.2371723493493
331,601.2243676913495
332,601.2197931528698
333,601.2209820835948
334,601.2252187547277
335,601.2296359355627
336,601.2313105313633
337,601.2273887432498
338,601.2152466918072
339,601.192663190903
340,601.1579673807205
341,601.1101341706271
342,601.0488270426711
343,600.9744092791434
344,600.8879419524824
345,600.7911641638333
346,600.6864360725473
347,600.5766362120165
348,600.4650256699229
349,600.3550994730158
350,600.2504387641918
351,600.154566342506
352,600.0707966448805
353,600.0020621635748
354,599.9507015616509
355,599.9182195182906
356,599.9050672950635
357,599.9105179704203
358,599.9326943687713
359,599.9687572335956
360,600.0152129131834
361,600.0682784489906
362,600.1242374569994
363,600.1797193007238
364,600.2318485447045
365,600.278253825542
366,600.3169787467551
367,600.3463716732714
368,600.3650280823682
369,600.3718203413589
370,600.3659969652963
371,600.3472976077276
372,600.3160296574935
373,600.2730819987788
374,600.2198927080726
375,600.1584204195271
376,600.091173577959
377,600.0213124905015
378,599.9527675140129
379,599.8902609866061
380,599.8391272579889
381,599.8048919085146
382,599.7926563534947
383,599.8064007437279
384,599.848348301205
385,599.9185215480625
386,600.0145741932222
387,600.1319239259645
388,600.2641575886701
389,600.4036338832507
390,600.542174105954
391,600.6717238370867
392,600.7848993870425
393,600.8753899933982
394,600.9382367704652
395,600.9700241867325
396,600.9690038111046
397,600.935151068097
398,600.8701496423097
399,600.7772984556726
400,600.6613362389927
401,600.5281828393825
402,600.3846052495002
403,600.237822355989
404,600.0950636990626
405,599.9631007013678
406,599.8477774157
407,599.753579990832
408,599.6832984257169
409,599.6378461421675
410,599.6162955057965
411,599.6161424419697
412,599.6337402253329
413,599.6647853070498
414,599.7047397976377
415,599.7491364565922
416,599.793790161266
417,599.834987469397
418,599.869721442356
419,599.895989493163
420,599.9131075570197
421,599.9219514633979
422,599.9250318811438
423,599.9263324119107
424,599.9308825767308
425,599.9440986019605
426,599.9709901107058
427,600.0153690267398
428,600.0791922941895
429,600.1621355063191
430,600.2614534309929
431,600.3721489672973
432,600.4874423603578
433,600.599495900075
434,600.7003006192155
435,600.7825872535514
436,600.8406120822556
437,600.8706999510265
438,600.8714872247995
439,600.8438751289108
440,600.7907603301791
441,600.7166370049193
442,600.6271542143934
443,600.5286757673202
444,600.4278539742735
445,600.331214087504
446,600.2447508145768
447,600.1735490018501
448,600.1214503564971
449,600.0907942665815
450,600.0822597189298
451,600.0948276200687
452,600.1258738162124
453,600.1713934404663
454,600.2263428970898
455,600.2850680870929
456,600.3417733159637
457,600.3909802238857
458,600.427931731449
459,600.4489088853213
460,600.4514398056317
461,600.4343840918154
462,600.3978807257357
463,600.3431683344131
464,600.2723248383882
465,600.1880042115171
466,600.0932441446894
467,599.9913812598675
468,599.8860635649967
469,599.7813097086861
470,599.6815360774215
471,599.5914648048138
472,599.5158541907831
473,599.459060645406
474,599.4245189791405
475,599.414269316071
476,599.4286426736334
477,599.466165481364
478,599.5236934239296
479,599.5967540868738
480,599.6800587977156
481,599.7681239773019
482,599.855918335969
483,599.9394357487332
484,600.0161020095103
485,600.0849604485351
486,600.1466284270983
487,600.2030540588638
488,600.2571263790369
489,600.3122065959384
490,600.3716518734976
491,600.4383928967574
492,600.5146036595976
493,600.6014725880519
494,600.6990602546656
495,600.8062278181576
496,600.9206457286325
497,601.0389183882628
498,601.1568540950351
499,601.2698683134967
500,601.3734642900829
501,601.4637199469172
502,601.5377231094835
503,601.5939129259928
504,601.6322894706951
505,601.6544573551781
506,601.6634854347366
507,601.6635907992749
508,601.6596871836841
509,601.6568695763016
510,601.6599143810398
511,601.6728445909708
512,601.698574332972
513,601.7386457206312
514,601.7930912454856
515,601.860457474012
516,601.9380021109104
517,602.0220462355693
518,602.1084343326287
519,602.1930238432158
520,602.2721083870322
521,602.3426969174536
522,602.4026208658407
523,602.4504926971601
524,602.4855681739086
525,602.5075725954682
526,602.5165495832391
527,602.5127760982452
528,602.4967509698156
529,602.4692214587943
530,602.4311962080016
531,602.3839173101848
532,602.3288062621717
533,602.2674201860419
534,602.2014380903228
535,602.1326589375932
536,602.062969158822
537,601.9942503493686
538,601.9282386341881
539,601.866380658075
540,601.8097291673058
541,601.758888522947
542,601.7139885402605
543,601.6746592238987
544,601.6399970291212
545,601.6085356256774
546,601.5782452229771
547,601.5465822569399
548,601.5106056541664
549,601.4671759005612
550,601.4132502565972
551,601.346265606999
552,601.2645632630973
553,601.1677801571452
554,601.0571220406189
555,600.9354416315329
556,600.8070636058229
557,600.6773384581282
558,600.5519765725991
559,600.4362926975479
560,600.334533957931
561,600.2494364916721
562,600.1820666165385
563,600.1319052325067
564,600.0970855037518
565,600.0747065805651
566,600.0611822290174
567,600.0525991199524
568,600.0450492845347
569,600.0348890047856
570,600.0188836712558
571,599.9942311798528
572,599.9585062584841
573,599.909606612156
574,599.8457765532793
575,599.7657338310306
576,599.6688684079959
577,599.5554551321669
578,599.4268276413818
579,599.2854757479926
580,599.1350374990254
581,598.9801648946836
582,598.8262614570455
583,598.6791204315158
584,598.5445161478536
585,598.4278020769367
586,598.3335552476972
587,598.2652965572792
588,598.2253101551003
589,598.2145659311332
590,598.2327139466859
591,598.2780913489721
592,598.3476909433035
593,598.4370946107217
594,598.540446006882
595,598.6505754380977
596,598.7593635162615
597,598.8583523656408
598,598.9395274782546
599,598.9961381814228
600,599.02341441174
601,599.0190645571306
602,598.9834835837893
603,598.9196474799811
604,598.8327200698506
605,598.7294510426119
606,598.6174809529309
607,598.5046688015807
608,598.3985195196003
609,598.3057340385781
610,598.2318663429485
611,598.1810695019844
612,598.1559324176442
613,598.1574191221652
614,598.1849095893489
615,598.2363208198493
616,598.3082817735925
617,598.3963498956613
618,598.4952740315338
619,598.5993128143118
620,598.7026113664447
621,598.7996300138933
622,598.8856052057278
623,598.9570036732267
624,599.0119126191921
625,599.0502989005574
626,599.0740749917742
627,599.0869343774075
628,599.0939613605218
629,599.101066637902
630,599.1143317754188
631,599.1393504281996
632,599.180639681174
633,599.2411808441411
634,599.3221350372786
635,599.4227486922234
636,599.5404269301912
637,599.6709419871493
638,599.8087662418448
639,599.9475386527323
640,600.0806549317363
641,600.2019258320491
642,600.3062134219333
643,600.3899517267298
644,600.4514772186272
645,600.4911283717995
646,600.5111176507825
647,600.5152163448128
648,600.5083056186552
649,600.495842560791
650,600.4832841367293
651,600.475509245316
652,600.4762791579949
653,600.4877845634953
654,600.5103441792294
655,600.542330861853
656,600.5803831276069
657,600.6199031213498
658,600.6557653435183
659,600.6831007238762
660,600.6980039749301
661,600.6980376858227
662,600.6824575983698
663,600.6521473513654
664,600.609320480876
665,600.5571065411439
666,600.4991609751685
667,600.4394064644583
668,600.3819340745137
669,600.3310055905977
670,600.2910562150461
671,600.2666174483995
672,600.2621309589587
673,600.281661959783
674,600.3285325958508
675,600.4049000594739
676,600.5113212757227
677,600.6463764134704
678,600.8064477974643
679,600.9857500900467
680,601.1766759108506
681,601.3704606535847
682,601.5580909739988
683,601.731307535865
684,601.8835152022677
685,602.0104299239786
686,602.1103557277273
687,602.1840761936053
688,602.2344305351736
689,602.2656933099315
690,602.2828800128523
691,602.2910749943243
692,602.2948443933574
693,602.2977703353243
694,602.3021331574757
695,602.3087711614438
696,602.3171438571717
697,602.3256013015773
698,602.3318222595881
699,602.3333445410309
700,602.3280902414234
701,602.3147924583408
702,602.2932529933275
703,602.2643960166953
704,602.2301226409419
705,602.1930050150023
706,602.1558783425753
707,602.1213953732733
708,602.0916081319264
709,602.0676430851086
710,602.049532705518
711,602.0362430009066
712,602.0258904557745
713,602.016093487484
714,602.0043768827601
715,601.988549261988
716,601.9669951767794
717,601.938852325012
718,601.9040680284722
719,601.8633409834633
720,601.8179582117891
721,601.7695448880191
722,601.7197672619611
723,601.6700607534899
724,601.6214695207959
725,601.5746581664674
726,601.5301016602106
727,601.4884064816094
728,601.4506808410298
729,601.4188526612095
730,601.3958286421536
731,601.3854039103139
732,601.3918811502347
733,601.4194382891951
734,601.4713670716635
735,601.5493532648886
736,601.6529622929354
737,601.7794410729811
738,601.9238733087553
739,602.079652716199
740,602.2391786978093
741,602.3946418861022
742,602.5387636911914
743,602.6653873625554
744,602.7698706202684
745,602.8492729804319
746,602.9023523002141
747,602.9293968204915
748,602.9319343603077
749,602.912375837923
750,602.8736571622754
751,602.8189413817471
752,602.7514313511947
753,602.6743155616408
754,602.5908262242752
755,602.5043459347871
756,602.418482402054
757,602.3370504591679
758,602.2639399923584
759,602.202883493165
760,602.157162810938
761,602.1293165416425
762,602.120918756458
763,602.1324810612333
764,602.163488748859
765,602.2125437758177
766,602.2775670939726
767,602.356005821033
768,602.4449970565713
769,602.5414664735896
770,602.6421738446838
771,602.7437338577787
772,602.842634238333
773,602.9352622265902
774,603.0179464782407
775,603.0870233043437
776,603.1389445915023
777,603.1704576089046
778,603.1788839789001
779,603.1624873228135
780,603.1208653830141
781,603.0552756624115
782,602.96881709405
783,602.8664174132991
784,602.7545944982858
785,602.6409802557097
786,602.5336372656263
787,602.4402552469942
788,602.3673557157254
789,602.3196329620627
790,602.2995183743503
791,602.3069987858238
792,602.3396742382153
793,602.3930119118537
794,602.4607369861967
795,602.5353046410668
796,602.6084245343459
797,602.6716386019381
798,602.7169531523855
799,602.7374918681352
800,602.7280982140076
801,602.6858075713998
802,602.6101305807744
803,602.5031133615427
804,602.3691575718791
805,602.214609523672
806,602.0471694994193
807,601.8752090101731
808,601.7070905960452
809,601.5505617113164
810,601.4122608482411
811,601.2973455378283
812,601.2092305107027
813,601.1494118291823
814,601.1173560375303
815,601.1104560737306
816,601.124088517014
817,601.1518253333805
818,601.1858375570334
819,601.2174850496564
820,601.2380388492302
821,601.2394480135107
822,601.2150521291092
823,601.160158435647
824,601.0724364037775
825,600.9521093771654
826,600.8019325289051
827,600.6269507815233
828,600.4340475528795
829,600.2313310651592
830,600.027446139167
831,599.8309185135028
832,599.6496162752288
833,599.4903605582668
834,599.3586673224787
835,599.2585742125915
836,599.1925041621361
837,599.1611401311565
838,599.1633254994789
839,599.1960393783647
840,599.254507094948
841,599.3324966976102
842,599.4228257342
843,599.5180491109264
844,599.6112314775994
845,599.6966710279304
846,599.7704566356015
847,599.8307785218085
848,599.8779469074695
849,599.9141129716711
850,599.942745630187
851,599.9679751707063
852,599.9939335897709
853,600.0241951174315
854,600.0613785880919
855,600.1069428607797
856,600.1611866515522
857,600.223440830468
858,600.292408512752
859,600.3665742602326
860,600.4445862131998
861,600.5255297725284
862,600.6090581296555
863,600.6954033768659
864,600.7853310337192
865,600.8800972482843
866,600.9814285182243
867,601.0915013174265
868,601.2128770536585
869,601.3483455500203
870,601.5006426910812
871,601.6720369326855
872,601.8638244124552
873,602.0758221503274
874,602.3059818093308
875,602.5502437987693
876,602.8027123501014
877,603.0561669607247
878,603.3028439827607
879,603.535344806435
880,603.747489186924
881,603.9349546301177
882,604.0956107519661
883,604.2295361532266
884,604.338768357416
885,604.426878410493
886,604.4984806319371
887,604.5587781085475
888,604.613204069633
889,604.6671654775257
890,604.7258544914143
891,604.7940812600057
892,604.8760931725454
893,604.9753642986307
894,605.0943540135958
895,605.2342510614976
896,605.3947430910142
897,605.573871373783
898,605.7680315274974
899,605.9721602250446
900,606.1801111770349
901,606.3851809447671
902,606.5807088453134
903,606.7606570256143
904,606.9200816906614
905,607.0554309433646
906,607.1646378297237
907,607.2470077213303
908,607.3029284954315
909,607.3334678267572
910,607.3399518425291
911,607.3236163951541
912,607.2853866338392
913,607.2258041361074
914,607.145100781302
915,607.0434026349438
916,606.9210272177035
917,606.7788225929288
918,606.6184939144295
