frame_number,force
0,688.2949880713841
1,688.304081900532
2,688.3158357618894
3,688.3301949655761
4,688.3471074278004
5,688.3665224578009
6,688.3883889079909
7,688.4126528561186
8,688.4392549921703
9,688.4681277793345
10,688.4991923056767
11,688.5323546596171
12,688.5675016962002
13,688.6044961818096
14,688.643171468884
15,688.6833260105336
16,688.7247181136787
17,688.7670613248939
18,688.8100208246777
19,688.8532112965361
20,688.8961969329741
21,688.9384943500922
22,688.9795790216665
23,689.0188954396625
24,689.0558707438145
25,689.0899311887129
26,689.1205205807341
27,689.1471197087375
28,689.1692657894109
29,689.186571031993
30,689.1987395728643
31,689.2055821965486
32,689.207028410333
33,689.203135564206
34,689.1940947985116
35,689.1802336344224
36,689.1620149786762
37,689.1400322299419
38,689.1150001464966
39,689.0877412411769
40,689.0591676923444
41,689.0302590212629
42,689.0020360430111
43,688.9755318749152
44,688.9517611111534
45,688.9316885855932
46,688.9161993218087
47,688.9060712464105
48,688.9019520820224
49,688.9043416361084
50,688.9135804683632
51,688.9298455774887
52,688.9531532586133
53,688.9833687075605
54,689.0202214069625
55,689.0633249312199
56,689.112199605565
57,689.166296417942
58,689.2250206357301
59,689.2877536898384
60,689.3538720983314
61,689.4227625829845
62,689.4938330943351
63,689.5665200600852
64,689.6402925653837
65,689.714654227299
66,689.789143346632
67,689.8633317550219
68,689.9368227808975
69,690.0092488777617
70,690.0802695153996
71,690.1495698073086
72,690.2168600586715
73,690.2818761042884
74,690.3443801051931
75,690.4041614294739
76,690.4610373048461
77,690.5148530290321
78,690.5654816190553
79,690.6128228498276
80,690.656801666808
81,690.697365983395
82,690.7344839561522
83,690.7681410186194
84,690.7983371936873
85,690.8250853378822
86,690.8484108854002
87,690.8683534079272
88,690.8849700123124
89,690.8983403154207
90,690.9085724811969
91,690.9158096322207
92,690.9202358930447
93,690.9220813631205
94,690.9216254311018
95,690.919198034712
96,690.915178710129
97,690.9099934687024
98,690.9041096209099
99,690.8980286728037
100,690.8922774206993
101,690.8873973905178
102,690.8839327954832
103,690.8824172034712
104,690.8833591296058
105,690.8872268706175
106,690.8944331140437
107,690.9053200978998
108,690.9201462296099
109,690.9390750600875
110,690.9621673821915
111,690.9893769886228
112,691.0205503031513
113,691.0554297858686
114,691.0936607905736
115,691.134801387382
116,691.1783344792611
117,691.2236813661079
118,691.2702158665219
119,691.3172782472107
120,691.3641884453467
121,691.4102582946564
122,691.454802669454
123,691.4971496712147
124,691.5366501845776
125,691.5726872800443
126,691.6046859915846
127,691.6321238752707
128,691.6545424065932
129,691.6715587885304
130,691.6828773501453
131,691.6882995960724
132,691.6877320945188
133,691.6811915905583
134,691.6688068546836
135,691.6508168333828
136,691.627564803371
137,691.5994885457228
138,691.5671069777896
139,691.5310040405362
140,691.491810821781
141,691.4501868798048
142,691.406801562473
143,691.3623159058958
144,691.3173655763696
145,691.2725453186786
146,691.2283953923607
147,691.1853904353984
148,691.143931108208
149,691.1043387546229
150,691.0668531414232
151,691.0316330952074
152,690.9987595799807
153,690.9682405151212
154,690.9400165099264
155,690.913966750801
156,690.8899145020775
157,690.8676319997056
158,690.8468448592588
159,690.8272364259788
160,690.8084527036286
161,690.7901085461702
162,690.7717956387654
163,690.7530924793122
164,690.7335762385497
165,690.7128361244143
166,690.6904876762554
167,690.6661872148896
168,690.6396455205813
169,690.6106398026051
170,690.579023194423
171,690.5447312882332
172,690.5077855064849
173,690.4682933331391
174,690.4264455884911
175,690.3825110470785
176,690.3368287836009
177,690.2897986887259
178,690.2418706142813
179,690.1935325768566
180,690.1452983833794
181,690.097694976273
182,690.0512497666288
183,690.0064782557725
184,689.9638723312532
185,689.9238897044453
186,689.8869449497453
187,689.8534024748069
188,689.8235715510114
189,689.7977033438399
190,689.7759897129207
191,689.7585633486972
192,689.74549859377
193,689.736812206318
194,689.7324635055337
195,689.7323537817178
196,689.736325374001
197,689.7441611973034
198,689.7555856154112
199,689.7702674058576
200,689.7878252184771
201,689.8078355103455
202,689.8298425544724
203,689.8533698395983
204,689.8779320651438
205,689.9030470082942
206,689.9282467022686
207,689.9530874712776
208,689.9771583846673
209,690.0000877147783
210,690.0215471098325
211,690.041253440774
212,690.0589685796604
213,690.0744975930422
214,690.0876858847317
215,690.098415718298
216,690.1066024122832
217,690.1121904195896
218,690.1151494871868
219,690.1154711227271
220,690.1131656205168
221,690.1082598506205
222,690.1007958742238
223,690.0908302651238
224,690.0784338576785
225,690.0636915691726
226,690.0467019967012
227,690.0275766421875
228,690.0064388210371
229,689.9834225088877
230,689.9586714930645
231,689.9323391428882
232,689.9045889394379
233,689.8755957351244
234,689.8455475954471
235,689.8146479777074
236,689.7831179124456
237,689.7511978018678
238,689.7191484800775
239,689.6872513247584
240,689.655807428916
241,689.6251360227187
242,689.595572397534
243,689.5674655218571
244,689.541175379872
245,689.5170698614925
246,689.4955208778376
247,689.4768993468481
248,689.461568819135
249,689.4498777653059
250,689.4421508160216
251,689.438679407726
252,689.4397123306578
253,689.4454467071689
254,689.4560200028449
255,689.4715037125682
256,689.4918992497772
257,689.5171362796851
258,689.5470733956772
259,689.5815007914947
260,689.6201444844307
261,689.6626716712525
262,689.7086969071064
263,689.757788920585
264,689.8094779297359
265,689.8632632869638
266,689.918621239496
267,689.9750126316696
268,690.0318904856729
269,690.0887075082179
270,690.1449236425645
271,690.2000138273514
272,690.2534761427809
273,690.3048404845426
274,690.3536777543362
275,690.3996093033081
276,690.4423160971149
277,690.481546883661
278,690.5171246011915
279,690.5489503775665
280,690.5770046778404
281,690.6013453685414
282,690.6221026498625
283,690.6394709832907
284,690.653698344415
285,690.6650733711127
286,690.6739112303587
287,690.6805392297435
288,690.6852832791478
289,690.6884562131726
290,690.6903487175487
291,690.6912232366712
292,690.6913108861801
293,690.6908111189938
294,690.6898936871804
295,690.6887022864587
296,690.6873591809067
297,690.6859701157972
298,690.684628947322
299,690.6834216124793
300,690.6824292565724
301,690.6817304665108
302,690.6814026211892
303,690.6815224081005
304,690.6821655907247
305,690.683406129245
306,690.6853147570191
307,690.6879571309908
308,690.6913917361966
309,690.6956678197269
310,690.7008236990964
311,690.7068857820896
312,690.7138685537562
313,690.7217756462106
314,690.7306018848763
315,690.7403359105475
316,690.7509627182047
317,690.7624653589437
318,690.7748251706464
319,690.7880202239139
320,690.8020221461702
321,690.8167919792253
322,690.8322760038353
323,690.8484023928686
324,690.8650792353969
325,690.8821941310193
326,690.8996153159648
327,690.917194144992
328,690.934768689201
329,690.9521682310008
330,690.9692185457915
331,690.9857479975896
332,691.0015945325516
333,691.0166135306993
334,691.0306861784052
335,691.0437277022792
336,691.0556946528914
337,691.0665905145263
338,691.0764691361818
339,691.08543567919
340,691.0936449352748
341,691.1012970628475
342,691.1086310175597
343,691.1159160904693
344,691.1234419308123
345,691.1315072930724
346,691.1404076530703
347,691.1504218867663
348,691.1617984182092
349,691.1747415350771
350,691.1893988004049
351,691.205850576943
352,691.2241026154845
353,691.2440824169547
354,691.2656396669477
355,691.2885505979676
356,691.3125258353019
357,691.3372211580115
358,691.3622505433758
359,691.387200754794
360,691.4116465768309
361,691.4351656967356
362,691.4573523041936
363,691.4778287464877
364,691.4962548936022
365,691.512335080547
366,691.5258226054217
367,691.5365219010479
368,691.5442887193842
369,691.5490288761767
370,691.5506962042793
371,691.5492903739523
372,691.5448551866093
373,691.5374777770553
374,691.5272888115505
375,691.5144633245898
376,691.4992214705761
377,691.4818282971409
378,691.4625916966804
379,691.4418579464818
380,691.4200046674544
381,691.3974315211314
382,691.3745493799677
383,691.351768915898
384,691.3294895068847
385,691.308089126676
386,691.2879155954976
387,691.2692793419477
388,691.2524477018854
389,691.2376407345789
390,691.2250284979646
391,691.214729640028
392,691.2068110695398
393,691.2012884589393
394,691.1981274413473
395,691.1972455253006
396,691.1985148399132
397,691.2017657538685
398,691.2067912169813
399,691.213351460373
400,691.2211785249164
401,691.2299799955724
402,691.2394413816938
403,691.2492268781211
404,691.2589786990134
405,691.2683155913859
406,691.276831340528
407,691.2840940490069
408,691.2896467778409
409,691.293009880964
410,691.2936851375699
411,691.2911616481359
412,691.2849233919483
413,691.2744583021154
414,691.2592686920935
415,691.2388828600563
416,691.2128676337014
417,691.1808414310449
418,691.1424871616623
419,691.0975641260939
420,691.0459180724522
421,690.9874887294791
422,690.9223144334907
423,690.8505338546386
424,690.7723851739598
425,690.6882032439269
426,690.5984152890575
427,690.5035356463621
428,690.4041599357905
429,690.3009588925606
430,690.194671936017
431,690.0861004428813
432,689.9761006133974
433,689.8655757166968
434,689.7554673916462
435,689.6467456318609
436,689.540397134037
437,689.437411805291
438,689.3387673747661
439,689.2454122560788
440,689.1582470712524
441,689.0781055094066
442,689.005735378904
443,688.941780814757
444,688.8867666357812
445,688.8410857690825
446,688.8049904351673
447,688.7785874468206
448,688.7618376069925
449,688.7545588851196
450,688.7564328494984
451,688.7670137296034
452,688.7857394681969
453,688.8119442022613
454,688.8448717753761
455,688.8836900952991
456,688.9275063420062
457,688.9753831204557
458,689.0263555829171
459,689.0794493319312
460,689.1336986533291
461,689.1881644699287
462,689.2419514706373
463,689.2942241262257
464,689.3442215557629
465,689.3912712687155
466,689.4348016707099
467,689.4743530164017
468,689.5095863404442
469,689.5402898668013
470,689.5663825156228
471,689.5879143438369
472,689.605063962086
473,689.6181331025437
474,689.6275385780655
475,689.6338019046253
476,689.6375368825982
477,689.6394354534294
478,689.6402521389379
479,689.6407873160389
480,689.641869524903
481,689.6443369992149
482,689.649018612269
483,689.6567144087409
484,689.6681758872401
485,689.6840862926017
486,689.7050413566728
487,689.731531109398
488,689.7639235025131
489,689.8024506129492
490,689.8471981367143
491,689.8980988186951
492,689.9549304197918
493,690.0173187088013
494,690.084745675489
495,690.1565627185724
496,690.2320081063815
497,690.3102276566336
498,690.3902973831201
499,690.471246841948
500,690.5520820849231
501,690.6318074271584
502,690.7094455661884
503,690.7840558825873
504,690.8547509533429
505,690.9207114038834
506,690.9811992570719
507,691.0355699286838
508,691.0832829278137
509,691.1239111423641
510,691.1571484049706
511,691.1828149306211
512,691.2008602244426
513,691.2113631579466
514,691.214529051421
515,691.2106837205066
516,691.2002645362736
517,691.1838086543522
518,691.1619387268278
519,691.1353466123575
520,691.1047758021871
521,691.0710034123713
522,691.034822582141
523,690.9970259490173
524,690.9583905987942
525,690.919664592756
526,690.8815549508182
527,690.8447169236675
528,690.8097445358617
529,690.7771625894095
530,690.7474204125776
531,690.7208875747262
532,690.6978516571077
533,690.6785180781884
534,690.6630119201752
535,690.6513816094513
536,690.6436041365151
537,690.6395913306022
538,690.6391966223182
539,690.6422217769772
540,690.6484232420036
541,690.6575179477868
542,690.669188556691
543,690.6830882616692
544,690.6988453188609
545,690.7160675377091
546,690.7343469154647
547,690.7532645231089
548,690.7723956911749
549,690.7913155197207
550,690.8096047193001
551,690.8268557653257
552,690.842679315058
553,690.856710798726
554,690.8686170771098
555,690.8781030768272
556,690.8849183563262
557,690.8888635649971
558,690.8897966566127
559,690.8876384902587
560,690.8823772273958
561,690.8740708864614
562,690.8628475678323
563,690.8489030906171
564,690.8324960006274
565,690.8139401166171
566,690.7935949778062
567,690.771854694339
568,690.7491357576195
569,690.7258643766617
570,690.7024639067439
571,690.6793428996233
572,690.6568841976843
573,690.6354353611156
574,690.6153006415033
575,690.5967347412894
576,690.5799386870535
577,690.5650581668971
578,690.5521845033142
579,690.5413580597058
580,690.5325734884656
581,690.5257860128818
582,690.5209179536705
583,690.5178649058438
584,690.5165012533986
585,690.5166850023204
586,690.5182621639962
587,690.5210710878117
588,690.5249471661623
589,690.5297281726525
590,690.5352601871463
591,690.5414037560546
592,690.5480397796451
593,690.5550746345547
594,690.5624441446762
595,690.5701161325818
596,690.5780914049728
597,690.5864031591984
598,690.5951149433257
599,690.6043174479299
600,690.6141245216025
601,690.624668837265
602,690.6360975733702
603,690.6485683389656
604,690.6622453907006
605,690.677295972445
606,690.6938864012844
607,690.7121774194239
608,690.7323183905169
609,690.754440124912
610,690.7786463929141
611,690.8050044278424
612,690.8335348765119
613,690.8642017420862
614,690.896902914013
615,690.9314618936954
616,690.9676213071959
617,691.0050387688843
618,691.0432856341359
619,691.081849151895
620,691.1201384855166
621,691.1574949803526
622,691.1932068828452
623,691.226528443623
624,691.2567029774136
625,691.2829890623175
626,691.3046887518218
627,691.3211765285196
628,691.3319277093457
629,691.3365450076778
630,691.3347819337718
631,691.3265617513683
632,691.3119908784729
633,691.2913658937931
634,691.2651736179325
635,691.234084091398
636,691.1989367308172
637,691.1607204660903
638,691.1205490611933
639,691.079632950006
640,691.0392488132916
641,691.0007079532974
642,690.965324418895
643,690.9343838011703
644,690.9091135735091
645,690.8906556942989
646,690.8800418967016
647,690.8781717733741
648,690.8857936060673
649,690.9034879252275
650,690.9316538491005
651,690.9704982114737
652,691.0200274237562
653,691.0800421040325
654,691.1501347678962
655,691.2296911540018
656,691.3178958787057
657,691.4137430359817
658,691.5160521431474
659,691.6234895353308
660,691.734594946349
661,691.8478126107029
662,691.9615258517583
663,692.0740938607406
664,692.1838892707357
665,692.2893352007422
666,692.3889406313461
667,692.4813331629279
668,692.5652883232441
669,692.6397546721655
670,692.7038740950575
671,692.7569969149272
672,692.7986917145257
673,692.8287499495875
674,692.8471855344865
675,692.8542296482707
676,692.8503211000731
677,692.8360927127563
678,692.8123542935476
679,692.7800728234278
680,692.740350501724
681,692.6944012265426
682,692.6435259861086
683,692.5890875428579
684,692.5324847961957
685,692.4751273115597
686,692.4184105856777
687,692.3636925619774
688,692.3122717316702
689,692.2653669874265
690,692.2240993233994
691,692.1894754521057
692,692.162373375526
693,692.1435299430733
694,692.1335305081968
695,692.132800912884
696,692.1416020778354
697,692.1600274001686
698,692.1880030036438
699,692.2252907546451
700,692.2714939165676
701,692.3260653097489
702,692.3883177744291
703,692.4574366165041
704,692.5324936616599
705,692.6124625873622
706,692.6962352735273
707,692.7826389770636
708,692.8704542420129
709,692.9584336427913
710,693.0453216686188
711,693.1298761490011
712,693.2108914558489
713,693.2872233078248
714,693.3578145095286
715,693.4217205393453
716,693.4781336240103
717,693.5264038531488
718,693.5660560383544
719,693.5968013771602
720,693.6185434289594
721,693.6313783237681
722,693.6355894158291
723,693.6316367284018
724,693.6201415512904
725,693.6018665350659
726,693.577691670086
727,693.5485867105612
728,693.5155808989812
729,693.479731176587
730,693.4420903032418
731,693.4036763384408
732,693.3654447052982
733,693.3282636543074
734,693.2928935544663
735,693.2599702052805
736,693.2299922526125
737,693.2033126853959
738,693.1801342539603
739,693.1605085733543
740,693.1443387466877
741,693.1313855261778
742,693.1212771693316
743,693.1135231091961
744,693.1075313300942
745,693.1026290100434
746,693.0980856530408
747,693.0931376739443
748,693.087013308207
749,693.0789568349926
750,693.068251330014
751,693.0542393456782
752,693.0363409921664
753,693.0140689358856
754,692.9870399089427
755,692.9549824201155
756,692.9177404557088
757,692.875273100219
758,692.8276502348176
759,692.7750447450696
760,692.7177218802765
761,692.6560265060956
762,692.5903690467503
763,692.521210973897
764,692.4490506998678
765,692.3744106101922
766,692.2978257783072
767,692.2198347362892
768,692.1409725413102
769,692.0617662155119
770,691.9827323955387
771,691.9043767297273
772,691.8271942966509
773,691.7516701963294
774,691.6782795613938
775,691.6074865562712
776,691.5397423712991
777,691.4754825629515
778,691.4151241504034
779,691.3590626466611
780,691.3076688670304
781,691.2612851302855
782,691.2202204333624
783,691.1847443040748
784,691.1550792431174
785,691.131391879106
786,691.1137831134661
787,691.102277607703
788,691.0968130216287
789,691.0972295340246
790,691.1032603784042
791,691.1145243192062
792,691.1305210833001
793,691.1506307092403
794,691.174117580784
795,691.2001395916543
796,691.2277624965408
797,691.2559791120188
798,691.2837327019887
799,691.3099436383959
800,691.3335382602855
801,691.3534787567604
802,691.3687928749245
803,691.3786022717447
804,691.3821483328757
805,691.3788142801903
806,691.3681424845139
807,691.3498461735995
808,691.3238151355829
809,691.2901154431814
810,691.2489835711641
811,691.200815513103
812,691.1461516303059
813,691.0856580355294
814,691.0201053560053
815,690.9503456742196
816,690.8772882494535
817,690.8018743639575
818,690.7250515021016
819,690.6477471625708
820,690.5708428638262
821,690.4951491734987
822,690.4213827236132
823,690.3501461293807
824,690.2819115973941
825,690.2170088752702
826,690.1556180450651
827,690.097767441859
828,690.0433366898529
829,689.9920645576394
830,689.9435611260215
831,689.8973237012418
832,689.8527559815665
833,689.8091900650725
834,689.7659108164133
835,689.722181874563
836,689.6772723175613
837,689.6304828400775
838,689.5811702791879
839,689.5287694120683
840,689.4728111184254
841,689.4129362375749
842,689.348904737045
843,689.2806001004192
844,689.2080290641268
845,689.1313169537187
846,689.0506989473972
847,688.9665076948189
848,688.879157836212
849,688.7891280760213
850,688.6969415802749
851,688.603145595153
852,688.5082912899838
853,688.4129148587589
854,688.3175208325213
855,688.2225683501252
856,688.1284608273672
857,688.0355391069087
858,687.9440778557722
859,687.8542848162048
860,687.7663025575739
861,687.6802125215149
862,687.5960412068202
863,687.5137682135958
864,687.4333356748296
865,687.3546585231411
866,687.2776350989689
867,687.2021576971044
868,687.1281226886707
869,687.0554398520273
870,686.9840405384599
871,686.9138843067915
872,686.8449636930724
873,686.7773068603876
874,686.710978017295
875,686.6460756641278
876,686.5827288557665
877,686.5210917318233
878,686.46133658348
879,686.4036457404229
880,686.3482026238722
881,686.2951824435686
882,686.2447431453165
883,686.1970172347648
884,686.152104991593
885,686.1100693995172
886,686.0709328931499
887,686.0346758012483
888,686.0012362076512
889,685.9705108790141
890,685.9423568948957
891,685.9165936649913
892,685.89300517081
893,685.8713424966953
894,685.8513268897675
895,685.8326536010147
896,685.8149966334214
897,685.7980143695291
898,685.7813559436089
899,685.7646681655917
900,685.7476027908066
901,685.7298239635843
902,685.7110157086001
903,685.6908893426155
904,685.6691906106113
905,685.6457062463428
906,685.6202695807177
907,685.5927648430207
908,685.5631299385548
909,685.5313576539263
910,685.4974953168994
911,685.4616429048237
912,685.4239495465564
913,685.3846083778272
914,685.3438498021366
915,685.3019333663965
916,685.2591386564769
