frame_number,force
0,688.4659787219199
1,688.469014897339
2,688.4730843389209
3,688.4781523556969
4,688.484182178477
5,688.4911352478041
6,688.498971512468
7,688.507649737032
8,688.5171278166889
9,688.527363097313
10,688.538312698003
11,688.5499338330543
12,688.5621841303172
13,688.5750219431869
14,688.588406653923
15,688.6022989664433
16,688.6166611870111
17,688.6314574912545
18,688.646654175964
19,688.6622198944772
20,688.6781258751607
21,688.694346122981
22,688.7108576038553
23,688.7276404104927
24,688.7446779072909
25,688.7619568510198
26,688.7794674836134
27,688.7972035933993
28,688.8151625414259
29,688.8333452501615
30,688.8517561526522
31,688.8704031011044
32,688.8892972346964
33,688.9084528071857
34,688.9278869755275
35,688.9476195511913
36,688.967672716078
37,688.988070705016
38,689.0088394570245
39,689.0300062381052
40,689.0515992391971
41,689.0736471538726
42,689.0961787412384
43,689.1192223803852
44,689.1428056237039
45,689.1669547572719
46,689.1916943769331
47,689.2170469884692
48,689.2430326395745
49,689.2696685904922
50,689.2969690291716
51,689.3249448354466
52,689.3536033969058
53,689.382948477012
54,689.4129801339938
55,689.443694687418
56,689.4750847283049
57,689.5071391681022
58,689.5398433215553
59,689.5731790184242
60,689.6071247392134
61,689.6416557708416
62,689.6767443794973
63,689.7123599993979
64,689.7484694370492
65,689.7850370905301
66,689.8220251825816
67,689.8593940056306
68,689.8971021767727
69,689.9351069010143
70,689.9733642412102
71,690.0118293927554
72,690.0504569602722
73,690.0892012326807
74,690.1280164525612
75,690.1668570757394
76,690.2056780173957
77,690.2444348815035
78,690.283084170922
79,690.321583475945
80,690.359891639482
81,690.3979688974339
82,690.4357769933761
83,690.4732792675478
84,690.5104407211843
85,690.5472280579585
86,690.5836097043733
87,690.6195558105268
88,690.6550382321162
89,690.6900304940123
90,690.7245077352759
91,690.7584466352487
92,690.791825320439
93,690.8246232522811
94,690.8568210963804
95,690.8884005746086
96,690.9193443022672
97,690.9496356132192
98,690.9792583762048
99,691.0081968056061
100,691.0364352699245
101,691.0639581012485
102,691.090749408987
103,691.1167929010762
104,691.1420717157787
105,691.1665682672962
106,691.1902641088374
107,691.2131398172395
108,691.2351749033566
109,691.2563477520788
110,691.2766355951427
111,691.2960145188587
112,691.3144595075787
113,691.3319445224466
114,691.348442613963
115,691.3639260660694
116,691.3783665685833
117,691.3917354139903
118,691.4040037141909
119,691.4151426329574
120,691.4251236303421
121,691.433918715756
122,691.4415007068991
123,691.4478434922381
124,691.4529222952622
125,691.456713939165
126,691.45919711077
127,691.4603526222053
128,691.4601636678881
129,691.458616073064
130,691.4556985291382
131,691.4514028108672
132,691.4457239710762
133,691.4386605093872
134,691.4302145120631
135,691.4203917605007
136,691.4092018065727
137,691.396658014222
138,691.3827775682261
139,691.3675814523747
140,691.3510944000873
141,691.3333448206745
142,691.3143647041478
143,691.2941895070328
144,691.2728580214433
145,691.2504122298002
146,691.2268971477372
147,691.202360657689
148,691.1768533354501
149,691.1504282716729
150,691.1231408897596
151,691.0950487608625
152,691.066211415854
153,691.0366901533565
154,691.0065478424917
155,690.9758487191256
156,690.9446581749751
157,690.9130425398215
158,690.8810688580163
159,690.8488046613131
160,690.8163177406216
161,690.7836759193676
162,690.7509468306447
163,690.7181976993744
164,690.6854951297004
165,690.6529048970942
166,690.6204917440814
167,690.5883191779371
168,690.5564492682998
169,690.5249424426886
170,690.4938572784943
171,690.4632502909291
172,690.4331757173544
173,690.4036852991682
174,690.3748280630051
175,690.346650103433
176,690.3191943696655
177,690.2925004590464
178,690.2666044201718
179,690.2415385684577
180,690.2173313167905
181,690.1940070236898
182,690.1715858613023
183,690.1500837055823
184,690.1295120511921
185,690.1098779537832
186,690.0911840021712
187,690.0734283223642
188,690.0566046146266
189,690.0407022239909
190,690.0257062439001
191,690.0115976518147
192,689.998353474709
193,689.9859469818471
194,689.9743479024913
195,689.9635226672361
196,689.9534346729246
197,689.9440445719604
198,689.9353105868985
199,689.9271888504977
200,689.9196337701521
201,689.912598414153
202,689.90603491589
203,689.8998948910911
204,689.8941298627208
205,689.8886916882581
206,689.88353298447
207,689.8786075450658
208,689.8738707466466
209,689.8692799384456
210,689.8647948117866
211,689.8603777459999
212,689.855994128541
213,689.8516126478742
214,689.8472055580055
215,689.8427489134452
216,689.8382227731888
217,689.8336113723196
218,689.8289032600499
219,689.8240914033956
220,689.8191732560537
221,689.8141507922138
222,689.8090305049398
223,689.8038233685295
224,689.79854476412
225,689.7932143679119
226,689.7878560018668
227,689.7824974475095
228,689.7771702243771
229,689.7719093355455
230,689.7667529832936
231,689.7617422580702
232,689.7569208036778
233,689.7523344613102
234,689.7480308949437
235,689.7440592004838
236,689.7404695009656
237,689.7373125300904
238,689.7346392065798
239,689.7325002023367
240,689.7309455081023
241,689.7300240008501
242,689.7297830173276
243,689.7302679379171
244,689.7315217844316
245,689.7335848347442
246,689.7364942565405
247,689.7402837622134
248,689.7449832870825
249,689.750618693625
250,689.7572115049394
251,689.764778670855
252,689.7733323699138
253,689.7828798502095
254,689.7934233119428
255,689.8049598343058
256,689.8174813486055
257,689.8309746583002
258,689.8454215052407
259,689.8607986802989
260,689.8770781759218
261,689.8942273778762
262,689.9122092934448
263,689.9309828133901
264,689.9505030048687
265,689.9707214321157
266,689.9915865013694
267,690.0130438264324
268,690.0350366114376
269,690.0575060475971
270,690.0803917208445
271,690.1036320273628
272,690.1271645940453
273,690.1509267008494
274,690.1748557016222
275,690.198889439334
276,690.2229666509982
277,690.2470273571668
278,690.2710132309601
279,690.2948679421454
280,690.3185374726351
281,690.341970400664
282,690.3651181517172
283,690.3879352150869
284,690.4103793258256
285,690.4324116128598
286,690.4539967150712
287,690.475102868029
288,690.4957019645692
289,690.5157695923854
290,690.5352850512509
291,690.5542313516287
292,690.5725951955906
293,690.5903669403339
294,690.6075405441514
295,690.6241134943972
296,690.640086716858
297,690.655464466088
298,690.6702541967088
299,690.684466416337
300,690.6981145214241
301,690.7112146177233
302,690.7237853272994
303,690.7358475841125
304,690.7474244202906
305,690.7585407452328
306,690.7692231196354
307,690.7794995265191
308,690.7893991414505
309,690.7989521043488
310,690.808189295386
311,690.8171421173608
312,690.8258422865773
313,690.8343216337294
314,690.8426119155123
315,690.8507446366843
316,690.8587508814102
317,690.8666611523123
318,690.8745052158846
319,690.8823119537553
320,690.8901092205846
321,690.8979237107283
322,690.9057808365175
323,690.9137046206841
324,690.9217176044156
325,690.9298407714119
326,690.9380934875308
327,690.946493455121
328,690.955056680896
329,690.9637974562056
330,690.9727283488452
331,690.9818602059148
332,690.9912021673922
333,691.000761689695
334,691.0105445776223
335,691.0205550221111
336,691.0307956407987
337,691.0412675186626
338,691.0519702466802
339,691.0629019570702
340,691.0740593541761
341,691.0854377406552
342,691.0970310393412
343,691.1088318115844
344,691.1208312727794
345,691.1330193054054
346,691.1453844696338
347,691.1579140117076
348,691.1705938709365
349,691.1834086870186
350,691.1963418100777
351,691.2093753160594
352,691.2224900299316
353,691.235665558403
354,691.2488803326482
355,691.2621116602072
356,691.275335784337
357,691.2885279487422
358,691.3016624654341
359,691.3147127831843
360,691.3276515536113
361,691.3404506916867
362,691.3530814277283
363,691.3655143488207
364,691.3777194286366
365,691.3896660453734
366,691.4013229879636
367,691.4126584512545
368,691.4236400216452
369,691.4342346554187
370,691.4444086524475
371,691.4541276281144
372,691.4633564862684
373,691.472059395652
374,691.480199771319
375,691.4877402613429
376,691.4946427381136
377,691.5008682930902
378,691.5063772340733
379,691.5111290848438
380,691.5150825882662
381,691.5181957153895
382,691.5204256842617
383,691.521728992721
384,691.522061469189
385,691.5213783446524
386,691.51963434801
387,691.5167838260902
388,691.5127808890661
389,691.5075795816182
390,691.5011340798286
391,691.4933989132604
392,691.4843292111125
393,691.4738809710059
394,691.4620113489813
395,691.448678969458
396,691.4338442538639
397,691.417469766136
398,691.3995205724249
399,691.3799646114209
400,691.3587730709718
401,691.3359207661454
402,691.3113865138653
403,691.285153499941
404,691.257209635521
405,691.227547901118
406,691.1961666768832
407,691.1630700576794
408,691.1282681509341
409,691.0917773545325
410,691.0536206114282
411,691.0138276373704
412,690.9724351181276
413,690.9294868726861
414,690.8850339791032
415,690.8391348599829
416,690.7918553246934
417,690.743268565282
418,690.693455102703
419,690.6425026799243
420,690.590506098952
421,690.5375669997675
422,690.4837935805592
423,690.4293002602889
424,690.3742072861614
425,690.3186402896087
426,690.2627297949485
427,690.20661068518
428,690.1504216294886
429,690.0943044769748
430,690.038403621018
431,689.9828653387042
432,689.9278371097839
433,689.8734669195541
434,689.8199025499017
435,689.7672908627213
436,689.7157770801159
437,689.665504066134
438,689.6166116151647
439,689.5692357525796
440,689.5235080537999
441,689.4795549884972
442,689.4374972968809
443,689.3974494049726
444,689.3595188854623
445,689.32380597007
446,689.2904031181903
447,689.259394645087
448,689.2308564112857
449,689.2048555733707
450,689.181450395259
451,689.1606901181823
452,689.1426148870482
453,689.1272557305944
454,689.1146345927591
455,689.1047644128931
456,689.0976492526044
457,689.093284466948
458,689.0916569171683
459,689.0927452213152
460,689.0965200380971
461,689.102944378719
462,689.1119739415809
463,689.1235574654498
464,689.1376370975166
465,689.1541487730145
466,689.173022602816
467,689.1941832650001
468,689.2175503961529
469,689.243038978333
470,689.2705597182756
471,689.3000194163587
472,689.331321323786
473,689.3643654871668
474,689.3990490801839
475,689.4352667224583
476,689.4729107860834
477,689.5118716906459
478,689.5520381877736
479,689.5932976363048
480,689.635536269192
481,689.6786394533689
482,689.7224919439159
483,689.7669781338478
484,689.8119823008352
485,689.8573888524163
486,689.9030825717102
487,689.9489488660682
488,689.994874021299
489,690.0407454639899
490,690.0864520340639
491,690.131884269278
492,690.1769347029891
493,690.2214981759113
494,690.265472161465
495,690.3087571027457
496,690.3512567575409
497,690.39287854656
498,690.4335338992521
499,690.4731385913741
500,690.5116130688681
501,690.5488827534012
502,690.5848783258614
503,690.6195359849696
504,690.6527976788152
505,690.6846113074914
506,690.714930895245
507,690.7437167307075
508,690.7709354737291
509,690.796560227063
510,690.8205705708981
511,690.842952558241
512,690.8636986695205
513,690.8828077254423
514,690.9002847579061
515,690.9161408395329
516,690.9303928729856
517,690.9430633419523
518,690.9541800264731
519,690.9637756862159
520,690.9718877162062
521,690.978557780177
522,690.9838314268985
523,690.9877576945419
524,690.9903887074579
525,690.991779268983
526,690.991986453271
527,690.9910691990266
528,690.989087908425
529,690.9861040550388
530,690.9821798047591
531,690.9773776533405
532,690.9717600836209
533,690.9653892449584
534,690.95832665702
535,690.9506329394923
536,690.9423675684845
537,690.9335886595759
538,690.9243527768838
539,690.9147147673505
540,690.9047276195904
541,690.8944423469014
542,690.8839078941868
543,690.873171068553
544,690.862276493311
545,690.8512665849613
546,690.8401815523983
547,690.8290594171203
548,690.8179360528754
549,690.8068452429532
550,690.7958187531596
551,690.7848864183575
552,690.7740762403049
553,690.7634144943927
554,690.7529258428393
555,690.7426334520038
556,690.7325591116753
557,690.7227233543284
558,690.7131455721585
559,690.703844129183
560,690.694836465194
561,690.6861391883868
562,690.6777681541382
563,690.6697385282869
564,690.6620648341225
565,690.6547609831181
566,690.6478402902218
567,690.6413154751397
568,690.6351986513898
569,690.629501305112
570,690.6242342657794
571,690.6194076709942
572,690.6150309273559
573,690.6111126691031
574,690.6076607160932
575,690.604682032825
576,690.6021826905277
577,690.6001678344242
578,690.5986416577641
579,690.5976073830984
580,690.5970672500843
581,690.5970225084336
582,690.5974734146196
583,690.5984192314756
584,690.5998582305889
585,690.6017876981819
586,690.6042039458401
587,690.6071023278531
588,690.6104772669104
589,690.614322289325
590,690.6186300699408
591,690.6233924858813
592,690.6286006777335
593,690.6342451167169
594,690.6403156766049
595,690.6468017094303
596,690.6536921242744
597,690.6609754687491
598,690.6686400131272
599,690.676673837419
600,690.6850649219548
601,690.6938012420459
602,690.7028708670312
603,690.7122620635333
604,690.7219634021317
605,690.731963865934
606,690.7422529588431
607,690.7528208109319
608,690.7636582784487
609,690.7747570365315
610,690.7861096634701
611,690.7977097160333
612,690.8095517958106
613,690.8216316067569
614,690.8339460042662
615,690.8464930361573
616,690.8592719759283
617,690.8722833486072
618,690.8855289495193
619,690.89901185631
620,690.9127364345562
621,690.926708337183
622,690.9409344975602
623,690.9554231155514
624,690.9701836349461
625,690.9852267098032
626,691.0005641565955
627,691.0162088889142
628,691.0321748317513
629,691.0484768126911
630,691.0651304276128
631,691.0821518789392
632,691.0995577853093
633,691.1173649626782
634,691.1355901780532
635,691.1542498784008
636,691.1733598988434
637,691.1929351560142
638,691.2129893337612
639,691.2335345688599
640,691.2545811441043
641,691.2761371956078
642,691.2982084407266
643,691.3207979327518
644,691.3439058481371
645,691.3675293112626
646,691.3916622604927
647,691.4162953579141
648,691.441415944196
649,691.4670080395882
650,691.493052391702
651,691.5195265700061
652,691.5464051061698
653,691.5736596790215
654,691.6012593430538
655,691.6291707996315
656,691.6573587098391
657,691.6857860471298
658,691.714414486805
659,691.7432048280237
660,691.7721174425888
661,691.8011127432569
662,691.8301516630071
663,691.8591961357922
664,691.8882095689661
665,691.9171572978373
666,691.9460070135052
667,691.9747291559308
668,692.0032972648688
669,692.0316882819368
670,692.0598827980159
671,692.0878652414424
672,692.1156240038454
673,692.1431515017244
674,692.1704441728639
675,692.1975024076183
676,692.2243304161273
677,692.2509360336278
678,692.2773304671068
679,692.303527987447
680,692.3295455719235
681,692.355402502388
682,692.3811199247519
683,692.4067203756326
684,692.432227282488
685,692.4576644442444
686,692.4830554999564
687,692.5084233930744
688,692.5337898384737
689,692.5591747989213
690,692.5845959773662
691,692.610068331213
692,692.6356036143939
693,692.6612099527239
694,692.6868914578553
695,692.7126478850379
696,692.7384743395128
697,692.7643610355728
698,692.7902931112475
699,692.816250500536
700,692.8422078643347
701,692.8681345805245
702,692.8939947928101
703,692.9197475168997
704,692.945346801824
705,692.9707419437245
706,692.9958777490972
707,693.0206948441523
708,693.0451300268164
709,693.0691166580548
710,693.0925850894885
711,693.1154631242854
712,693.1376765076246
713,693.1591494416875
714,693.1798051186081
715,693.1995662635848
716,693.2183556796105
717,693.2360967851662
718,693.2527141368647
719,693.268133930331
720,693.2822844742187
721,693.2950966338078
722,693.3065042418382
723,693.3164444749915
724,693.3248581948488
725,693.3316902524666
726,693.3368897562073
727,693.3404103033185
728,693.3422101769579
729,693.3422525116397
730,693.3405054310542
731,693.3369421625255
732,693.3315411318806
733,693.3242860414553
734,693.3151659329168
735,693.3041752359685
736,693.2913138037103
737,693.2765869351235
738,693.2600053847239
739,693.2415853591517
740,693.2213485006179
741,693.199321857592
742,693.1755378434514
743,693.150034183608
744,693.1228538508773
745,693.0940449877943
746,693.0636608135254
747,693.0317595122123
748,692.9984040992982
749,692.963662262748
750,692.9276061767875
751,692.8903122863987
752,692.8518610611293
753,692.8123367170328
754,692.7718269059384
755,692.7304223717175
756,692.6882165737122
757,692.6453052781287
758,692.6017861191174
759,692.5577581323172
760,692.5133212645248
761,692.4685758636967
762,692.4236221538996
763,692.3785597002474
764,692.3334868690891
765,692.2885002885511
766,692.2436943141483
767,692.1991605038378
768,692.154987106609
769,692.111258568323
770,692.0680550578498
771,692.0254520156898
772,691.9835197264629
773,691.9423229162284
774,691.9019203757878
775,691.8623646119441
776,691.8237015298195
777,691.785970150145
778,691.7492023653657
779,691.7134227374271
780,691.6786483388001
781,691.6448886372795
782,691.6121454246145
783,691.5804127890102
784,691.549677131738
785,691.5199172283029
786,691.4911043346349
787,691.4632023385586
788,691.4361679565282
789,691.4099509755459
790,691.3844945403688
791,691.3597354862765
792,691.3356047175728
793,691.3120276314853
794,691.2889245862384
795,691.2662114108526
796,691.243799952835
797,691.2215986585799
798,691.1995131801981
799,691.1774470016927
800,691.1553020768839
801,691.1329794712351
802,691.1103799997491
803,691.0874048533032
804,691.0639562060013
805,691.039937796359
806,691.0152554757022
807,690.9898177182943
808,690.9635360892742
809,690.9363256681272
810,690.9081054268269
811,690.8787985628793
812,690.848332788274
813,690.8166405759405
814,690.7836593658122
815,690.7493317328148
816,690.7136055188444
817,690.67643393033
818,690.6377756028286
819,690.5975946346016
820,690.555860592075
821,690.5125484910303
822,690.4676387578644
823,690.4211171751797
824,690.3729748155992
825,690.323207967282
826,690.2718180541274
827,690.2188115529196
828,690.1641999087125
829,690.107999448774
830,690.0502312946684
831,689.990921271742
832,689.9300998153719
833,689.867801873451
834,689.8040668042553
835,689.7389382680444
836,689.6724641098625
837,689.6046962304733
838,689.535690442257
839,689.4655063071413
840,689.3942069541488
841,689.3218588748725
842,689.2485316960943
843,689.174297929696
844,689.0992327007535
845,689.0234134551687
846,688.9469196485259
847,688.869832418277
848,688.7922342418237
849,688.7142085835075
850,688.6358395339745
851,688.5572114458672
852,688.4784085702032
853,688.3995146979796
854,688.3206128113612
855,688.2417847482544
856,688.1631108831842
857,688.084669826348
858,688.0065381417746
859,687.9287900850186
860,687.8514973609059
861,687.7747289022259
862,687.6985506703523
863,687.6230254783223
864,687.5482128362346
865,687.4741688184878
866,687.4009459524382
867,687.3285931282057
868,687.2571555293486
869,687.1866745839823
870,687.1171879357613
871,687.048729434022
872,686.9813291423392
873,686.915013364835
874,686.8498046898562
875,686.785722050995
876,686.7227808056565
877,686.6609928314135
878,686.6003666402822
879,686.5409075109419
880,686.4826176389512
881,686.4254963052485
882,686.3695400634542
883,686.3147429463936
884,686.2610966917827
885,686.2085909863086
886,686.157213726535
887,686.1069512942701
888,686.0577888434507
889,686.0097105952643
890,685.9627001381031
891,685.9167407290066
892,685.8718155936459
893,685.8279082225315
894,685.7850026616304
895,685.7430837956128
896,685.7021376216011
897,685.6621515108817
898,685.623114455804
899,685.5850172990098
900,685.5478529422302
901,685.5116165321365
902,685.4763056210465
903,685.4419203004807
904,685.4084633055825
905,685.3759400883512
906,685.3443588576644
907,685.3137305844128
908,685.2840689707673
909,685.2553903833966
910,685.227713750987
911,685.2010604266231
912,685.1754540157556
913,685.1509201708297
914,685.1274863542232
915,685.1051815718944
916,685.0840360810063
917,685.0640810755605
918,685.0453483545886
