frame_number,force
0,599.931950000041
1,600.3756134470439
2,600.8071363786968
3,601.215020855434
4,601.5890192812989
5,601.9206852159086
6,602.203846727653
7,602.4349666280358
8,602.61334763029
9,602.7411615446533
10,602.8233092680825
11,602.8671208579408
12,602.8818893313963
13,602.8782321188871
14,602.8673001444914
15,602.8598901440745
16,602.8655504546833
17,602.8917926226346
18,602.9435077409566
19,603.0226366071073
20,603.1280943839079
21,603.2559329770418
22,603.3997241167699
23,603.5511380261878
24,603.7006756038832
25,603.8384962417073
26,603.9552688455111
27,604.0429611614724
28,604.0954855409393
29,604.1091454896041
30,604.0828615791214
31,604.0181774918894
32,603.919054528301
33,603.7914652616746
34,603.6428051669138
35,603.4811657752964
36,603.3145532682915
37,603.1501697899092
38,602.9938739410086
39,602.8498940842934
40,602.7207984259248
41,602.6076595351801
42,602.5103184393442
43,602.4276639090306
44,602.3578793801544
45,602.2986500790208
46,602.2473528776412
47,602.2012645073146
48,602.1578125449988
49,602.1148561163208
50,602.070937112738
51,602.0254203237952
52,601.9784630472449
53,601.930811392711
54,601.8834788914415
55,601.8373950100536
56,601.7931119489081
57,601.7506368058389
58,601.7094182512932
59,601.6684703961155
60,601.6265841957888
61,601.5825767973424
62,601.5355507493318
63,601.4851513191472
64,601.4318085470405
65,601.3769342495711
66,601.3230203307437
67,601.273568607107
68,601.232797474005
69,601.2051271360648
70,601.1945199866598
71,601.2038033963145
72,601.2341030214237
73,601.2844781656014
74,601.3518061541654
75,601.4309263505411
76,601.515028926104
77,601.596256272137
78,601.6664676592928
79,601.718096270257
80,601.7450125392785
81,601.7433072522936
82,601.7119116865325
83,601.6529699795703
84,601.5718832524108
85,601.4769746927451
86,601.3787816624906
87,601.2890510669149
88,601.2195727198388
89,601.1810047486289
90,601.1818227036122
91,601.2274879872795
92,601.3199053966514
93,601.4572214216695
94,601.6339887273365
95,601.8416795009488
96,602.0694801467758
97,602.3052643736285
98,602.5366360590394
99,602.7519480933825
100,602.941215077472
101,603.0968365946401
102,603.2140486326058
103,603.291043511733
104,603.328748107676
105,603.3303148125628
106,603.3004385961927
107,603.2446445226074
108,603.1686820580845
109,603.0781195037996
110,602.9781666051134
111,602.8736843960284
112,602.7692906706566
113,602.6694523091436
114,602.5784737357571
115,602.5003354241713
116,602.4383916322213
117,602.3949842481375
118,602.3710600603996
119,602.3658909372357
120,602.3769862289043
121,602.4002488888099
122,602.4303707956095
123,602.4614100315056
124,602.4874555915623
125,602.5032654211634
126,602.5047707441886
127,602.4893777517186
128,602.456046620473
129,602.4051647626947
130,602.3382581719053
131,602.2576095227863
132,602.1658645647317
133,602.0656945290458
134,601.9595435786588
135,601.8494503302165
136,601.7369194091604
137,601.6228359414216
138,601.5074359894516
139,601.3903471596234
140,601.2707039108656
141,601.1473370592265
142,601.019032458179
143,600.8848405925386
144,600.7444025363393
145,600.5982471228978
146,600.4480114946678
147,600.2965456973836
148,600.14787971973
149,600.0070437528536
150,599.8797328082442
151,599.7718130036426
152,599.6886985222997
153,599.6346776028508
154,599.6123017441091
155,599.6219485612623
156,599.6616258622595
157,599.727027895446
158,599.8118149486877
159,599.9080779512234
160,600.0069569383692
161,600.0993797104911
162,600.176863065197
163,600.2322888561921
164,600.2605581177916
165,600.259051541745
166,600.2278662931756
167,600.1698243194066
168,600.0902442555683
169,599.9964617004912
170,599.8971012702209
171,599.801152665485
172,599.7169629741517
173,599.6513048125881
174,599.6086902942177
175,599.5910555862637
176,599.5978498517522
177,599.6264656196064
178,599.6728809897953
179,599.7323585250514
180,599.8000606524843
181,599.8714923470149
182,599.9427495871324
183,600.0106079686111
184,600.0725148274556
185,600.126553631651
186,600.1714372101306
187,600.2065605440295
188,600.2321136738207
189,600.2492282963116
190,600.2601069663771
191,600.2680686945093
192,600.2774573746738
193,600.2933998798816
194,600.3214412077234
195,600.3671003307157
196,600.435384083607
197,600.5302859247892
198,600.6542988183546
199,600.8079908641843
200,600.9897148920637
201,601.1955264678891
202,601.4193565479965
203,601.6534345585574
204,601.8889102079632
205,602.1165999396892
206,602.3277830372737
207,602.5149688473335
208,602.6725427120967
209,602.7971992381117
210,602.8881104174873
211,602.9468350342216
212,602.9770140890666
213,602.9839045705851
214,602.973810096404
215,602.9534886672639
216,602.9296275971221
217,602.9084405919573
218,602.8953767328791
219,602.8948900425743
220,602.9102331464694
221,602.9432826873136
222,602.9944289249402
223,603.0625534596237
224,603.145101008002
225,603.2382436392612
226,603.3371355921777
227,603.436255995826
228,603.5298381720661
229,603.6123873436308
230,603.679276430355
231,603.7273668932819
232,603.7555435253643
233,603.7650191203569
234,603.7592872289815
235,603.7436736663936
236,603.7245284924408
237,603.7081803214279
238,603.6998316232101
239,603.7026015540808
240,603.7169102689321
241,603.7403343972862
242,603.767954828885
243,603.7930992646723
244,603.8082996587199
245,603.8062693100931
246,603.780750339903
247,603.7271534414205
248,603.6429677028882
249,603.5279394231202
250,603.3840164344196
251,603.2150598156244
252,603.0263596753756
253,602.8240432308522
254,602.6144943908334
255,602.4038896086042
256,602.197904765021
257,602.0015905613342
258,601.8193668557608
259,601.6550510396336
260,601.5118159791474
261,601.3919880651082
262,601.2966617763027
263,601.2252066465446
264,601.1748250608814
265,601.1403415070378
266,601.1143618901579
267,601.0878595046311
268,601.0511456599669
269,600.9950847964052
270,600.9123397552441
271,600.7984098865495
272,600.6522633300839
273,600.4764515596013
274,600.2767026455961
275,600.0610904343247
276,599.8389459432134
277,599.6197054200369
278,599.4118819415265
279,599.2223111814103
280,599.0557584521296
281,598.9148898041385
282,598.8005288461112
283,598.7120736700657
284,598.6479479154443
285,598.60599595662
286,598.5837823537564
287,598.5787973041555
288,598.5885892529834
289,598.6108465723381
290,598.6434449396074
291,598.6844726253886
292,598.732239877853
293,598.7852654255207
294,598.8422175302637
295,598.9017905218665
296,598.9625348939911
297,599.022708666017
298,599.0802371854962
299,599.1328350103868
300,599.1782726153338
301,599.2147038572039
302,599.2409456420912
303,599.2566255979191
304,599.2621601310727
305,599.2585647057242
306,599.2471250622274
307,599.2289827750046
308,599.2047126874517
309,599.1739831775878
310,599.1353855036713
311,599.0864922005914
312,599.0241527223251
313,598.944965643725
314,598.8458104681314
315,598.7243101790273
316,598.5791348213454
317,598.4101213342655
318,598.2182362954718
319,598.005425980679
320,597.7743969489064
321,597.5283740260802
322,597.2708917248949
323,597.0056701191147
324,596.7365916520195
325,596.4677424203783
326,596.2034469841227
327,595.9482358165619
328,595.7067252524741
329,595.4834298242827
330,595.282551584231
331,595.107800113635
332,594.9622887247542
333,594.8485240117058
334,594.768460570049
335,594.7235493662722
336,594.7147029511927
337,594.7421524211017
338,594.8052480375252
339,594.9023034110498
340,595.0305743263053
341,595.1864031706202
342,595.36547845685
343,595.5631035740057
344,595.7743728743671
345,595.994207635758
346,596.2172750711671
347,596.4378697021989
348,596.6498593935621
349,596.8467827202957
350,597.0221388312902
351,597.1698524409194
352,597.2848419406602
353,597.3635826337605
354,597.4045518969987
355,597.4084723312495
356,597.3783209422254
357,597.3191222656596
358,597.2375677936369
359,597.1414990240493
360,597.039279388121
361,596.9390942953801
362,596.8482635500129
363,596.7726863347991
364,596.716524572381
365,596.6821696872781
366,596.6704631192157
367,596.6810793263754
368,596.7129509315838
369,596.7646305216032
370,596.8345291383248
371,596.9210132023605
372,597.0223610192733
373,597.1365967198897
374,597.2612559827496
375,597.393177530877
376,597.5284210318166
377,597.6623755898577
378,597.7900629109386
379,597.906580402164
380,598.0075908583243
381,598.0897559937282
382,598.1510283436012
383,598.1907533600439
384,598.2095823848427
385,598.2092404655112
386,598.1922142179669
387,598.1614266929771
388,598.1199627780103
389,598.0709015732754
390,598.0172867479375
391,597.9622159649625
392,597.9089789256265
393,597.861155553969
394,597.8226101871729
395,597.7973593408258
396,597.7893232624679
397,597.8019910776358
398,597.8380423192082
399,597.8989728340956
400,597.9847680359902
401,598.0936610391204
402,598.2220201941062
403,598.3644248377867
404,598.5139856503584
405,598.6629264470388
406,598.8033712448727
407,598.9282024216536
408,599.0318115202308
409,599.1105815518899
410,599.1630149282889
411,599.1895207634411
412,599.1919586833011
413,599.1730766210834
414,599.1359752720593
415,599.0837009461134
416,599.0190271598381
417,598.9444337158408
418,598.8622359060648
419,598.7747781967344
420,598.6846033817092
421,598.5945339883285
422,598.5076407524219
423,598.4271113516922
424,598.3560616371386
425,598.2973394055076
426,598.2533551829514
427,598.2259508966431
428,598.2163050324637
429,598.2248769639187
430,598.2513998379807
431,598.2949229004871
432,598.3538793319275
433,598.4261333075052
434,598.5089645543267
435,598.5989911706412
436,598.6920908058165
437,598.7834107017841
438,598.8675338553323
439,598.9388151682659
440,598.9918552426425
441,599.0220510991726
442,599.0261453029299
443,599.002688718005
444,598.9523458370863
445,598.8780048038615
446,598.7846944491424
447,598.679343086084
448,598.5704245695408
449,598.4675183414045
450,598.380775528661
451,598.3202657591482
452,598.2952032216194
453,598.3131093661194
454,598.3790300486071
455,598.4949485302357
456,598.659509636213
457,598.8681124055581
458,599.1133603818587
459,599.3857918527872
460,599.6747619168899
461,599.9693344515855
462,600.2590695665244
463,600.5346414711411
464,600.7882668683674
465,601.0139533840198
466,601.2075946970741
467,601.3669483169097
468,601.4915335173878
469,601.5824847998264
470,601.6423947511012
471,601.6751697761342
472,601.6858899256075
473,601.6806238936699
474,601.6661399714271
475,601.6494888277688
476,601.6374862329681
477,601.6361598639305
478,601.6502401980939
479,601.6827773937587
480,601.7349478647583
481,601.8060739212345
482,601.8938351669683
483,601.9946243743564
484,602.1039982780468
485,602.2171780042592
486,602.329548577525
487,602.4370982630539
488,602.5367414223549
489,602.6264855118819
490,602.7054288552683
491,602.7736075832349
492,602.8317401498394
493,602.880933379541
494,602.9224076921354
495,602.957277140357
496,602.9863987694089
497,603.0102972824815
498,603.0291697977182
499,603.0429672335803
500,603.0515278189276
501,603.0547147219263
502,603.0525010600112
503,603.0449613586105
504,603.0321675907988
505,603.0140377856926
506,602.9902186719714
507,602.9600744428284
508,602.9228045216948
509,602.8776564111877
510,602.8241670253223
511,602.7623661211095
512,602.6928938542919
513,602.6170029738641
514,602.5364360890252
515,602.4531999620461
516,602.3692906860617
517,602.2864309208668
518,602.2058609843409
519,602.1282031372177
520,602.0534087849309
521,601.9807950944252
522,601.9091706223636
523,601.8370382409952
524,601.7628492877604
525,601.6852678940086
526,601.6033979877004
527,601.5169344606952
528,601.4262178011156
529,601.3321870726626
530,601.2362403090253
531,601.1400292090799
532,601.0452276560015
533,600.9533105663807
534,600.8653700949558
535,600.7819947341782
536,600.7032401112155
537,600.6287150227496
538,600.5577868839902
539,600.4898832309648
540,600.4248426573325
541,600.3632579233631
542,600.3067503601802
543,600.2581075356978
544,600.2212116111396
545,600.2007076170279
546,600.2014211946806
547,600.2276132866632
548,600.2822163349003
549,600.3662060814952
550,600.4782223572378
551,600.6144807907792
552,600.7689484145827
553,600.9337193426297
554,601.0995307158374
555,601.2563866258076
556,601.394277540889
557,601.5039734363994
558,601.5778356745385
559,601.6105611972702
560,601.5997631949211
561,601.5463054357853
562,601.4543345981006
563,601.3309908890606
564,601.1858153000469
565,601.0299066460376
566,600.8749164921902
567,600.7320042651136
568,600.6108895594798
569,600.519118669961
570,600.461620676346
571,600.4405859371045
572,600.4556556564238
573,600.504358534906
574,600.5826846905974
575,600.685673032543
576,600.807913110522
577,600.9439102386888
578,601.0883088610021
579,601.2359981649068
580,601.3821350548756
581,601.5221200504009
582,601.6515606695918
583,601.7662580424187
584,601.8622498747524
585,601.9359322083187
586,601.9842681220334
587,602.0050758376797
588,601.9973683464677
589,601.9616926922463
590,601.9003945343053
591,601.8177164381822
592,601.7196383684691
593,601.6134077769731
594,601.5067859521731
595,601.4071193247806
596,601.3203875452482
597,601.2503791162653
598,601.1981225762336
599,601.1616749897154
600,601.1363368392132
601,601.1153028492482
602,601.0906624356513
603,601.0545611869709
604,601.0002803845534
605,600.9230203408157
606,600.820273889581
607,600.6917962537324
608,600.5392621570825
609,600.3657379909288
610,600.1751100517005
611,599.9716080754256
612,599.7595226407423
613,599.5431246355092
614,599.3266935235035
615,599.1145100708095
616,598.9107001049504
617,598.7189090541311
618,598.5418895877314
619,598.3811435529835
620,598.2367488481134
621,598.1074367032113
622,597.9909077691257
623,597.8843213813094
624,597.784864823994
625,597.690295433846
626,597.599348698809
627,597.5119356027542
628,597.4291121860166
629,597.3528627109944
630,597.2857642096737
631,597.2306008712342
632,597.1899980322432
633,597.1661478323085
634,597.1606794932159
635,597.1746853188092
636,597.2088736366965
637,597.2637941787387
638,597.3400581009813
639,597.4384533007878
640,597.5598652016374
641,597.7049762888752
642,597.8738081265308
643,598.0652320650738
644,598.2765830573603
645,598.5034823030177
646,598.7399326412144
647,598.9787030339949
648,599.2119671216592
649,599.4321122902687
650,599.6326000628741
651,599.8087442587606
652,599.95827857302
653,600.0816035483157
654,600.1816395032572
655,600.2632769546417
656,600.3325006580823
657,600.3953399117389
658,600.4568403079005
659,600.5202469102137
660,600.5865359528759
661,600.6543492342804
662,600.7203001074008
663,600.7795528994656
664,600.8265396133547
665,600.8556763013434
666,600.861973325878
667,600.841479066115
668,600.791535591819
669,600.7108562565417
670,600.5994662010587
671,600.4585683212485
672,600.2903914457911
673,600.0980476826302
674,599.8853977721459
675,599.6569161233954
676,599.4175573657911
677,599.172637283943
678,598.9277399747457
679,598.6886444373724
680,598.4612315917225
681,598.2513090546181
682,598.0643059666148
683,597.9048464052985
684,597.7762701154784
685,597.6801947839776
686,597.6162043812335
687,597.5817275916198
688,597.5721505886407
689,597.5811805404595
690,597.601432470388
691,597.6251619671928
692,597.6450324375501
693,597.6548062962235
694,597.6498823557405
695,597.6276446158353
696,597.5876194491206
697,597.5314569141907
698,597.4627656690647
699,597.3868368098447
700,597.3102804553174
701,597.2405767150759
702,597.185532791071
703,597.152652180515
704,597.1484486887592
705,597.1777637669585
706,597.2431683602882
707,597.3445437696772
708,597.4789290138209
709,597.6406968084268
710,597.8220804965567
711,598.014010529226
712,598.2071383872243
713,598.3928709824694
714,598.5642441046581
715,598.7165186311844
716,598.8474560132964
717,598.9572964032183
718,599.0485051016
719,599.1253583301157
720,599.1934209358626
721,599.2589594217432
722,599.3283465904376
723,599.4075264447259
724,599.5015947290565
725,599.6145158895848
726,599.7489651964763
727,599.9062694368854
728,600.0864144204905
729,600.2880832425566
730,600.5086936587877
731,600.7444282215359
732,600.9902864006856
733,601.2402089993786
734,601.4873211569782
735,601.7243139471612
736,601.9439427103346
737,602.1395804862817
738,602.3057477915153
739,602.4385481482565
740,602.5359627058763
741,602.5979882245213
742,602.6266266291917
743,602.6257379722298
744,602.6007598408588
745,602.5582975038467
746,602.5056087091766
747,602.4500286638446
748,602.3983806558535
749,602.356394356844
750,602.3281379487538
751,602.3154920361967
752,602.3177415626968
753,602.3313923205191
754,602.3502986024095
755,602.3661250440297
756,602.3690950911553
757,602.3489344819333
758,602.2959064771087
759,602.2018376911294
760,602.0610323281292
761,601.870972185697
762,601.6327165286647
763,601.3509566070558
764,601.0337315878652
765,600.6918570348295
766,600.3381434662313
767,599.9864871876578
768,599.6508996587011
769,599.3445219387851
770,599.0786714911376
771,598.8619901015169
772,598.6997772178503
773,598.5935840500923
774,598.541119826303
775,598.5364995452007
776,598.5708394850242
777,598.6331659576325
778,598.7115445924961
779,598.7942880678947
780,598.8710832613677
781,598.9338937993716
782,598.9775299217789
783,598.9998262506236
784,599.0014223245469
785,598.9851974133798
786,598.9554696368928
787,598.9171188687736
788,598.8748090595816
789,598.832448742663
790,598.792947700277
791,598.7582419246806
792,598.7295029745347
793,598.7074258392041
794,598.6924920239423
795,598.6851335494089
796,598.6857785126007
797,598.6948128406589
798,598.7125110037134
799,598.7389697834947
800,598.7740568304117
801,598.8173839901733
802,598.8683245047689
803,598.9260880790127
804,598.9898401143683
805,599.058821795753
806,599.1324262575799
807,599.2102169047363
808,599.2919077252278
809,599.3773335070516
810,599.466421647401
811,599.5591578141549
812,599.6555312425742
813,599.7554523395734
814,599.858644896323
815,599.9645223612705
816,600.072071332132
817,600.1797889623773
818,600.2857322749765
819,600.38771155386
820,600.483606399888
821,600.5717389186257
822,600.6512269306751
823,600.722250891701
824,600.7861800650847
825,600.8455113514626
826,600.9035921662594
827,600.9641406197112
828,601.0306342384181
829,601.1056831576285
830,601.1905083912262
831,601.2846128129911
832,601.3856885871105
833,601.489766395554
834,601.5915732728647
835,601.6850279932534
836,601.76378508836
837,601.8217530236333
838,601.8535479665142
839,601.854880073606
840,601.8228861856921
841,601.7564133570371
842,601.6562311746234
843,601.5251319156071
844,601.3678820740907
845,601.1910070781106
846,601.0024065304908
847,600.8108117210086
848,600.6251243223957
849,600.4537119928195
850,600.3037538156831
851,600.1807044595869
852,600.0879017710031
853,600.0263207059472
854,599.9944866930288
855,599.988573015164
856,600.002695190725
857,600.0293901921827
858,600.0602486985917
859,600.0866556464614
860,600.1005829947179
861,600.0953728372314
862,600.0664463801822
863,600.0118608372602
864,599.9326160682411
865,599.8326167217244
866,599.7182454369322
867,599.5975839437709
868,599.4793963637072
869,599.3720360029009
870,599.2824456307158
871,599.2153938730955
872,599.1730332147631
873,599.1547930873895
874,599.157560704951
875,599.1760781723107
876,599.2035003511422
877,599.2320862630077
878,599.2539983599509
879,599.2621464361811
880,599.2509692500965
881,599.2170429511791
882,599.1594455376583
883,599.0798510146641
884,598.9823484054144
885,598.8729966864578
886,598.7591626827378
887,598.6487350774054
888,598.5493303297442
889,598.4675917792092
890,598.4086513645799
891,598.3757980750953
892,598.3703792157901
893,598.3919364075247
894,598.4385438172235
895,598.5072802479169
896,598.5947403727173
897,598.6974825812686
898,598.8123288672863
899,598.9364744771876
900,599.0674161154751
901,599.202748530832
902,599.3399035944826
903,599.4759171204623
904,599.6073062905203
905,599.7301140442416
906,599.8401206682216
907,599.9331615416571
908,600.0054675818644
909,600.0539751112899
910,600.0765990847901
911,600.072484457619
912,600.0422356836393
913,599.9880930624457
914,599.9139957346956
915,599.8254584616975
916,599.7292127893874
