frame_number,force
0,869.3559500090571
1,869.3555317878381
2,869.3551609774072
3,869.35488486805
4,869.3547505051001
5,869.3548045578301
6,869.355093180283
7,869.3556618633207
8,869.3565552774102
9,869.3578171064142
10,869.3594898741474
11,869.3616147669075
12,869.3642314556649
13,869.3673779209062
14,869.3710902819826
15,869.3754026320005
16,869.3803468788676
17,869.3859525926288
18,869.3922468586115
19,869.3992541357537
20,869.406996120088
21,869.4154916141011
22,869.4247564027522
23,869.4348031363348
24,869.4456412197871
25,869.4572767081772
26,869.4697122090878
27,869.4829467941651
28,869.4969759234531
29,869.5117913865585
30,869.5273812639368
31,869.5437299101428
32,869.5608179594507
33,869.5786223532825
34,869.5971163884232
35,869.6162697847508
36,869.6360487709392
37,869.6564161863561
38,869.6773315973971
39,869.698751426883
40,869.7206290959778
41,869.742915179258
42,869.7655575748126
43,869.7885016923782
44,869.8116906631597
45,869.8350655747405
46,869.8585657333339
47,869.8821289539902
48,869.905691877841
49,869.9291903144534
50,869.9525596069179
51,869.975735016834
52,869.9986521252722
53,870.0212472440895
54,870.0434578303582
55,870.065222895836
56,870.0864834035141
57,870.1071826440764
58,870.1272665864169
59,870.1466841979923
60,870.1653877323135
61,870.1833329819132
62,870.2004794956364
63,870.2167907593775
64,870.2322343396788
65,870.2467819900348
66,870.2604097201848
67,870.273097828965
68,870.2848309014773
69,870.2955977717091
70,870.3053914523646
71,870.3142090342645
72,870.3220515580814
73,870.3289238615904
74,870.3348344061768
75,870.3397950867659
76,870.3438210294302
77,870.3469303808599
78,870.34914409403
79,870.350485714878
80,870.3509811753314
81,870.350658597991
82,870.3495481168093
83,870.347681716432
84,870.3450930911946
85,870.3418175236486
86,870.337891782256
87,870.3333540384218
88,870.3282438036865
89,870.3226018876936
90,870.316470376171
91,870.3098926261678
92,870.3029132739491
93,870.2955782495428
94,870.2879347909529
95,870.2800314506724
96,870.2719180874831
97,870.2636458374842
98,870.2552670594965
99,870.2468352512147
100,870.2384049336159
101,870.2300315020715
102,870.2217710434988
103,870.2136801202131
104,870.2058155229709
105,870.1982339972653
106,870.1909919474426
107,870.1841451227523
108,870.1777482889356
109,870.1718548892229
110,870.1665166996817
111,870.161783485124
112,870.1577026626503
113,870.154318979927
114,870.1516742142294
115,870.1498068964147
116,870.1487520623278
117,870.1485410335451
118,870.1492012295882
119,870.1507560139263
120,870.1532245758733
121,870.1566218501864
122,870.1609584759449
123,870.1662407959993
124,870.1724708979152
125,870.1796466969441
126,870.1877620609401
127,870.1968069759693
128,870.206767749617
129,870.2176272473358
130,870.2293651565541
131,870.2419582742053
132,870.2553808153297
133,870.2696047422809
134,870.2846001147922
135,870.3003354606633
136,870.3167781659306
137,870.3338948827076
138,870.3516519521974
139,870.3700158391077
140,870.3889535715973
141,870.4084331784914
142,870.4284241138296
143,870.44889765861
144,870.4698272907428
145,870.4911890160805
146,870.5129616553627
147,870.5351270836393
148,870.55767042023
149,870.5805801688133
150,870.6038483089078
151,870.6274703413344
152,870.6514452905033
153,870.67577566522
154,870.7004673777317
155,870.725529619252
156,870.7509746903222
157,870.7768177860711
158,870.8030767387498
159,870.8297717215868
160,870.8569249182535
161,870.8845601612044
162,870.912702540669
163,870.9413779848794
164,870.9706128115431
165,871.0004332506555
166,871.030864939234
167,871.0619323891249
168,871.0936584296934
169,871.1260636283367
170,871.1591656936135
171,871.1929788680744
172,871.2275133198535
173,871.2627745431648
174,871.2987627780043
175,871.3354724588745
176,871.3728917014841
177,871.4110018354824
178,871.4497769907964
179,871.4891837452698
180,871.529180841769
181,871.569718983027
182,871.6107407116782
183,871.6521803815142
184,871.6939642247206
185,871.7360105190513
186,871.7782298579829
187,871.8205255250829
188,871.8627939709205
189,871.9049253873536
190,871.946804370587
191,871.9883106614374
192,872.0293199490551
193,872.069704723028
194,872.1093351582733
195,872.1480800174722
196,872.1858075569771
197,872.2223864236544
198,872.2576865315474
199,872.291579908341
200,872.3239415023817
201,872.3546499417589
202,872.3835882382654
203,872.4106444313467
204,872.4357121700816
205,872.4586912339707
206,872.4794879952761
207,872.4980158267483
208,872.514195458874
209,872.5279552902764
210,872.5392316538627
211,872.5479690403224
212,872.5541202803153
213,872.5576466874343
214,872.5585181653337
215,872.5567132831031
216,872.552219322012
217,872.5450322943685
218,872.535156932951
219,872.5226066486938
220,872.5074034550274
221,872.4895778584435
222,872.4691687157496
223,872.4462230591175
224,872.420795890511
225,872.3929499472456
226,872.3627554402319
227,872.3302897663735
228,872.2956371973183
229,872.2588885484397
230,872.2201408338794
231,872.1794969147151
232,872.1370651471545
233,872.0929590361342
234,872.047296897244
235,872.0002015272656
236,871.9517998814747
237,871.9022227544441
238,871.8516044601463
239,871.8000825064909
240,871.7477972589734
241,871.6948915878954
242,871.6415104939125
243,871.5878007076162
244,871.5339102599975
245,871.4799880212456
246,871.4261832053558
247,871.3726448378899
248,871.3195211844301
249,871.2669591381298
250,871.2151035664925
251,871.1640966197002
252,871.114077004656
253,871.0651792300587
254,871.0175328287485
255,870.9712615648752
256,870.9264826354625
257,870.8833058783275
258,870.8418330003127
259,870.8021568405308
260,870.7643606826008
261,870.7285176283297
262,870.6946900436751
263,870.6629290862057
264,870.6332743212827
265,870.6057534317857
266,870.5803820240235
267,870.5571635311769
268,870.5360892151975
269,870.5171382679824
270,870.5002780125587
271,870.4854642048801
272,870.4726414364304
273,870.4617436368559
274,870.452694674327
275,870.4454090494069
276,870.4397926761262
277,870.4357437419555
278,870.4331536366219
279,870.4319079381148
280,870.4318874423309
281,870.4329692204384
282,870.4350276857981
283,870.4379356510713
284,870.4415653564137
285,870.445789451462
286,870.4504819167903
287,870.4555189139021
288,870.460779556094
289,870.4661465957471
290,870.4715070266784
291,870.4767526023754
292,870.4817802718399
293,870.4864925350312
294,870.4907977202552
295,870.4946101861151
296,870.4978504505336
297,870.5004452493077
298,870.5023275274591
299,870.503436368275
300,870.5037168666938
301,870.5031199549816
302,870.5016021893757
303,870.4991255067783
304,870.4956569609233
305,870.491168447975
306,870.4856364320979
307,870.4790416815565
308,870.4713690247913
309,870.4626071336215
310,870.4527483379165
311,870.4417884738605
312,870.4297267671104
313,870.4165657523229
314,870.402311230344
315,870.3869722628403
316,870.3705612014251
317,870.3530937452131
318,870.3345890179191
319,870.3150696535502
320,870.2945618789678
321,870.273095582477
322,870.2507043598349
323,870.2274255317142
324,870.2033001289299
325,870.1783728436808
326,870.1526919470242
327,870.1263091746155
328,870.0992795838281
329,870.0716613855861
330,870.0435157540256
331,870.0149066168304
332,869.9859004287233
333,869.9565659300953
334,869.9269738924472
335,869.897196852353
336,869.8673088357477
337,869.8373850741084
338,869.807501713603
339,869.777735518069
340,869.7481635672198
341,869.7188629527258
342,869.6899104762317
343,869.6613823542183
344,869.6333539345845
345,869.6058994291886
346,869.5790916656357
347,869.5530018601983
348,869.5276994119259
349,869.5032517163655
350,869.4797239965274
351,869.4571791488571
352,869.4356776026196
353,869.4152771917519
354,869.3960330383668
355,869.3779974464579
356,869.3612198032965
357,869.3457464851563
358,869.331620763864
359,869.3188827114013
360,869.3075691008894
361,869.2977133027608
362,869.2893451743737
363,869.2824909405585
364,869.2771730625988
365,869.2734100939899
366,869.2712165223332
367,869.2706025974057
368,869.2715741460461
369,869.274132375513
370,869.2782736684323
371,869.2839893738144
372,869.2912655995707
373,869.3000830127501
374,869.3104166545721
375,869.3222357779038
376,869.3355037146134
377,869.3501777793571
378,869.3662092152637
379,869.3835431859017
380,869.4021188168498
381,869.4218692892057
382,869.4427219862577
383,869.4645986930227
384,869.4874158464249
385,869.5110848321071
386,869.5355123227919
387,869.5606006530112
388,869.5862482258713
389,869.6123499489768
390,869.6387976979989
391,869.6654808070994
392,869.6922865856434
393,869.7191008608537
394,869.7458085462586
395,869.772294235354
396,869.7984428185764
397,869.8241401200296
398,869.849273549135
399,869.8737327615702
400,869.8974103232534
401,869.9202023707774
402,869.9420092620021
403,869.9627362114165
404,869.9822939056297
405,870.0005990945159
406,870.0175751533271
407,870.0331526110313
408,870.0472696406072
409,870.0598725081649
410,870.0709159791072
411,870.0803636801571
412,870.0881884154935
413,870.0943724340684
414,870.0989076444006
415,870.1017957731103
416,870.1030484638017
417,870.1026873129262
418,870.1007438386283
419,870.0972593776164
420,870.0922849047133
421,870.0858807707743
422,870.0781163573389
423,870.0690696499122
424,870.0588267346902
425,870.0474812248461
426,870.0351336222444
427,870.021890619554
428,870.0078643472008
429,869.9931715698511
430,869.9779328377963
431,869.9622715990895
432,869.9463132784517
433,869.9301843292141
434,869.9140112652633
435,869.8979196810667
436,869.8820332691005
437,869.8664728450497
438,869.8513553917754
439,869.8367931333399
440,869.8228926505061
441,869.8097540489215
442,869.7974701902839
443,869.7861259951691
444,869.7757978244313
445,869.7665529445508
446,869.7584490807175
447,869.7515340593694
448,869.7458455397216
449,869.7414108323927
450,869.7382468029276
451,869.7363598585564
452,869.7357460175033
453,869.7363910610628
454,869.7382707690224
455,869.7413512387074
456,869.7455892871037
457,869.750932934209
458,869.7573219637703
459,869.7646885548173
460,869.7729579742831
461,869.782049318385
462,869.7918762891269
463,869.802347992491
464,869.8133697463171
465,869.8248438881976
466,869.8366705766402
467,869.848748581769
468,869.8609760643343
469,869.8732513432924
470,869.8854736524977
471,869.8975438861504
472,869.9093653308865
473,869.9208443805146
474,869.9318912280659
475,869.9424205291183
476,869.952352029844
477,869.9616111526242
478,869.9701295315004
479,869.9778454895747
480,869.9847044512959
481,869.9906592845698
482,869.9956705701072
483,869.9997067971805
484,870.0027444856888
485,870.0047682350229
486,870.0057707012224
487,870.005752504883
488,870.0047220726228
489,870.0026954148256
490,869.9996958424118
491,869.9957536260374
492,869.9909056023648
493,869.9851947335242
494,869.9786696270289
495,869.9713840240198
496,869.9633962638085
497,869.9547687322566
498,869.9455673002742
499,869.9358607564926
500,869.9257202353399
501,869.9152186391493
502,869.9044300514719
503,869.8934291392915
504,869.8822905446572
505,869.871088270537
506,869.8598950700225
507,869.8487818513355
508,869.8378171131191
509,869.8270664253714
510,869.816591971128
511,869.8064521624417
512,869.7967013412923
513,869.7873895722147
514,869.7785625293974
515,869.7702614774026
516,869.7625233417443
517,869.7553808633135
518,869.7488628290332
519,869.742994370114
520,869.7377973187566
521,869.7332906139089
522,869.7294907466451
523,869.7264122358557
524,869.7240681253146
525,869.7224704938986
526,869.7216309715161
527,869.7215612538023
528,869.7222736089424
529,869.7237813703981
530,869.7260994095703
531,869.7292445817791
532,869.7332361374845
533,869.7380960896264
534,869.7438495283552
535,869.7505248761001
536,869.7581540779407
537,869.766772723887
538,869.7764201006989
539,869.7871391713417
540,869.7989764803414
541,869.8119819837514
542,869.8262088036166
543,869.8417129086216
544,869.8585527243337
545,869.8767886777358
546,869.8964826819129
547,869.9176975682748
548,869.9404964752754
549,869.9649422034149
550,869.9910965461123
551,870.0190196052969
552,870.0487690998829
553,870.0803996747788
554,870.1139622178765
555,870.1495031928171
556,870.1870639959234
557,870.2266803457329
558,870.2683817127578
559,870.3121907958104
560,870.3581230499392
561,870.4061862700715
562,870.4563802341546
563,870.508696409882
564,870.563117729604
565,870.6196184382887
566,870.678164018885
567,870.7387111979758
568,870.8012080327478
569,870.8655940786693
570,870.9318006356692
571,870.9997510685649
572,871.0693611954871
573,871.1405397372373
574,871.2131888212006
575,871.2872045349044
576,871.3624775256542
577,871.4388936432988
578,871.5163346228123
579,871.5946788021259
580,871.6738018688337
581,871.7535776273496
582,871.8338787762156
583,871.914577684229
584,871.9955471543128
585,872.0766611653836
586,872.1577955841699
587,872.2388288403577
588,872.3196425592843
589,872.4001221466091
590,872.4801573192556
591,872.5596425768485
592,872.6384776080047
593,872.7165676260202
594,872.7938236288285
595,872.8701625788501
596,872.9455074995263
597,873.019787486667
598,873.0929376340266
599,873.164898873806
600,873.235617734467
601,873.3050460206179
602,873.3731404225306
603,873.4398620653242
604,873.5051760094784
605,873.5690507150874
606,873.6314574823026
607,873.6923698799652
608,873.7517631738534
609,873.809613765629
610,873.8658986534996
611,873.920594925416
612,873.9736792950041
613,874.0251276894269
614,874.074914897124
615,874.1230142817939
616,874.1693975670318
617,874.2140346940014
618,874.256893752898
619,874.2979409878747
620,874.3371408740359
621,874.3744562634719
622,874.409848595366
623,874.4432781637687
624,874.4747044360543
625,874.5040864148857
626,874.531383036092
627,874.5565535941195
628,874.5795581860466
629,874.6003581648712
630,874.6189165929202
631,874.6351986867633
632,874.6491722457805
633,874.660808057265
634,874.6700802715135
635,874.6769667409309
636,874.6814493181275
637,874.6835141098163
638,874.6831516860254
639,874.6803572469162
640,874.6751307511594
641,874.6674770100911
642,874.657405751263
643,874.6449316539936
644,874.6300743580881
645,874.6128584449202
646,874.5933133881863
647,874.5714734708129
648,874.5473776650343
649,874.5210694737522
650,874.492596731885
651,874.4620113663017
652,874.429369112757
653,874.3947291888555
654,874.3581539237605
655,874.3197083477072
656,874.2794597465435
657,874.2374771879803
658,874.193831027259
659,874.148592400965
660,874.1018327186177
661,874.0536231616126
662,874.0040341974897
663,873.9531351147507
664,873.9009935804556
665,873.8476752203296
666,873.7932432196172
667,873.7377579430688
668,873.681276574547
669,873.6238527799973
670,873.5655364001406
671,873.5063731800566
672,873.4464045424644
673,873.3856674114802
674,873.3241940944489
675,873.2620122301216
676,873.1991448108189
677,873.1356102843549
678,873.0714227393568
679,873.0065921756986
680,872.9411248597395
681,872.8750237616321
682,872.8082890695124
683,872.740918773408
684,872.672909310268
685,872.6042562601184
686,872.5349550814485
687,872.4650018716529
688,872.3943941364117
689,872.3231315509756
690,872.2512166967479
691,872.178655758009
692,872.1054591655478
693,872.0316421760019
694,871.9572253778464
695,871.8822351172669
696,871.8067038396717
697,871.7306703452402
698,871.6541799591711
699,871.5772846184599
700,871.500042877025
701,871.4225198307112
702,871.344786964266
703,871.2669219241883
704,871.1890082236167
705,871.1111348868665
706,871.0333960411324
707,870.9558904614901
708,870.878721073453
709,870.8019944159206
710,870.7258200670651
711,870.6503100365674
712,870.575578128806
713,870.5017392823559
714,870.4289088915367
715,870.3572021163483
716,870.2867331880997
717,870.2176147190588
718,870.1499570250857
719,870.0838674700873
720,870.0194498401283
721,869.9568037537149
722,869.8960241138251
723,869.837200606733
724,869.7804172521057
725,869.7257520078741
726,869.6732764319563
727,869.6230554013291
728,869.5751468876648
729,869.5296017882434
730,869.4864638112324
731,869.4457694154296
732,869.4075478055677
733,869.3718209847333
734,869.3386038650928
735,869.3079044369507
736,869.2797239944109
737,869.2540574137983
738,869.2308934787555
739,869.2102152437883
740,869.1920004264291
741,869.1762218176711
742,869.1628477009511
743,869.1518422711247
744,869.1431660460028
745,869.1367762644278
746,869.1326272672546
747,869.1306708607228
748,869.1308566642659
749,869.1331324457431
750,869.137444446613
751,869.1437376988935
752,869.1519563358213
753,869.1620438989771
754,869.1739436454814
755,869.1875988588273
756,869.2029531655546
757,869.2199508574816
758,869.2385372163827
759,869.2586588356279
760,869.2802639318217
761,869.3033026389471
762,869.3277272778013
763,869.3534925942919
764,869.3805559610546
765,869.4088775376923
766,869.4384203859915
767,869.4691505380093
768,869.5010370168384
769,869.5340518115247
770,869.5681698083952
771,869.60336868119
772,869.639628742696
773,869.6769327613728
774,869.7152657474024
775,869.7546147131561
776,869.7949684128862
777,869.8363170654076
778,869.8786520619685
779,869.9219656601682
780,869.9662506643529
781,870.011500093472
782,870.0577068384218
783,870.1048633119083
784,870.1529610945151
785,870.2019905807259
786,870.2519406280481
787,870.3027982113877
788,870.354548083924
789,870.4071724454941
790,870.4606506201843
791,870.5149587463566
792,870.5700694841447
793,870.6259517466756
794,870.6825704612163
795,870.7398863651376
796,870.7978558395943
797,870.8564307816107
798,870.9155585129674
799,870.9751817221176
800,871.0352384338913
801,871.095662001548
802,871.1563811170032
803,871.2173198372259
804,871.2783976269425
805,871.3395294192369
806,871.4006256963319
807,871.4615925928983
808,871.5223320237652
809,871.5827418372091
810,871.6427159946976
811,871.7021447783098
812,871.7609150276276
813,871.8189104080891
814,871.8760117125582
815,871.9320971973759
816,871.9870429535546
817,872.040723313078
818,872.093011289421
819,872.1437790503453
820,872.1928984198785
821,872.2402414054302
822,872.2856807453917
823,872.3290904720649
824,872.3703464842564
825,872.4093271237372
826,872.445913750555
827,872.4799913137425
828,872.5114489155234
829,872.5401803681909
830,872.566084743485
831,872.5890669145001
832,872.6090380896068
833,872.6259163363799
834,872.6396270914508
835,872.6501036501863
836,872.657287628661
837,872.6611293897664
838,872.6615884256171
839,872.658633689886
840,872.652243876221
841,872.6424076418265
842,872.6291237778003
843,872.6124013293747
844,872.5922596696782
845,872.5687285300919
846,872.5418479891504
847,872.5116684210575
848,872.4782504049048
849,872.4416645964222
850,872.4019915648187
851,872.3593215973842
852,872.313754473954
853,872.2653992124332
854,872.2143737857216
855,872.1608048096821
856,872.1048272015282
857,872.0465838084352
858,871.9862250071208
859,871.9239082759224
860,871.8597977410445
861,871.7940636984781
862,871.7268821132798
863,871.6584340985696
864,871.5889053772063
865,871.5184857290369
866,871.4473684260083
867,871.3757496569228
868,871.303827943745
869,871.2318035519944
870,871.1598778982711
871,871.0882529578383
872,871.0171306743077
873,870.9467123720644
874,870.8771981707035
875,870.8087864001998
876,870.7416730161722
877,870.6760510160692
878,870.6121098586387
879,870.5500348902767
880,870.4900067828628
881,870.4322009884631
882,870.3767872163918
883,870.3239289372605
884,870.2737829171982
885,870.2264987842361
886,870.1822186285458
887,870.1410766384734
888,870.1031987742248
889,870.0687024802837
890,870.0376964368431
891,870.0102803505098
892,869.9865447851671
893,869.96657103406
894,869.9504310331401
895,869.9381873138491
896,869.9298929917952
897,869.9255917869651
898,869.9253180717151
899,869.929096944864
900,869.9369443328304
901,869.9488671206378
902,869.9648633162554
903,869.9849222514731
904,870.0090248216109
905,870.0371437648022
906,870.0692439795366
907,870.1052828770765
908,870.1452107637793
909,870.1889712475464
910,870.236501662664
911,870.2877335081057
912,870.342592895614
913,870.4010010047709
914,870.4628745420308
915,870.5281261992645
916,870.5966651055192
917,870.6683972642603
