frame_number,force
0,501.51538000002773
1,501.56044227094134
2,501.60027659800653
3,501.62981880645003
4,501.6443491612448
5,501.63970490315523
6,501.61252790838137
7,501.56052172938803
8,501.48265801993676
9,501.3792676295466
10,501.2519958907419
11,501.1036621977093
12,500.9380829844434
13,500.7598767973365
14,500.5742156533958
15,500.38648072658486
16,500.2018357959751
17,500.02479834130673
18,499.8589082128425
19,499.7065612504255
20,499.5690260895878
21,499.4466261905863
22,499.33904866371586
23,499.2457268292348
24,499.16622608226606
25,499.1005447978613
26,499.0492418972107
27,499.0133372313077
28,498.99399339688455
29,498.9920533772451
30,499.0075534055351
31,499.0393399713759
32,499.0848942655886
33,499.1404172104262
34,499.20116217578635
35,499.261935418926
36,499.3176452496601
37,499.3637864638439
38,499.3967833291461
39,499.41416240387065
40,499.4145747427854
41,499.3977247058437
42,499.3642793940787
43,499.3158237454364
44,499.2548871524872
45,499.18500342920817
46,499.1107093463432
47,499.03737949801365
48,498.9708453819777
49,498.9168215118231
50,498.88022345880336
51,498.86449716241657
52,498.8710862756556
53,498.8991461976884
54,498.9455744343152
55,499.00537737911935
56,499.0723392400489
57,499.1399009450799
58,499.2021081545699
59,499.2544680723794
60,499.2945700779199
61,499.32236595251857
62,499.3400631986485
63,499.3516542299117
64,499.3621751333124
65,499.37684133254623
66,499.40022177948924
67,499.4355839393978
68,499.4844917725934
69,499.54669420133865
70,499.6203064543616
71,499.7022501408959
72,499.7888730858449
73,499.8766266422233
74,499.96266071090474
75,500.04522083866425
76,500.12378558213095
77,500.19894080916
78,500.2720381904953
79,500.34472682637437
80,500.4184714993416
81,500.49416189146234
82,500.57187493325443
83,500.65080656956513
84,500.7293664322679
85,500.80542259589595
86,500.8766688992233
87,500.9410575976008
88,500.99721691813477
89,501.044780592544
90,501.08459063462647
91,501.11876543627886
92,501.15063151817327
93,501.18451038304676
94,501.2253579789812
95,501.27827965460216
96,501.3479690706207
97,501.4381299141343
98,501.55094512798433
99,501.6866750803501
100,501.8434781310439
101,502.01752212632243
102,502.2033916417182
103,502.3947263956685
104,502.58498212073346
105,502.76819282306445
106,502.9396219931356
107,503.0962124702422
108,503.2367838359882
109,503.3619762569554
110,503.4739760212621
111,503.5760701557758
112,503.6720872334717
113,503.76580745656435
114,503.86045085698714
115,503.95834624556494
116,504.06083729569707
117,504.16841893045796
118,504.2810433235012
119,504.39849732437824
120,504.5207328788386
121,504.6480428500041
122,504.7810267258517
123,504.9203653959386
124,505.06648640012247
125,505.2192285210833
126,505.3776034358092
127,505.53970983909284
128,505.7028017779441
129,505.8634730767337
130,506.01790483095886
131,506.16212671116796
132,506.2922585309015
133,506.40472416648026
134,506.4964548972512
135,506.5651050351051
136,506.60928351831876
137,506.62877536082783
138,506.6247065357776
139,506.59960601978094
140,506.5573354045154
141,506.50287628482715
142,506.4419799083622
143,506.38069395373736
144,506.3247953675961
145,506.2791844986013
146,506.2473310131269
147,506.23088282302507
148,506.22953247292895
149,506.2411836865103
150,506.2623963778739
151,506.28903144387607
152,506.3169773483198
153,506.3428260398912
154,506.3643817330218
155,506.38093007512305
156,506.39325524174325
157,506.4034500227328
158,506.41459590558435
159,506.4303808786118
160,506.45468316935825
161,506.49111503744854
162,506.5425218284383
163,506.6104665599813
164,506.6947746105728
165,506.79324040651414
166,506.90159233850164
167,507.01377194396827
168,507.1225211467675
169,507.2202067156951
170,507.2997651669832
171,507.355636861352
172,507.3845670624629
173,507.38616548976535
174,507.3631312091183
175,507.32108147096164
176,507.2679799800784
177,507.2132304684847
178,507.16656421033747
179,507.1368867208024
180,507.13124628306537
181,507.1540464317292
182,507.2065697870787
183,507.2868387863013
184,507.38981040091585
185,507.5078688609413
186,507.631543795658
187,507.7503629709111
188,507.8537558725185
189,507.931941578457
190,507.9767498053823
191,507.9823360897449
192,507.94575867132323
193,507.8673826213788
194,507.75106754693275
195,507.6040864072231
196,507.4367269307529
197,507.26155433781935
198,507.09236290360724
199,506.94290049803067
200,506.8255007451861
201,506.74979268274086
202,506.7216667308855
203,506.74264768572345
204,506.8097634339979
205,506.91592142048745
206,507.0507339707905
207,507.2016783494733
208,507.35544048160824
209,507.49927461482486
210,507.62221777342995
211,507.7160278736017
212,507.77576375622937
213,507.7999871363854
214,507.79062593188576
215,507.75257268734066
216,507.6930897866049
217,507.62107308677827
218,507.54621815930875
219,507.478148787753
220,507.4255867826511
221,507.39563988697495
222,507.39325739691617
223,507.42087421363385
224,507.47825362973697
225,507.56253995335067
226,507.6685257010262
227,507.7891227027719
228,507.91600876759554
229,508.0403991567609
230,508.1538655370311
231,508.2491092208649
232,508.32060132347635
233,508.36502277790845
234,508.3814604326671
235,508.3713400659451
236,508.3381057858171
237,508.2866867920658
238,508.2228224299268
239,508.15233885694016
240,508.0804793954432
241,508.0113808133517
242,507.947754738399
243,507.89078072432034
244,507.84016910963413
245,507.79434021937766
246,507.7506968608635
247,507.7060029465999
248,507.65687925284084
249,507.6003822146398
250,507.53457474183125
251,507.45896601657705
252,507.374711666412
253,507.2845247599604
254,507.1923236830601
255,507.10269941098244
256,507.02030680817967
257,506.9492810212344
258,506.89276464395107
259,506.85260850766224
260,506.82927456538346
261,506.8219253872992
262,506.82864745087466
263,506.84674229490776
264,506.87303567627816
265,506.9041882227354
266,506.93701278083046
267,506.9687880992686
268,506.9975184534758
269,507.02207217785525
270,507.04216925878853
271,507.0582539923992
272,507.07132788235293
273,507.08280337225665
274,507.09439447451587
275,507.10802652426315
276,507.12573873137814
277,507.14955724974226
278,507.18132411053637
279,507.22248509884685
280,507.2738668269714
281,507.33548885102715
282,507.40644611142477
283,507.48487729215276
284,507.5680310520527
285,507.6524496513579
286,507.73428000661943
287,507.809682967922
288,507.87526513146537
289,507.9284418051548
290,507.9676684701985
291,507.9925252194069
292,508.0036720816706
293,508.00270855352994
294,507.9919768059099
295,507.97434215579665
296,507.952964948037
297,507.93106292745205
298,507.91167334012925
299,507.8974530538242
300,507.89056973467314
301,507.8927139409068
302,507.90521629635845
303,507.9292208110331
304,507.9658555488903
305,508.0163379804432
306,508.08194984857755
307,508.16383637334803
308,508.2626378401664
309,508.37802513368393
310,508.50825284901254
311,508.6498537079129
312,508.7975817472919
313,508.94467123924267
314,509.08341363387814
315,509.205978561509
316,509.30534132387004
317,509.3761480794331
318,509.41535567310666
319,509.42252012982317
320,509.39967131531586
321,509.3507984210644
322,509.2810684935442
323,509.1959736277287
324,509.10061139294606
325,508.9992376035418
326,508.89512535999006
327,508.7906712630127
328,508.68764203358745
329,508.58745572644665
330,508.4914211839724
331,508.40088896668755
332,508.31728498705115
333,508.2420172049036
334,508.1762768966647
335,508.1207883937073
336,508.07557745388283
337,508.0398236256998
338,508.0118399496236
339,507.98918810507615
340,507.968898476503
341,507.9477406721108
342,507.92248869621125
343,507.8901361644341
344,507.8480337766465
345,507.7939467875979
346,507.726058674852
347,507.64296479358796
348,507.54370195079156
349,507.42784754151273
350,507.2956925119693
351,507.14845049626757
352,506.98843043143063
353,506.81909134898365
354,506.6449207871987
355,506.47112282781364
356,506.303149841421
357,506.14614602941805
358,506.0043849464157
359,505.88078163453343
360,505.7765475102408
361,505.69103590840865
362,505.6217990352028
363,505.56484318284924
364,505.5150400476023
365,505.4666445546224
366,505.41387819663
367,505.3515406916141
368,505.2756089356987
369,505.18377947821
370,505.07590276818695
371,504.95423814851847
372,504.82344729841583
373,504.69026708333826
374,504.5628642989277
375,504.4499518608446
376,504.3598023223162
377,504.2993040727673
378,504.27317630741817
379,504.28342446978246
380,504.32909702588677
381,504.4063790900596
382,504.50900392678636
383,504.62889458822946
384,504.7569136488436
385,504.8836241151874
386,505.0000199606688
387,505.09822189286984
388,505.1721305887773
389,505.21799676378475
390,505.2348315465105
391,505.2245670648209
392,505.19190002272177
393,505.14380611041287
394,505.08877909791335
395,505.03590100489066
396,504.99387332963596
397,504.9701305096942
398,504.97012694291897
399,504.99685875590046
400,505.0506605867563
401,505.1292949731128
402,505.2283155958599
403,505.3416426727975
404,505.4622573589182
405,505.58291371292535
406,505.69678222279543
407,505.79796709700736
408,505.88186320056593
409,505.9453339355364
410,505.98671227282773
411,506.0056569566155
412,506.00291578521427
413,505.9800444852132
414,505.93911751436735
415,505.88246922243945
416,505.8125170303173
417,505.7317133102901
418,505.64263154581363
419,505.548131619025
420,505.4515036716146
421,505.35648635368494
422,505.2670951731772
423,505.1872604948854
424,505.1203401732195
425,505.0686190460366
426,505.03291530107475
427,505.01237690445976
428,505.0044958056326
429,505.0053276169824
430,505.00989021741725
431,505.0127105191131
432,505.0084744903873
433,504.9927062367478
434,504.9623702988697
435,504.9162802098409
436,504.85522197790743
437,504.7817571849887
438,504.69973627619913
439,504.6136145877495
440,504.52771116304905
441,504.4455622328677
442,504.36948101687324
443,504.3003596665242
444,504.2376817187073
445,504.17968808268296
446,504.12365263833965
447,504.06624400510407
448,504.0039504386886
449,503.9335237134755
450,503.8523783818597
451,503.75888795913517
452,503.6525493991622
453,503.53402078842277
454,503.4050529422484
455,503.26833204347423
456,503.1272471686956
457,502.98560733953764
458,502.84734619241266
459,502.71624977982253
460,502.5957253818309
461,502.4886165806516
462,502.39707506703695
463,502.3225075566754
464,502.26560249447044
465,502.22641067714795
466,502.20443675087745
467,502.1987065379452
468,502.2077870125318
469,502.2297367051474
470,502.26197480476304
471,502.30109763151546
472,502.3427205102265
473,502.38144282121834
474,502.4110131354165
475,502.42472521567146
476,502.41602002779575
477,502.37921429353503
478,502.3102362990393
479,502.20723894614645
480,502.07098143843933
481,501.9049148754044
482,501.71496033076033
483,501.5090174111336
484,501.2962730496566
485,501.0863896352352
486,500.88864981090825
487,500.7111382541673
488,500.5600506091112
489,500.439221690355
490,500.34994274303324
491,500.2910884681731
492,500.259512191685
493,500.2506155138481
494,500.2589807123426
495,500.2789766795527
496,500.3052901374736
497,500.33336007899777
498,500.35969550271494
499,500.38205392627805
500,500.39946870239254
501,500.4121366507082
502,500.42120390311504
503,500.4285013591073
504,500.4362688262347
505,500.44687787642357
506,500.46254414504483
507,500.48502729587835
508,500.51534699445807
509,500.55357512959864
510,500.5987737074446
511,500.6491266607573
512,500.7022734142978
513,500.7558018826959
514,500.8078032910963
515,500.8573484414668
516,500.9047440722182
517,500.95148218901653
518,500.9998847641013
519,501.0525335783183
520,501.111631904397
521,501.17845677942125
522,501.25302169419615
523,501.3339933515611
524,501.4188329944047
525,501.5040985176986
526,501.5858451101336
527,501.66007221522926
528,501.7231696523958
529,501.7723211089109
530,501.80583434429536
531,501.8233830477979
532,501.82615725058594
533,501.8169150458324
534,501.7999086927624
535,501.7806454008856
536,501.7654575974009
537,501.7608951699296
538,501.77299476534625
539,501.8065167803946
540,501.8642654989761
541,501.9466149845871
542,502.051342875045
543,502.1738261040402
544,502.307585984599
545,502.4450957262484
546,502.57870247722656
547,502.70149860203327
548,502.8080125225605
549,502.8946531681654
550,502.95989827203795
551,503.004246347393
552,503.02996179809236
553,503.04065500433927
554,503.0407680700426
555,503.03506555933745
556,503.02822357000815
557,503.0245592887068
558,503.0278788524021
559,503.04138646723277
560,503.06760268216027
561,503.10826294156175
562,503.16419002763763
563,503.2351553474199
564,503.31976850584573
565,503.41545717010655
566,503.51860263212785
567,503.62486378871415
568,503.7296615490993
569,503.8287407073361
570,503.91870497477663
571,503.99743453347554
572,504.0643274657413
573,504.12033960468
574,504.1678258057235
575,504.2102121168267
576,504.2515505263456
577,504.2960180671554
578,504.34742239196476
579,504.4087772992026
580,504.4820124594184
581,504.56786527449435
582,504.66596020784186
583,504.77502597630377
584,504.8931621389298
585,505.01806525708656
586,505.1471597161198
587,505.2776272237562
588,505.4063670581995
589,505.52993628983825
590,505.6445200064607
591,505.74597306238275
592,505.8299584697655
593,505.8921839205857
594,505.92871498241664
595,505.93633210396996
596,505.9129018220304
597,505.85774110470095
598,505.7719502117441
599,505.6586656018512
600,505.5231571272668
601,505.37269285936577
602,505.2161329603107
603,505.0632747797988
604,504.9240247754934
605,504.8074986538419
606,504.7211521053021
607,504.6700358770897
608,504.65625814188667
609,504.67872402053143
610,504.7332061528545
611,504.81277136427127
612,504.90853084491687
613,505.0106032192461
614,505.10912094392506
615,505.19510602258845
616,505.2610932462049
617,505.30146218200053
618,505.31251884358977
619,505.2924175946222
620,505.24102222164856
621,505.15977832001363
622,505.0516259245141
623,504.92094238147087
624,504.7734804368806
625,504.6162525010738
626,504.45730658524604
627,504.30534830566944
628,504.1691932536512
629,504.05708158284693
630,503.97593451798303
631,503.9306581932536
632,503.9235960027743
633,503.95420950112543
634,504.0190437203436
635,504.1120038266698
636,504.2249300635137
637,504.34841216621936
638,504.47274413926425
639,504.5888924360834
640,504.6893423025717
641,504.76870758596175
642,504.8240395146755
643,504.8548359231
644,504.8628106840064
645,504.85151322825146
646,504.8258838586718
647,504.7917994788782
648,504.7556221675708
649,504.7237337302575
650,504.70204422150914
651,504.695498226001
652,504.70763787144745
653,504.7402846910279
654,504.7933760817614
655,504.8649663446601
656,504.9513927384255
657,505.0476001185969
658,505.14760215337157
659,505.24504066037906
660,505.33379339903576
661,505.4085698799691
662,505.4654255147697
663,505.5021259547889
664,505.5183118644648
665,505.51545063258544
666,505.49660525198254
667,505.4660761747544
668,505.42896376283903
669,505.39067625733855
670,505.3564065329524
671,505.33063017209156
672,505.31670625293617
673,505.31665133139296
674,505.33110829286164
675,505.3594845789295
676,505.4002101708751
677,505.451051180187
678,505.50940410121945
679,505.5725061482641
680,505.63753639570484
681,505.7016329137377
682,505.76188782069664
683,505.81538921259875
684,505.85935312171745
685,505.89134135548534
686,505.90951641712763
687,505.91286853776415
688,505.9013707633488
689,505.8760560941361
690,505.8390327802372
691,505.79344602738087
692,505.743374497789
693,505.69364601844734
694,505.649573087559
695,505.6166204419986
696,505.60000785019344
697,505.6042452020465
698,505.6326290017795
699,505.68678901294885
700,505.7664038398263
701,505.86916792072583
702,505.9910188820579
703,506.12657645968454
704,506.26971625287257
705,506.41418638580075
706,506.5541718053624
707,506.68473704291637
708,506.80213048805024
709,506.90397397159796
710,506.98935794028887
711,507.0588276338343
712,507.1142244297632
713,507.15836763874364
714,507.1946140732384
715,507.2263800101514
716,507.25672280873295
717,507.2880508904767
718,507.32197857446806
719,507.3593005026777
720,507.4000568801899
721,507.44368327310656
722,507.48924208038665
723,507.5356997239036
724,507.5821832540641
725,507.62816322275387
726,507.6735518772754
727,507.7187306818525
728,507.7645133333518
729,507.8120391886764
730,507.8626059053948
731,507.91747801740956
732,507.9777176645567
733,508.04406423650767
734,508.11686052396175
735,508.19600590237934
736,508.28091834162626
737,508.3705018878883
738,508.4631360639489
739,508.5567149994838
740,508.6487540345685
741,508.7365549123513
742,508.8173996700971
743,508.88873862253035
744,508.94834097913014
745,508.99438442498865
746,509.02547725148537
747,509.0406283295767
748,509.039195515132
749,509.020847170144
750,508.98556170233763
751,508.9336669405443
752,508.8658977829567
753,508.7834422318299
754,508.6879518214001
755,508.581501720843
756,508.4664944614646
757,508.3455119302706
758,508.2211351129863
759,508.09576708408497
760,507.9715006517049
761,507.8500588971813
762,507.7328127766693
763,507.6208606443044
764,507.51514461397295
765,507.41657530374715
766,507.3261390959317
767,507.24496921089093
768,507.1743709619345
769,507.11580144401677
770,507.07081012746517
771,507.04094138974074
772,507.0275851294343
773,507.0317573441327
774,507.05381921630925
775,507.09319222952564
776,507.1481608092634
777,507.215845449866
778,507.2923862264005
779,507.37332362608004
780,507.4541162610819
781,507.5306995468077
782,507.59997225599824
783,507.66010532495125
784,507.7106014241897
785,507.7520906380337
786,507.78591399103044
787,507.81359948892174
788,507.8363539124098
789,507.85467436897767
790,507.86814257869645
791,507.8754265181848
792,507.8744915635388
793,507.86300426778763
794,507.8388754535393
795,507.80083977717265
796,507.74893931556784
797,507.68479856475864
798,507.61164336834827
799,507.5340889329141
800,507.45776200587795
801,507.3888183991657
802,507.3333895589935
803,507.29697425664835
804,507.2838065211312
805,507.2962686510312
806,507.3344442839754
807,507.39590038930754
808,507.47575572419623
809,507.5670506322033
810,507.6613865241032
811,507.7497611491796
812,507.82349862035073
813,507.87516306363216
814,507.89934360055895
815,507.89320542740813
816,507.85672841612813
817,507.7926032101065
818,507.70580992381844
819,507.6029527899009
820,507.49146230284197
821,507.3787973679798
822,507.27177035902116
823,507.17607727643446
824,507.09606146859875
825,507.03469056270785
826,506.99368680514607
827,506.9737231240909
828,506.97459353733666
829,506.99529872526523
830,507.0340458163739
831,507.08821469344485
832,507.15436332709567
833,507.22832907793685
834,507.3054484499234
835,507.3808780176542
836,507.44996322510025
837,507.5085849679014
838,507.5534256245694
839,507.58212552089344
840,507.59333055351567
841,507.5866534369728
842,507.5625830139605
843,507.5223796107956
844,507.46799013081073
845,507.4020024516215
846,507.3276366954553
847,507.24874772035315
848,507.16979401926534
849,507.09571937247784
850,507.031703579233
851,506.9827699027364
852,506.953281830205
853,506.946406354731
854,506.96364869943034
855,507.00456006857786
856,507.06668362185775
857,507.1457496008096
858,507.23607973278905
859,507.33112599436583
860,507.4240527644099
861,507.508277392516
862,507.5779133137352
863,507.62810176030257
864,507.6552536611663
865,507.65723728317266
866,507.6335353746252
867,507.5853650273696
868,507.51571996362986
869,507.42927557255166
870,507.332101233527
871,507.23115336498444
872,507.1335751481448
873,507.0458971681729
874,506.97328929954807
875,506.91902093824694
876,506.8842324553246
877,506.86803304896716
878,506.8678638758134
879,506.8800302287358
880,506.90031061830206
881,506.9245682261254
882,506.94929732440255
883,506.9720361919439
884,506.9915933755656
885,507.0080759861653
886,507.0227529800059
887,507.03780395161897
888,507.05599361080965
889,507.080293210652
890,507.1134604551184
891,507.1575989738336
892,507.2137483582705
893,507.2815895814627
894,507.359357088762
895,507.444007162521
896,507.5316153373288
