frame_number,force
0,510.96411000001825
1,510.99858655728514
2,511.03824254540626
3,511.0873957092072
4,511.1487753257724
5,511.22304611033763
6,511.30866580444996
7,511.40211562239494
8,511.498481806736
9,511.5922898497974
10,511.67842721928207
11,511.7529693736921
12,511.8137541037383
13,511.8606110401673
14,511.89522755120976
15,511.9207068695652
16,511.9409303470684
17,511.959855954119
18,511.9808737572279
19,512.006314917717
20,512.0371834011969
21,512.0731472149167
22,512.1127886391927
23,512.1540712000295
24,512.1949318887999
25,512.2338605137681
26,512.270315920468
27,512.3048738329005
28,512.3390872746946
29,512.3751275978877
30,512.4153274439449
31,512.4617507228894
32,512.5158787326308
33,512.5784555754639
34,512.6494985131033
35,512.7284431340357
36,512.814357487566
37,512.9061441407473
38,513.0026680270712
39,513.1027868581956
40,513.205298607753
41,513.3088484324616
42,513.4118505169047
43,513.5124720772
44,513.608701759664
45,513.698500217239
46,513.7800143698835
47,513.851818566938
48,513.9131222255822
49,513.9638738576232
50,514.004716543886
51,514.0368044948699
52,514.0615426011663
53,514.0803287649029
54,514.0943586305616
55,514.1045206041456
56,514.1113893357896
57,514.1153118054137
58,514.1165558345417
59,514.1154634867064
60,514.1125443195693
61,514.10846748888
62,514.1039579987262
63,514.0996441850475
64,514.0959144823473
65,514.0928214960676
66,514.0900440373168
67,514.0869023517348
68,514.0824187183969
69,514.075415178286
70,514.0646383027375
71,514.0489030043051
72,514.027253579239
73,513.9991393066481
74,513.964588823841
75,513.9243516954862
76,513.8799664084629
77,513.8337117088246
78,513.7884058416959
79,513.7470474162203
80,513.7123430505419
81,513.6862148616196
82,513.6693944215749
83,513.6611877899296
84,513.6594629164414
85,513.6608799665539
86,513.6613492389323
87,513.6566543086208
88,513.643130256981
89,513.6182587265838
90,513.5810534666504
91,513.5321673884114
92,513.4737311578355
93,513.4089935042616
94,513.3418500027689
95,513.2763300778578
96,513.2160938467513
97,513.1639909263749
98,513.121738841944
99,513.0897659866366
100,513.0672349047013
101,513.0522379720314
102,513.0421474005038
103,513.034086393856
104,513.0254550920497
105,513.0144148955247
106,513.0002359991707
107,512.9834400295215
108,512.9657021133518
109,512.9495175696811
110,512.9376962374059
111,512.9328010924629
112,512.9366647024174
113,512.9500880936544
114,512.9727673091924
115,513.0034308731563
116,513.0401321462138
117,513.080630263262
118,513.1227987434289
119,513.16500701143
120,513.2064215312408
121,513.2471762000147
122,513.2883787798849
123,513.3319533027754
124,513.3803489902208
125,513.4361572439557
126,513.5016789959038
127,513.5784947136098
128,513.667105845099
129,513.7667190631955
130,513.8752239708039
131,513.9893785682744
132,514.1051759118343
133,514.218328558756
134,514.3247833676252
135,514.4211774256119
136,514.5051685472778
137,514.5756099404534
138,514.632571998376
139,514.6772339748231
140,514.7116733138818
141,514.7385798058862
142,514.7609250220027
143,514.7816215232527
144,514.8032039934826
145,514.8275587613597
146,514.855725228836
147,514.8877914833117
148,514.9229029021487
149,514.95939267714
150,514.9950219196501
151,515.0272867215518
152,515.053724553642
153,515.0721500907707
154,515.0807802944133
155,515.0782608296088
156,515.0636504542325
157,515.0364293958813
158,514.9965703095588
159,514.9446652060408
160,514.8820647567518
161,514.8109780869876
162,514.7344984181941
163,514.6565387227002
164,514.5816657190513
165,514.5148148332406
166,514.4608686573873
167,514.4241023451165
168,514.4075443821505
169,514.4123507776679
170,514.4373145053496
171,514.4786168869352
172,514.5298914864863
173,514.5826398626925
174,514.6270086963021
175,514.652880629921
176,514.6511422323869
177,514.6149154982041
178,514.5405250359182
179,514.428029553447
180,514.2812417289322
181,514.1072605803104
182,513.915623863976
183,513.7172405483967
184,513.5232778142085
185,513.344155606278
186,513.1887501747661
187,513.063839947904
188,512.9737716098076
189,512.9203047296068
190,512.902604689776
191,512.9173768428591
192,512.9591559739642
193,513.0207733080823
194,513.0940075638442
195,513.1703834772974
196,513.2420231731857
197,513.3024118423995
198,513.3469392865899
199,513.3731296079483
200,513.3805511966385
201,513.3704766751638
202,513.3454110447724
203,513.3086083767859
204,513.2636532938797
205,513.2141205861473
206,513.1632844946146
207,513.1138499974517
208,513.067713038236
209,513.0257974051319
210,512.9880306667606
211,512.9534901620087
212,512.9206857449313
213,512.8878933479118
214,512.8534493000254
215,512.8159540409133
216,512.7743808538341
217,512.7281147253664
218,512.6769530771695
219,512.6210890760248
220,512.5610811594577
221,512.4978043390781
222,512.432386546926
223,512.3661480388382
224,512.3005669538752
225,512.2372804951632
226,512.1781067703687
227,512.1250558837904
228,512.080302768732
229,512.0461120826279
230,512.0247205738408
231,512.0181868365989
232,512.0282151845151
233,512.0559541145703
234,512.1017684182996
235,512.1649978248615
236,512.2437451404215
237,512.3347674531665
238,512.4335472597699
239,512.5345768660787
240,512.6318140272916
241,512.7192051099448
242,512.7911628650212
243,512.8429302788724
244,512.8708251855415
245,512.8723995044808
246,512.8465432715846
247,512.7935331706253
248,512.7149990829097
249,512.6137797350598
250,512.4936615238884
251,512.3590332971994
252,512.214526173499
253,512.0647204534741
254,511.9139810997497
255,511.76643692479246
256,511.6260639241295
257,511.4967896445699
258,511.38252430988706
259,511.2870561775623
260,511.21380693452954
261,511.1654939946375
262,511.14376742672306
263,511.1488848929349
264,511.1794792481374
265,511.2324692490228
266,511.3031541775475
267,511.38550868670995
268,511.4726575187854
269,511.5574713397842
270,511.6331995059986
271,511.69405500691175
272,511.73568798394575
273,511.75551013349366
274,511.75284762275356
275,511.7289051722385
276,511.6865337088509
277,511.6298191457863
278,511.5635426382975
279,511.492589290304
280,511.4213986017475
281,511.353551944879
282,511.2915656660991
283,511.23690024115706
284,511.1901359007557
285,511.15123813235573
286,511.11984436347876
287,511.09552417388494
288,511.0779858820379
289,511.0672185085035
290,511.063561122551
291,511.0676779894068
292,511.08040978560155
293,511.10249652570684
294,511.1342207671021
295,511.1750657183272
296,511.22349862558326
297,511.2769694399857
298,511.33215481833776
299,511.38538902150964
300,511.4331474328109
301,511.47243228410997
302,511.5009648110025
303,511.5171772819126
304,511.5200700829296
305,511.50902840496826
306,511.48369174417184
307,511.4439530385167
308,511.39012831333986
309,511.32327681915456
310,511.2455832711429
311,511.1606689091302
312,511.0736987002703
313,510.99119792988995
314,510.92056175819874
315,510.8693114612942
316,510.8442068092464
317,510.850359233922
318,510.8905006844168
319,510.96454338574955
320,511.0695130511765
321,511.1998605536561
322,511.3480790229318
323,511.5055025220294
324,511.6631493870299
325,511.81248982357897
326,511.9460545488163
327,512.0578538826923
328,512.1436277827196
329,512.2009707573493
330,512.2293624627767
331,512.2301026527556
332,512.206123775124
333,512.1616552395352
334,512.1017485571202
335,512.0317286924011
336,511.95667890365604
337,511.8810651375375
338,511.8085609836437
339,511.74206829727694
340,511.6838757030089
341,511.63587998908486
342,511.5998050906913
343,511.5773665238549
344,511.57033935291486
345,511.5805043684636
346,511.60947482506083
347,511.6584364038607
348,511.72785101468173
349,511.81717445081784
350,511.9246285829789
351,512.0470634648481
352,512.1799444805109
353,512.3174960668113
354,512.4530175630075
355,512.5793557592135
356,512.689483588218
357,512.7771143417791
358,512.8372832870074
359,512.8668424570452
360,512.8648267169414
361,512.8326584700563
362,512.7741681103236
363,512.6954150976262
364,512.6042948749139
365,512.5099179033301
366,512.421775660817
367,512.3487793143357
368,512.2983360730191
369,512.2756518745218
370,512.2833879346738
371,512.321690304274
372,512.3885201158968
373,512.4801683035868
374,512.5918303649354
375,512.7181304779048
376,512.8535215913421
377,512.9925422541622
378,513.1299608162934
379,513.2608641019141
380,513.3807406429503
381,513.4855779331403
382,513.5719704091567
383,513.6372351049375
384,513.6795336521667
385,513.6979868852893
386,513.6927588747246
387,513.6650936264043
388,513.6172958648052
389,513.5526481930624
390,513.4752614952089
391,513.3898646456332
392,513.3015380982177
393,513.2153869738689
394,513.1361589445661
395,513.0678488646907
396,513.0133679638478
397,512.9743562378894
398,512.9511767496138
399,512.9430747808683
400,512.9484440003993
401,512.965132681623
402,512.9907421440744
403,513.0228946178553
404,513.059454371753
405,513.0986743416058
406,513.1392335506151
407,513.1801450763228
408,513.2205476487023
409,513.2594353679688
410,513.2954155180779
411,513.3265929877845
412,513.3506455386961
413,513.3650878058166
414,513.3676578417734
415,513.3567288681326
416,513.3316564616592
417,513.2930013339083
418,513.2426013255899
419,513.1834944608423
420,513.119713272913
421,513.0559750675751
422,512.9972897103107
423,512.9485129739481
424,512.9138961940477
425,512.8967030449635
426,512.8989549717064
427,512.9213280160469
428,512.9631851631227
429,513.0227117219355
430,513.0971171075049
431,513.1828614346244
432,513.2758684791244
433,513.3717061059643
434,513.4657393241096
435,513.553280196347
436,513.6297736500231
437,513.6910572582743
438,513.7337015317006
439,513.7553883140392
440,513.7552504207744
441,513.7340929414198
442,513.6944399850822
443,513.6403856463608
444,513.5772621690111
445,513.5111632258197
446,513.4483731205441
447,513.3947587892822
448,513.3551893353384
449,513.333056114241
450,513.3299583912183
451,513.3455847609795
452,513.3777766402892
453,513.4227356862833
454,513.4753402831437
455,513.5295546904333
456,513.5789290687783
457,513.6171837798854
458,513.6388433991206
459,513.6398470744888
460,513.6180370718577
461,513.5734406380656
462,513.508310735722
463,513.4269442605181
464,513.3353149816464
465,513.2405429555153
466,513.1502110186742
467,513.0715675587174
468,513.0107133682675
469,512.9719091656299
470,512.9571231714123
471,512.9658796170178
472,512.9954093450425
473,513.0410647906236
474,513.0969392150822
475,513.1566113948966
476,513.2139179096027
477,513.2636437965799
478,513.3020299503855
479,513.327027274279
480,513.3382787705086
481,513.3368672362794
482,513.3249116350265
483,513.3051209226502
484,513.2804118661802
485,513.2536555655587
486,513.2275476786555
487,513.2045439406021
488,513.1867974898784
489,513.1760638884577
490,513.1735697795909
491,513.1798554227516
492,513.1946045467512
493,513.2164795320007
494,513.2429964542538
495,513.2705024043244
496,513.2943337442441
497,513.3092038372062
498,513.3097911959317
499,513.2914252685193
500,513.2507440662946
501,513.1862156013294
502,513.0984399117805
503,512.9901747166953
504,512.8660681267551
505,512.7321356830646
506,512.5950742460077
507,512.4615480380859
508,512.3375914881155
509,512.2282309875754
510,512.1373425717018
511,512.0676752438261
512,512.0209259642064
513,511.99776990140253
514,511.9978066813705
515,512.0194475791897
516,512.0598227742367
517,512.1148171881131
518,512.1793281962484
519,512.2477766727718
520,512.3148184867146
521,512.3761285589626
522,512.4290891618824
523,512.4732222075452
524,512.5102605213425
525,512.5438361126755
526,512.5788428149685
527,512.6205838237142
528,512.6738423398301
529,512.7420242625701
530,512.8265110142733
531,512.9263191652409
532,513.0380997977533
533,513.156447740847
534,513.2744479563811
535,513.3843691535016
536,513.4784184094457
537,513.5494842732367
538,513.5918085032106
539,513.6015345960443
540,513.5770879653649
541,513.5193517640116
542,513.4316174433012
543,513.3193153308952
544,513.1895666643126
545,513.0506277646505
546,512.9112969187942
547,512.7803253097601
548,512.6658443020197
549,512.5748161941119
550,512.512529371209
551,512.4821796354479
552,512.4846001546362
553,512.5182060829563
554,512.5791909115571
555,512.6619615746745
556,512.7597569985575
557,512.8653770559416
558,512.9719483081386
559,513.0736460693842
560,513.1662698987973
561,513.2475581354233
562,513.3171598692079
563,513.3762566239091
564,513.426909992178
565,513.4712814724928
566,513.5109118029773
567,513.5462397553384
568,513.5764715470118
569,513.599798378673
570,513.6138530409037
571,513.6162533693551
572,513.6051094836255
573,513.57942688152
574,513.5393733500854
575,513.486393386988
576,513.4231725613122
577,513.3534813148055
578,513.2819407845342
579,513.2137355511537
580,513.1542702363387
581,513.1087639509237
582,513.0818029957227
583,513.0768994238083
584,513.0961071612642
585,513.1397323430746
586,513.2061619962811
587,513.2918393216214
588,513.391425162103
589,513.4981788040077
590,513.604554035563
591,513.7029547535963
592,513.7865574722755
593,513.8500961803632
594,513.8905046068026
595,513.9073118399098
596,513.9027007952202
597,513.8811841567829
598,513.8489320975673
599,513.8128761952814
600,513.7797709572849
601,513.7553871816182
602,513.7439504862936
603,513.7478624719968
604,513.7676819721702
605,513.8023099273321
606,513.8493124265519
607,513.9053257177294
608,513.9665025165842
609,514.0289665202648
610,514.0892345414935
611,514.1445524520097
612,514.1930911718955
613,514.2339694224714
614,514.2671003527477
615,514.2928902856636
616,514.311850998892
617,514.3242186659002
618,514.3296853514261
619,514.3273239454684
620,514.3157249197906
621,514.2932926993186
622,514.258609694281
623,514.2107790678353
624,514.1496841573298
625,514.0761333145839
626,513.9918851147175
627,513.8995637726151
628,513.8024768798706
629,513.7043470226117
630,513.6089760220241
631,513.5198750827533
632,513.4399068776611
633,513.370991751456
634,513.31393214382
635,513.2683991750405
636,513.2330876535351
637,513.2059913733104
638,513.1847172290636
639,513.1667641588738
640,513.1497248062035
641,513.131402065031
642,513.1098651240357
643,513.0834981645165
644,513.0511024049706
645,513.0120818126951
646,512.9666809890662
647,512.9161841330358
648,512.8629676996358
649,512.8103404578186
650,512.7621785515126
651,512.7224319638482
652,512.6946159209139
653,512.681397973281
654,512.6843551468734
655,512.7039193898178
656,512.7394749936402
657,512.7895412810637
658,512.8519704165963
659,512.9241017729017
660,513.0028419274103
661,513.0846882589587
662,513.1657611881313
663,513.2419172490743
664,513.3089738315294
665,513.3630158475526
666,513.4007132068612
667,513.419575442311
668,513.4180970100984
669,513.3957825651098
670,513.3530749520224
671,513.2912355998382
672,513.2122376519677
673,513.1187144846865
674,513.0139596647496
675,512.901921753594
676,512.7871163839027
677,512.6744079503732
678,512.5686738321585
679,512.4744132421259
680,512.3953751607348
681,512.3342640970407
682,512.2925592031967
683,512.2704619048151
684,512.2669735573847
685,512.2800934895849
686,512.3071073496349
687,512.344910626771
688,512.3903033173625
689,512.4402029847944
690,512.4917439253866
691,512.5422596319912
692,512.5891852629749
693,512.6299485119227
694,512.6619205179999
695,512.6824752104042
696,512.6891734931205
697,512.6800577587659
698,512.6540108171225
699,512.6111037269421
700,512.5528418418329
701,512.4822317523586
702,512.403635621807
703,512.3224349900665
704,512.2445639984256
705,512.1759767565735
706,512.1220967080509
707,512.0872820338022
708,512.0743447672118
709,512.08417666842
710,512.1155452377044
711,512.1651149815901
712,512.2277200034214
713,512.296874280126
714,512.3654689609755
715,512.4265752838597
716,512.4742440502914
717,512.5041737404906
718,512.5141256192256
719,512.5040084164226
720,512.4756326539956
721,512.4322158354594
722,512.3777659377845
723,512.316471068423
724,512.2521980420855
725,512.1881651299426
726,512.1268031302768
727,512.0697704117833
728,512.0180708426765
729,511.97223968768884
730,511.93257866082064
731,511.8994098912494
732,511.8732898941053
733,511.85511390117654
734,511.84606789433843
735,511.84743758111676
736,511.8603331348783
737,511.88541432630865
738,511.92269466946397
739,511.9714733231827
740,512.030404720053
741,512.0976772872422
742,512.171242702846
743,512.2490305861648
744,512.3291058651643
745,512.409764343816
746,512.4895962348296
747,512.5675577104208
748,512.6430645517854
749,512.7160743406874
750,512.7870942869438
751,512.8570691167414
752,512.9271547276103
753,512.9984292107177
754,513.0716067873602
755,513.1468099197016
756,513.2234459986815
757,513.300232993432
758,513.3753979094521
759,513.4470161286868
760,513.5133931926563
761,513.5733579339486
762,513.6263606845721
763,513.6723396405573
764,513.7113980888748
765,513.7433944079206
766,513.7675702547107
767,513.7823288411647
768,513.7852324546169
769,513.7732304571568
770,513.743075980575
771,513.6918587116263
772,513.6175727736745
773,513.5196388633842
774,513.3992987620904
775,513.2598031633246
776,513.106334881651
777,512.9456576400212
778,512.7855451337565
779,512.6340973707545
780,512.499065812956
781,512.3872844579098
782,512.3042597027644
783,512.2539259408233
784,512.2385379747678
785,512.2586556002715
786,512.3131845875438
787,512.3994643130395
788,512.5134184216776
789,512.6497935333305
790,512.8024958408687
791,512.9650046687391
792,513.1308110393737
793,513.2938143518674
794,513.4486203203801
795,513.5907117830598
796,513.7164975550482
797,513.8232736255457
798,513.9091451778711
799,513.9729498786288
800,514.0142017476699
801,514.0330552998926
802,514.0302766062454
803,514.0072069033022
804,513.96572093458
805,513.9082010564892
806,513.8375415026225
807,513.7571624104008
808,513.6709824445277
809,513.583302608413
810,513.4985845807859
811,513.4211343093722
812,513.3547171544466
813,513.3021512231736
814,513.2649545925075
815,513.24313863456
816,513.2352231427495
817,513.2384987201197
818,513.2494946427831
819,513.2645545769777
820,513.2804042313234
821,513.2946125086792
822,513.3058717841288
823,513.3140375620991
824,513.3198940231232
825,513.3246734767577
826,513.3294384941313
827,513.3344934694563
828,513.3390000659931
829,513.3409237658087
830,513.337345181776
831,513.3250577215979
832,513.3012877849578
833,513.2643499188599
834,513.2140884734429
835,513.1520305574661
836,513.0812485385077
837,513.0059873763846
838,512.931150058721
839,512.8617468147819
840,512.8023934010082
841,512.7569011408975
842,512.7279632293631
843,512.716929750542
844,512.7236799158255
845,512.7466243762514
846,512.7828745972905
847,512.82859050485
848,512.8794785582904
849,512.9313775581913
850,512.9808419278122
851,513.0256141867246
852,513.0648837684017
853,513.0992751827561
854,513.1305888357857
855,513.1613908115702
856,513.1945688451738
857,513.2329369507501
858,513.2789153767177
859,513.3342731604771
860,513.3999148669503
861,513.4757139054092
862,513.5604177473962
863,513.6516563111013
864,513.7460768450622
865,513.8396172698274
866,513.9279134965019
867,514.0068100845574
868,514.0729115376527
869,514.1240816117994
870,514.1597827468694
871,514.1811636027901
872,514.1908542424695
873,514.1924989098466
874,514.1901210850141
875,514.1874584198752
876,514.1874172806405
877,514.1917701211539
878,514.201152960643
879,514.2153301677374
880,514.233611106901
881,514.2552658241722
882,514.2798135350027
883,514.3071225813733
884,514.3373164747622
885,514.3705150887606
886,514.4064784934175
887,514.4442705694246
888,514.4820852968613
889,514.5173429228053
890,514.5470705525332
891,514.568480086799
892,514.5795976703398
893,514.5797960050387
894,514.5701119948059
895,514.5532780484921
896,514.5334497597869
897,514.5156666172068
898,514.5051286861626
899,514.5064125764954
900,514.5227760915968
901,514.555688542561
902,514.6046633969644
903,514.6673870303391
904,514.7400710125344
905,514.8179276811782
906,514.8956773200181
907,514.9680246717251
908,515.0300747570338
909,515.0776775452282
910,515.1076916065948
911,515.1181471344476
912,515.1082865384367
913,515.0784766128786
914,515.030013244278
