frame_number,force
0,777.7005000098989
1,777.8169487956949
2,777.9333309357442
3,778.0495795984633
4,778.165627587727
5,778.2814071781827
6,778.3968499704621
7,778.5118867706425
8,778.6264474969327
9,778.7404611157209
10,778.8538556083046
11,778.9665579681689
12,779.078494226902
13,779.1895895057202
14,779.2997680897485
15,779.4089535233504
16,779.5170687260096
17,779.624036128558
18,779.7297778287225
19,779.8342157637004
20,779.9372718966564
21,780.038868413839
22,780.1389279291045
23,780.2373736927664
24,780.3341298018613
25,780.4291214092619
26,780.5222749296112
27,780.613518240625
28,780.7027808785306
29,780.7899942259512
30,780.8750916894937
31,780.9580088632996
32,781.0386836748482
33,781.1170565108762
34,781.1930703240304
35,781.2666707237178
36,781.337806056563
37,781.4064274825154
38,781.4724890519763
39,781.5359477878229
40,781.5967637747718
41,781.6549002578403
42,781.7103237516158
43,781.763004161918
44,781.8129149209232
45,781.8600331363215
46,781.9043397549871
47,781.9458197417039
48,781.9844622729428
49,782.0202609439403
50,782.0532139847179
51,782.0833244784195
52,782.110600574433
53,782.1350556891358
54,782.156708687897
55,782.1755840424227
56,782.1917119577203
57,782.2051284636277
58,782.2158754674961
59,782.2240007668299
60,782.2295580225717
61,782.2326066947965
62,782.2332119433783
63,782.2314444974938
64,782.2273804995915
65,782.2211013309474
66,782.2126934265661
67,782.2022480867734
68,782.1898612913118
69,782.1756335192526
70,782.1596695750001
71,782.1420784175212
72,782.1229729870314
73,782.1024700214525
74,782.0806898547145
75,782.0577561900743
76,782.0337958430168
77,782.008938449172
78,781.9833161331587
79,781.9570631351135
80,781.9303153933676
81,781.9032100839513
82,781.8758851194913
83,781.8484786112937
84,781.8211282995209
85,781.7939709580943
86,781.7671417832407
87,781.7407737764685
88,781.7149971332791
89,781.6899386480335
90,781.6657211437
91,781.6424629333418
92,781.6202773186188
93,781.5992721297389
94,781.5795493111909
95,781.561204557411
96,781.5443270012203
97,781.5289989554351
98,781.5152957057406
99,781.5032853519685
100,781.4930286952621
101,781.4845791692916
102,781.4779828140562
103,781.4732782908511
104,781.4704969367785
105,781.4696628568314
106,781.4707930514044
107,781.4738975771879
108,781.4789797393628
109,781.4860363124445
110,781.4950577861048
111,781.5060286310775
112,781.5189275790862
113,781.5337279102756
114,781.5503977427454
115,781.5689003216108
116,781.5891943083172
117,781.6112340728274
118,781.634969990753
119,781.6603487450908
120,781.6873136293973
121,781.715804847126
122,781.7457598008085
123,781.7771133648413
124,781.8097981368758
125,781.8437446649134
126,781.8788816494146
127,781.9151361212214
128,781.9524335965802
129,781.9906982103612
130,782.0298528284058
131,782.0698191403252
132,782.1105177351212
133,782.1518681632729
134,782.1937889898115
135,782.236197843116
136,782.279011464046
137,782.3221457599169
138,782.3655158676552
139,782.4090362301934
140,782.4526206899444
141,782.4961826032079
142,782.5396349794415
143,782.5828906490659
144,782.6258624624827
145,782.6684635212898
146,782.7106074404962
147,782.7522086382252
148,782.7931826474978
149,782.8334464436717
150,782.8729187808334
151,782.9115205302179
152,782.9491750133059
153,782.985808322002
154,783.0213496184635
155,783.0557314076702
156,783.0888897766529
157,783.1207645954694
158,783.1512996765524
159,783.1804428909094
160,783.2081462416222
161,783.2343658968185
162,783.2590621856551
163,783.2821995620765
164,783.3037465423332
165,783.3236756232141
166,783.3419631881751
167,783.3585894079465
168,783.3735381412665
169,783.3867968407775
170,783.3983564688376
171,783.4082114274302
172,783.4163595051243
173,783.4228018426654
174,783.4275429180916
175,783.430590552449
176,783.4319559372458
177,783.4316536835793
178,783.4297018901526
179,783.4261222242429
180,783.4209400074055
181,783.4141842968511
182,783.4058879537293
183,783.3960876904342
184,783.3848240901713
185,783.3721415933934
186,783.3580884475206
187,783.3427166185065
188,783.3260816648565
189,783.3082425763504
190,783.2892615810515
191,783.2692039249217
192,783.2481376279133
193,783.2261332187123
194,783.2032634485201
195,783.17960298373
196,783.1552280781348
197,783.1302162261337
198,783.1046457985791
199,783.078595663049
200,783.0521447911879
201,783.0253718568509
202,782.9983548290227
203,782.9711705626635
204,782.943894389706
205,782.9165997124014
206,782.8893576025989
207,782.8622364128701
208,782.8353014075601
209,782.8086144230165
210,782.7822335665455
211,782.7562129634833
212,782.7306025608327
213,782.7054479935621
214,782.6807905159559
215,782.6566669961899
216,782.6331099684293
217,782.610147733808
218,782.5878045001506
219,782.5661005507571
220,782.5450524348557
221,782.5246731752401
222,782.5049724907612
223,782.4859570322462
224,782.4676306304071
225,782.4499945535968
226,782.433047771788
227,782.4167872211339
228,782.4012080616601
229,782.3863039198438
230,782.3720671083199
231,782.3584888164113
232,782.3455592670433
233,782.3332678373442
234,782.3216031414426
235,782.3105530744674
236,782.3001048168954
237,782.2902447987725
238,782.2809586241843
239,782.2722309574517
240,782.2640453737346
241,782.2563841780612
242,782.2492281981513
243,782.2425565574488
244,782.2363464352755
245,782.2305728210828
246,782.2252082697182
247,782.2202226646306
248,782.2155829958865
249,782.2112531597113
250,782.2071937860205
251,782.2033620999472
252,782.1997118223701
253,782.1961931127468
254,782.1927525554983
255,782.1893331895516
256,782.1858745800388
257,782.1823129314811
258,782.1785812424203
259,782.174609501803
260,782.1703249272863
261,782.1656522451511
262,782.1605140109313
263,782.1548309694605
264,782.1485224530818
265,782.1415068170666
266,782.133701911207
267,782.1250255853557
268,782.1153962243994
269,782.1047333053425
270,782.0929579666478
271,782.079993578392
272,782.0657663013505
273,782.0502056236407
274,782.0332448649841
275,782.0148216409599
276,781.9948782824448
277,781.9733622078876
278,781.9502262475387
279,781.9254289193286
280,781.898934656548
281,781.870713988676
282,781.8407436787455
283,781.8090068227141
284,781.7754929175082
285,781.7401979043987
286,781.7031241933929
287,781.6642806727147
288,781.6236827055683
289,781.5813521145324
290,781.5373171521778
291,781.4916124550243
292,781.4442789771739
293,781.3953639000702
294,781.3449205155118
295,781.2930080798312
296,781.2396916379222
297,781.1850418166159
298,781.1291345875552
299,781.0720509999438
300,781.0138768833154
301,780.9547025200028
302,780.8946222865716
303,780.8337342634298
304,780.7721398122997
305,780.7099431219945
306,780.6472507237079
307,780.584170977772
308,780.5208135346256
309,780.4572887734408
310,780.3937072225297
311,780.3301789664952
312,780.2668130461994
313,780.203716858888
314,780.140995567062
315,780.078751525561
316,780.0170837364363
317,779.9560873403058
318,779.8958531511419
319,779.836467239523
320,779.7780105680125
321,779.7205586814871
322,779.6641814540978
323,779.6089428927753
324,779.5549009954457
325,779.5021076613149
326,779.4506086507938
327,779.4004435932393
328,779.3516460410128
329,779.3042435682024
330,779.258257911836
331,779.213705152872
332,779.1705959337049
333,779.1289357079866
334,779.0887250171654
335,779.0499597871309
336,779.0126316386787
337,778.9767282071818
338,778.9422334688647
339,778.9091280726008
340,778.8773896769314
341,778.8469932920242
342,778.8179116257485
343,778.7901154325197
344,778.7635738635576
345,778.738254817616
346,778.7141252916583
347,778.691151731177
348,778.6693003796311
349,778.6485376254088
350,778.6288303429421
351,778.6101462228581
352,778.5924540849492
353,778.575724167206
354,778.5599283838887
355,778.5450405455467
356,778.5310365341334
357,778.5178944268459
358,778.5055945629834
359,778.4941195491384
360,778.4834541996179
361,778.4735854108227
362,778.4645019699975
363,778.4561943004878
364,778.4486541478568
365,778.4418742138212
366,778.435847747335
367,778.4305681037323
368,778.4260282833087
369,778.4222204599357
370,778.41913550854
371,778.416762538409
372,778.4150884382561
373,778.4140974389792
374,778.4137707004437
375,778.414085928761
376,778.4150170303328
377,778.4165338086848
378,778.418601709762
379,778.4211816205917
380,778.4242297249792
381,778.4276974186139
382,778.4315312849977
383,778.4356731330003
384,778.4400600963118
385,778.4446247942858
386,778.4492955524947
387,778.4539966797881
388,778.4586487968842
389,778.4631692100053
390,778.4674723224532
391,778.4714700775523
392,778.4750724274576
393,778.4781878231781
394,778.48072372156
395,778.4825871049574
396,778.4836850089803
397,778.483925053044
398,778.4832159676535
399,778.481468111809
400,778.4785939740109
401,778.4745086512727
402,778.4691303021939
403,778.4623805720989
404,778.4541849902064
405,778.444473340592
406,778.4331800101199
407,778.4202443171995
408,778.4056108250246
409,778.3892296421959
410,778.3710567127976
411,778.3510540972794
412,778.3291902446628
413,778.3054402555542
414,778.2797861344578
415,778.2522170290687
416,778.2227294535189
417,778.1913274920066
418,778.1580229792088
419,778.1228356544722
420,778.0857932876356
421,778.0469317750303
422,778.0062952044817
423,777.963935887933
424,777.9199143597792
425,777.8742993384438
426,777.8271676485499
427,777.7786041014695
428,777.7287013329666
429,777.677559597722
430,777.6252865213572
431,777.5719968109596
432,777.5178119251481
433,777.4628597046012
434,777.4072739638763
435,777.3511940453445
436,777.2947643363327
437,777.2381337512192
438,777.1814551812063
439,777.1248849154059
440,777.0685820372754
441,777.0127078001851
442,776.9574249852491
443,776.9028972440558
444,776.8492884290224
445,776.7967619148549
446,776.7454799155704
447,776.6956028020471
448,776.6472884249681
449,776.6006914479718
450,776.5559626962906
451,776.5132485268363
452,776.4726902259398
453,776.4344234406643
454,776.398577649135
455,776.3652756748821
456,776.334633249807
457,776.3067586300268
458,776.2817522682711
459,776.2597065453647
460,776.2407055618417
461,776.2248249894578
462,776.2121319813916
463,776.2026851387035
464,776.1965345289336
465,776.1937217510342
466,776.1942800398506
467,776.1982344034748
468,776.2056017878388
469,776.2163912642793
470,776.2306042369765
471,776.2482346681818
472,776.2692693202154
473,776.2936880141758
474,776.3214639056268
475,776.3525637768115
476,776.3869483433357
477,776.4245725715083
478,776.4653860014905
479,776.5093330712631
480,776.5563534366904
481,776.6063822831335
482,776.6593506242607
483,776.7151855843508
484,776.7738106615847
485,776.8351459711984
486,776.8991084685179
487,776.9656121528252
488,777.034568253972
489,777.105885404732
490,777.1794698027733
491,777.2552253663963
492,777.3330538874505
493,777.4128551829656
494,777.4945272445846
495,777.5779663832006
496,777.6630673661641
497,777.7497235456495
498,777.8378269781626
499,777.9272685361266
500,778.0179380130792
501,778.1097242242421
502,778.2025151041166
503,778.296197802516
504,778.3906587800885
505,778.4857839035953
506,778.5814585399618
507,778.6775676470173
508,778.7739958583012
509,778.8706275592618
510,778.9673469523993
511,779.0640381093988
512,779.1605850091605
513,779.2568715620263
514,779.3527816224937
515,779.4481989949692
516,779.5430074388221
517,779.6370906795065
518,779.7303324320063
519,779.8226164422997
520,779.9138265526427
521,780.0038467968882
522,780.0925615316946
523,780.1798556078652
524,780.265614584037
525,780.349724983715
526,780.43207459627
527,780.5125528220578
528,780.5910510607118
529,780.6674631404323
530,780.7416857853358
531,780.8136191174274
532,780.8831671888231
533,780.9502385383788
534,781.0147467656981
535,781.0766111153649
536,781.135757065095
537,781.1921169125274
538,781.245630355836
539,781.2962450629803
540,781.3439172232828
541,781.3886120734086
542,781.4303043881847
543,781.4689789256227
544,781.5046308155349
545,781.5372658824347
546,781.566900895328
547,781.5935637385204
548,781.6172934984113
549,781.6381404622383
550,781.6561660263659
551,781.6714425136266
552,781.6840529010008
553,781.6940904607753
554,781.7016583205562
555,781.7068689498137
556,781.7098435822122
557,781.7107115832218
558,781.7096097715487
559,781.7066817014291
560,781.7020769115982
561,781.6959501462559
562,781.6884605536898
563,781.67977086896
564,781.6700465876476
565,781.6594551376555
566,781.648165055376
567,781.6363451715346
568,781.6241638112568
569,781.6117880128281
570,781.5993827701467
571,781.5871103043223
572,781.5751293696013
573,781.5635945977536
574,781.552655883667
575,781.5424578136682
576,781.5331391373352
577,781.5248322832578
578,781.5176629190852
579,781.5117495559341
580,781.5072031965072
581,781.5041270251428
582,781.5026161370283
583,781.502757303565
584,781.5046287713051
585,781.5083000923895
586,781.51383198457
587,781.5212762188714
588,781.530675533348
589,781.5420635727522
590,781.5554648560784
591,781.5708947758052
592,781.5883596332537
593,781.607856713742
594,781.6293744038395
595,781.6528923515654
596,781.6783816688021
597,781.7058051733487
598,781.7351176663642
599,781.7662662402655
600,781.7991906125329
601,781.8338234816398
602,781.8700909017125
603,781.9079126723586
604,781.9472027397454
605,781.9878696050787
606,782.0298167375508
607,782.0729429904853
608,782.1171430212512
609,782.1623077168257
610,782.2083246273709
611,782.2550784104606
612,782.3024512891883
613,782.3503235278009
614,782.398573927886
615,782.4470803465632
616,782.4957202364996
617,782.5443712065612
618,782.5929116015088
619,782.641221098807
620,782.68918131986
621,782.736676451708
622,782.7835938738048
623,782.8298247834066
624,782.8752648123285
625,782.9198146269154
626,782.9633805019461
627,783.0058748586872
628,783.0472167584112
629,783.0873323454778
630,783.1261552374679
631,783.1636268624192
632,783.1996967441261
633,783.2343227357604
634,783.2674712004381
635,783.2991171357822
636,783.3292442388706
637,783.3578449082402
638,783.3849201806064
639,783.4104796018045
640,783.43454103427
641,783.457130406385
642,783.4782814109379
643,783.4980351599063
644,783.5164398006276
645,783.5335500948411
646,783.5494269584829
647,783.5641369580494
648,783.5777517593536
649,783.590347526005
650,783.6020042671021
651,783.6128051360714
652,783.6228356852044
653,783.63218308306
654,783.6409353039334
655,783.6491802993426
656,783.6570051607508
657,783.6644952813214
658,783.6717335235827
659,783.6787994001177
660,783.6857682754597
661,783.6927105984737
662,783.6996911752386
663,783.706768492978
664,783.7139941056694
665,783.7214120909482
666,783.7290585859431
667,783.7369614079764
668,783.745139765499
669,783.7536040645638
670,783.7623558153352
671,783.7713876410046
672,783.7806833886198
673,783.7902183388749
674,783.7999595106377
675,783.809866055697
676,783.8198897390372
677,783.829975499317
678,783.8400620833429
679,783.8500827476262
680,783.8599660195587
681,783.869636509871
682,783.8790157668869
683,783.8880231622879
684,783.8965767981879
685,783.9045944260056
686,783.911994368129
687,783.9186964330502
688,783.9246228137209
689,783.9296989583448
690,783.9338544035777
691,783.937023561864
692,783.939146456213
693,783.9401693964401
694,783.9400455910747
695,783.938735689208
696,783.9362082464141
697,783.9324401083059
698,783.9274167044006
699,783.9211322442347
700,783.9135898074069
701,783.9048013195451
702,783.8947874073523
703,783.8835771283825
704,783.871207575092
705,783.8577233573935
706,783.8431759727661
707,783.8276230774147
708,783.8111276752891
709,783.7937572432068
710,783.7755828100045
711,783.7566780065563
712,783.7371181026774
713,783.7169790464575
714,783.6963365209015
715,783.6752650317925
716,783.6538370398384
717,783.6321221495834
718,783.6101863666906
719,783.5880914333761
720,783.5658942489891
721,783.5436463796285
722,783.5213936578276
723,783.4991758709265
724,783.4770265349787
725,783.454972750201
726,783.4330351340184
727,783.4112278282637
728,783.3895585777715
729,783.3680288783627
730,783.3466341928603
731,783.3253642339225
732,783.3042033116728
733,783.2831307421616
734,783.2621213100732
735,783.2411457766739
736,783.2201714225014
737,783.1991626138938
738,783.1780813827884
739,783.156888009648
740,783.1355415996225
741,783.1140006424407
742,783.0922235473428
743,783.0701691454968
744,783.0477971536859
745,783.0250685944828
746,783.0019461696049
747,782.9783945846891
748,782.9543808254845
749,782.9298743871965
750,782.9048474598192
751,782.8792750722334
752,782.8531351966833
753,782.8264088137179
754,782.7990799369
755,782.771135597218
756,782.7425657889402
757,782.7133633806419
758,782.6835239965053
759,782.6530458734829
760,782.6219296997405
761,782.5901784396326
762,782.5577971509624
763,782.5247928013583
764,782.4911740915119
765,782.4569512929565
766,782.4221361068393
767,782.3867415481897
768,782.3507818581232
769,782.314272444353
770,782.2772298482696
771,782.2396717351971
772,782.2016169040257
773,782.1630853132547
774,782.1240981214626
775,782.0846777402667
776,782.0448478969038
777,782.0046337024451
778,781.9640617210617
779,781.9231600359224
780,781.8819583080972
781,781.8404878257338
782,781.7987815409786
783,781.7568740914555
784,781.7148018023767
785,781.6726026655836
786,781.6303162933982
787,781.587983847654
788,781.5456479468363
789,781.5033525561524
790,781.4611428664465
791,781.4190651685611
792,781.3771667301183
793,781.3354956814256
794,781.294100916125
795,781.2530320107232
796,781.2123391658823
797,781.1720731714362
798,781.1322853960912
799,781.0930278012631
800,781.0543529764406
801,781.0163141911527
802,780.9789654567364
803,780.9423615903733
804,780.9065582744231
805,780.8716121051915
806,780.8375806259595
807,780.8045223390368
808,780.7724966911683
809,780.7415640263339
810,780.711785499919
811,780.6832229485339
812,780.6559387110434
813,780.6299953991131
814,780.6054556192843
815,780.5823816520127
816,780.5608350952355
817,780.5408764808327
818,780.5225648725317
819,780.5059574539763
820,780.4911091158524
821,780.4780720507862
822,780.4668953641357
823,780.4576247078548
824,780.4503019433461
825,780.444964837651
826,780.4416467956441
827,780.4403766293369
828,780.4411783640369
829,780.4440710797815
830,780.4490687853025
831,780.4561803212553
832,780.4654092899457
833,780.476754010143
834,780.490207497193
835,780.5057574699936
836,780.5233863870724
837,780.5430715137167
838,780.5647850209452
839,780.5884941156442
840,780.6141612000448
841,780.6417440581813
842,780.671196067091
843,780.7024664310237
844,780.7355004370523
845,780.7702397296426
846,780.8066226002965
847,780.8445842874565
848,780.8840572820798
849,780.9249716352318
850,780.96725526498
851,781.0108342604923
852,781.0556331818342
853,781.1015753546224
854,781.1485831591905
855,781.1965783140815
856,781.2454821536008
857,781.295215898969
858,781.3457009221486
859,781.3968590005785
860,781.4486125600163
861,781.5008849018608
862,781.5536004112495
863,781.6066847433414
864,781.6600649872623
865,781.7136698092013
866,781.7674295771237
867,781.8212764693095
868,781.8751445679707
869,781.9289699382789
870,781.9826906926162
871,782.0362470399109
872,782.0895813204837
873,782.1426380276068
874,782.1953638177063
875,782.2477075116565
876,782.2996200898341
877,782.3510546835121
878,782.4019665648622
879,782.4523131374265
880,782.5020539283864
881,782.551150583288
882,782.5995668631967
883,782.6472686437825
884,782.6942239156343
885,782.7404027849143
886,782.7857774728843
887,782.8303223121385
888,782.8740137369779
889,782.9168302652297
890,782.95875246861
891,782.999762928696
892,783.0398461762671
893,783.0789886131906
894,783.1171784174353
895,783.1544054325847
896,783.1906610435168
897,783.2259380402925
898,783.2602304731158
899,783.293533502247
900,783.3258432473197
901,783.3571566402527
902,783.3874712850962
903,783.4167853273151
904,783.4450973345049
905,783.4724061902825
906,783.4987110028734
907,783.5240110296666
908,783.5483056188206
909,783.5715941690264
910,783.593876108942
911,783.6151508983922
912,783.6354180534676
913,783.6546771965985
914,783.6729281307971
915,783.6901709353992
916,783.7064060793734
917,783.7216345475996
