frame_number,force
0,565.0359500000354
1,564.9902699166809
2,564.9523193814537
3,564.9291418598049
4,564.9264865436761
5,564.9483249481475
6,564.9965120710934
7,565.0706068420515
8,565.1678672150118
9,565.2834220184785
10,565.4105976370121
11,565.5413617519002
12,565.6668493591079
13,565.7779488040366
14,565.865933930265
15,565.9231299216638
16,565.9435929931029
17,565.9237589101956
18,565.8629778536075
19,565.763832071804
20,565.6321483001021
21,565.4766610350164
22,565.3083400394506
23,565.1394542696503
24,564.9824867871995
25,564.8490272344296
26,564.7487566643222
27,564.6886193174375
28,564.6722551325089
29,564.6997441990305
30,564.7676839202517
31,564.8695816570945
32,564.9965132380918
33,565.137979927639
34,565.2828847197525
35,565.4205329506282
36,565.541548972058
37,565.638608058933
38,565.7069179205325
39,565.7444307691302
40,565.7518003844674
41,565.7321128058073
42,565.6904288716186
43,565.6331931800778
44,565.5675781082783
45,565.5008274753766
46,565.4396432922937
47,565.3896387818091
48,565.3548773476939
49,565.3375304974226
50,565.3377016311343
51,565.3534575524393
52,565.3810817719082
53,565.415527830066
54,565.451022473351
55,565.4817517410588
56,565.5025560681238
57,565.5095622275514
58,565.5006868033058
59,565.4759512524165
60,565.4375529697022
61,565.389652926462
62,565.3378806136005
63,565.2886174920505
64,565.2481794631814
65,565.2220476139101
66,565.2142768920927
67,565.2271544716136
68,565.2611122282359
69,565.3148453045947
70,565.3855639409727
71,565.4693141992171
72,565.5613371371536
73,565.6564693007241
74,565.7495930281367
75,565.836118257419
76,565.9124376632012
77,565.9762707508526
78,566.0268185113043
79,566.0646912769994
80,566.0916325015891
81,566.1101097364681
82,566.1228577101481
83,566.1324440650683
84,566.1409113102677
85,566.1495386576391
86,566.1587546616054
87,566.1682082757113
88,566.1769754525513
89,566.183851037205
90,566.187663223549
91,566.1875544759673
92,566.1831903291434
93,566.174872694013
94,566.1635418557214
95,566.150658512827
96,566.1379751426292
97,566.1272375312067
98,566.1198910262533
99,566.1168772802204
100,566.1185743814403
101,566.1248657814386
102,566.1352656383752
103,566.1490213646254
104,566.1651562532877
105,566.1824657379237
106,566.199503532922
107,566.2145850715413
108,566.2258156308177
109,566.231137608836
110,566.2283908393724
111,566.2153897038692
112,566.1900354197285
113,566.1504884148335
114,566.095410706555
115,566.0242548209218
116,565.9375448736406
117,565.8370823746083
118,565.7260128339166
119,565.6087097278236
120,565.4904779141345
121,565.3771386152283
122,565.2745937474238
123,565.1884478109013
124,565.1237053084683
125,565.0845091450734
126,565.0738745784236
127,565.0933968221134
128,565.1429437416034
129,565.220377522843
130,565.3213784535313
131,565.4394562379719
132,565.5662124357394
133,565.6918687246003
134,565.8060304565502
135,565.8986303367465
136,565.9609757581607
137,565.9867848148357
138,565.9730534453564
139,565.9205852771049
140,565.8340549862088
141,565.721553781888
142,565.5936614594928
143,565.4621865570475
144,565.3387903389761
145,565.2337294021036
146,565.1549020367784
147,565.1072872196478
148,565.0927627984976
149,565.1102172801246
150,565.1558522381996
151,565.2236114009427
152,565.3057310951888
153,565.3934273125948
154,565.477694946171
155,565.5501352404124
156,565.6037042944818
157,565.6332991338674
158,565.6361373028684
159,565.6119148437015
160,565.5627442672454
161,565.4928856456148
162,565.4082920911035
163,565.3159986323157
164,565.2234017469211
165,565.1375087916357
166,565.0642616096718
167,565.0080312512237
168,564.9713410835817
169,564.9548264503401
170,564.9574034866823
171,564.976606737091
172,565.0090540383127
173,565.0509859922267
174,565.0988016165819
175,565.1494944874628
176,565.2009059707945
177,565.2517483059066
178,565.3013951970676
179,565.3494884216987
180,565.3954616713426
181,565.4381124930024
182,565.4753339162048
183,565.5040583940669
184,565.5204077035535
185,565.5200120731807
186,565.4984558094565
187,565.4518049343702
188,565.3771630298759
189,565.2731880519482
190,565.1404963446224
191,564.9818882500601
192,564.8023521816283
193,564.6088349391445
194,564.4097990005343
195,564.2146178522463
196,564.0328827355851
197,563.8736992827297
198,563.7450366500823
199,563.6531723852755
200,563.6022773358122
201,563.5941963947604
202,563.6284644674724
203,563.7025455817239
204,563.8122352291749
205,563.9521502238729
206,564.1162352290384
207,564.2982214392679
208,564.4919787903186
209,564.6917155105043
210,564.89200295494
211,565.087640649333
212,565.2734228366875
213,565.4439120646097
214,565.5933446910946
215,565.7157648762
216,565.8054104871563
217,565.8572916802226
218,565.8678506917955
219,565.8355832890207
220,565.7615224150647
221,565.6495078483906
222,565.5061841349269
223,565.340695746624
224,565.1640919712916
225,564.9885016532078
226,564.8261712886331
227,564.6884729268967
228,564.5849860990622
229,564.5227474805872
230,564.5057404821695
231,564.5346596411623
232,564.6069462925122
233,564.7170759951362
234,564.8570824934991
235,565.0173011075628
236,565.1872867976388
237,565.3568146299539
238,565.5168310138326
239,565.6602204737137
240,565.7822859318218
241,565.8808901192448
242,565.9562584761352
243,566.0104993164839
244,566.0469479102019
245,566.0694687862148
246,566.0818435244621
247,566.0873357239609
248,566.0884737004627
249,566.0870358039712
250,566.0841770728289
251,566.0806145219419
252,566.0767946913732
253,566.0729915252729
254,566.0693170077942
255,566.065667157112
256,566.0616610434134
257,566.0566416417337
258,566.0497846070379
259,566.0403157232647
260,566.0277932088796
261,566.012386260696
262,565.99508286018
263,565.9777816429012
264,565.963250953774
265,565.9549615331998
266,565.9568122281213
267,565.9727716355818
268,566.0064595551903
269,566.060697620768
270,566.1370692717213
271,566.2355419050239
272,566.3542137985874
273,566.4892460226075
274,566.6350150099117
275,566.7844776601441
276,566.9296991781083
277,567.0624767711488
278,567.1749991754137
279,567.2604913182931
280,567.3137928643695
281,567.3318188673709
282,567.3138624908574
283,567.2617226641006
284,567.1796636049916
285,567.0742244122978
286,566.9538865587431
287,566.8285860151453
288,566.7090513514645
289,566.6059783201946
290,566.5291070441234
291,566.4863155541183
292,566.4828501621998
293,566.5207791890506
294,566.5987121795135
295,566.7118009363691
296,566.8520341648023
297,567.0088304317827
298,567.1698986293526
299,567.3222730650269
300,567.4533775215738
301,567.5519719643717
302,567.6088952287528
303,567.6175946604608
304,567.5744749631145
305,567.4790920520345
306,567.3341966782795
307,567.1456250158132
308,566.9220335098141
309,566.674468224893
310,566.4157526787018
311,566.1596951470419
312,565.920159664256
313,565.7100872927233
314,565.5405675316249
315,565.420042431388
316,565.3536956088986
317,565.3430537911516
318,565.3858235322805
319,565.4759979100165
320,565.6042722386793
321,565.7587804594486
322,565.9261096562835
323,566.0924926116691
324,566.245034787773
325,566.3728125394892
326,566.4676957470153
327,566.5248032212022
328,566.5425717724839
329,566.5224806810731
330,566.4685140682958
331,566.3864710074771
332,566.2832422127686
333,566.1661480060131
334,566.0423787028931
335,565.9185253026684
336,565.8001650237006
337,565.6914812213663
338,565.5949418613741
339,565.5111126736426
340,565.4387021276602
341,565.3748949815043
342,565.3159431901672
343,565.2578990177957
344,565.1973387652572
345,565.131943641285
346,565.060854259875
347,564.9847664107414
348,564.9057737782172
349,564.826996250384
350,564.7520654539654
351,564.684555563468
352,564.6274337830118
353,564.582579560514
354,564.5504149079991
355,564.5297014923193
356,564.5175629559067
357,564.5097581330012
358,564.5011726378232
359,564.4864464762464
360,564.4606372756948
361,564.4198333028885
362,564.3616646398891
363,564.2856911024332
364,564.1936464129175
365,564.0894912353461
366,563.9792130659516
367,563.8703473883857
368,563.7712683272604
369,563.690354669521
370,563.6351478046339
371,563.6115984861383
372,563.6234770932422
373,563.6720042266099
374,563.7557366288172
375,563.8707115340937
376,564.0108178293407
377,564.1683411197644
378,564.3346284576331
379,564.5008243974102
380,564.658624305542
381,564.8009693297039
382,564.9225900223347
383,565.0203200252433
384,565.0931505858989
385,565.142051046754
386,565.1696094509408
387,565.1795519642533
388,565.1762016958955
389,565.1639462857798
390,565.1467855748646
391,565.1280105085883
392,565.1100303105723
393,565.0943408702317
394,565.0816211661368
395,565.0719410566284
396,565.0650512460297
397,565.0607112330421
398,565.0590026546297
399,565.0605731905955
400,565.0667587678354
401,565.0795456031367
402,565.1013637198329
403,565.1347409919485
404,565.1818749137631
405,565.2441911396726
406,565.321959203858
407,565.4140336992942
408,565.5177809227312
409,565.6292249255301
410,565.7433977444473
411,565.8548242777542
412,565.9580444436294
413,566.0480867820761
414,566.1208428298655
415,566.1733283077118
416,566.2038407962183
417,566.212026249583
418,566.198854183699
419,566.1664937743556
420,566.1180931164062
421,566.0574820551946
422,565.9888299644776
423,565.9162919168225
424,565.8436759893684
425,565.7741626262099
426,565.7101023988309
427,565.6529105066585
428,565.6030662369457
429,565.5602162244362
430,565.5233731833443
431,565.4911951864291
432,565.4623214652767
433,565.4357266331932
434,565.4110361906419
435,565.3887278327629
436,565.3701410574844
437,565.3572521369379
438,565.3522451142679
439,565.3569899321444
440,565.3725778682654
441,565.3990398018185
442,565.435304995425
443,565.4793843392604
444,565.5287079607415
445,565.5805252532401
446,565.6322869757086
447,565.6819584299842
448,565.7282375490175
449,565.7706641231945
450,565.8096141885633
451,565.8461847433779
452,565.8819869937917
453,565.9188739636422
454,565.9586295941699
455,566.0026531474663
456,566.0516934379876
457,566.105706618037
458,566.1638985100313
459,566.2249568875543
460,566.2874060619731
461,566.3499687343501
462,566.4118276134855
463,566.4727362999874
464,566.5329970955413
465,566.5933620460435
466,566.6549119348754
467,566.718940177062
468,566.786829245279
469,566.8598749260605
470,566.9390196753187
471,567.0245121220748
472,567.1155759777245
473,567.210194828263
474,567.305090050497
475,567.3959161754791
476,567.4776458779361
477,567.5450772976576
478,567.5933801424278
479,567.6186059191575
480,567.618109102584
481,567.5908433853657
482,567.5375008254894
483,567.4604589991258
484,567.3635174684638
485,567.2514567606132
486,567.1295163649678
487,567.0029104145586
488,566.8764552666945
489,566.7543067169584
490,566.6397596456712
491,566.5350824141998
492,566.4414179478952
493,566.3588244671287
494,566.286505486006
495,566.2231974079582
496,566.1676001025702
497,566.118707204647
498,566.0759280767966
499,566.0389641647294
500,566.0074798776963
501,565.9806729487069
502,565.9568802430709
503,565.9333363925067
504,565.9061486645834
505,565.8705006505087
506,565.8210701981136
507,565.7526269670964
508,565.660739529037
509,565.5424771722468
510,565.3969693360908
511,565.2257109742296
512,565.0325647056053
513,564.8234725957185
514,564.605926197689
515,564.3882607183842
516,564.1788576076361
517,563.9853623234446
518,563.8140332509533
519,563.6693161640954
520,563.553689583114
521,563.467771430377
522,563.4106302933764
523,563.3802043420458
524,563.3737070498239
525,563.3879183085692
526,563.4193291583778
527,563.4641877692407
528,563.518530525484
529,563.5782650410788
530,563.6393331689834
531,563.6979469756541
532,563.7508627933494
533,563.7956428683626
534,563.83086015249
535,563.8562209075643
536,563.8725890005234
537,563.8818909089943
538,563.8868854093727
539,563.8908140133283
540,563.896991078981
541,563.9084148248661
542,563.927469602555
543,563.9557586771759
544,563.9940756583264
545,564.0424990681358
546,564.1005724461903
547,564.1675128552473
548,564.2423878698091
549,564.3242195901458
550,564.4119994000258
551,564.5046185495388
552,564.60074161632
553,564.6986745089677
554,564.7962951925733
555,564.8911094762902
556,564.980459248434
557,565.0618523699947
558,565.1333224942981
559,565.1936943603373
560,565.2426512671655
561,565.2805756642631
562,565.3082278783982
563,565.3263952445379
564,565.3356531653585
565,565.3363296393555
566,565.3286766936809
567,565.3131593923584
568,565.2907174670819
569,565.2628698960953
570,565.2316157266811
571,565.1991864066878
572,565.1677638900917
573,565.1392666734088
574,565.1152447194894
575,565.0968607206985
576,565.0849039482895
577,565.0797905488798
578,565.0815383359625
579,565.0897449094414
580,565.103620565866
581,565.1221136466858
582,565.1441215173015
583,565.1687352767624
584,565.1954516035071
585,565.2243063303705
586,565.2559168564763
587,565.2914346981959
588,565.3324017080108
589,565.3805004649662
590,565.4372173328599
591,565.5034864775853
592,565.5794143418902
593,565.6641664592584
594,565.7560390183786
595,565.8526682585857
596,565.9512856268221
597,566.0489275577455
598,566.142552661239
599,566.2290765064475
600,566.305372035683
601,566.3682896330262
602,566.414734558744
603,566.4418180332625
604,566.4470838663882
605,566.4288064526685
606,566.3863476956149
607,566.32053486758
608,566.2339799551625
609,566.1312345032431
610,566.0186946182737
611,565.9042316357085
612,565.7965863541675
613,565.7046033885093
614,565.6364009330341
615,565.5985773147523
616,565.5955451281759
617,565.6290586353542
618,565.6979760605913
619,565.7982830485078
620,565.9233873268157
621,566.0646673136247
622,566.2122194084495
623,566.3557094987343
624,566.4852104945572
625,566.5919170043776
626,566.668674124119
627,566.7103200603593
628,566.7138894002517
629,566.6787308564354
630,566.6065599642233
631,566.5014205846935
632,566.3695043082713
633,566.2187876542922
634,566.0584815177605
635,565.8983281292788
636,565.7478154562735
637,565.6153978954817
638,565.5078117046972
639,565.4295616891382
640,565.3826406372078
641,565.3665205406891
642,565.378419212236
643,565.4138062704924
644,565.4670804719726
645,565.532328068157
646,565.6040577949423
647,565.6778028296626
648,565.7504867480741
649,565.82047930725
650,565.8873275277148
651,565.9512251366807
652,566.0123476588391
653,566.0702093353576
654,566.1231912890769
655,566.1683562591141
656,566.2016080173061
657,566.2181771545721
658,566.21333545077
659,566.1831855352797
660,566.125358162919
661,566.0394729703647
662,565.9272719317025
663,565.7924160501109
664,565.6400324137777
665,565.4761701038144
666,565.307324054544
667,565.140110560096
668,564.9810742718282
669,564.8365388296434
670,564.7124148368524
671,564.6139335822924
672,564.545341324752
673,564.5096317844053
674,564.5083936940397
675,564.541805486943
676,564.6087467618972
677,564.7069521340579
678,564.833126529892
679,564.9829727385857
680,565.1511390734723
681,565.3311475168713
682,565.5153830438956
683,565.695212821029
684,565.8612790000509
685,566.0039838209633
686,566.1141567175922
687,566.1838502771726
688,566.2071599427665
689,566.1809254859576
690,566.1051762429942
691,565.9832322821736
692,565.8214485059998
693,565.6286573288883
694,565.4154119577514
695,565.1931529309774
696,564.9734091971471
697,564.7671013510334
698,564.5839604762165
699,564.4320430731146
700,564.3173248078024
701,564.2433810066675
702,564.2111874399799
703,564.219085191577
704,564.2629402146642
705,564.336491360163
706,564.4318377264827
707,564.5399979324037
708,564.6514944572152
709,564.7569513027488
710,564.8477033772675
711,564.9163930251326
712,564.9575033262067
713,564.9677728630535
714,564.9464411358484
715,564.8952710856964
716,564.8182985989026
717,564.7212949829284
718,564.6109976016445
719,564.4942341567344
720,564.3770995818257
721,564.2643244164493
722,564.15891550113
723,564.062086924346
724,563.9734502456434
725,563.8913971392375
726,563.813588282041
727,563.7374694833525
728,563.6607602569793
729,563.5818758052023
730,563.500245052578
731,563.4164954786456
732,563.3324993713109
733,563.2512926896452
734,563.1768655291066
735,563.1138030874351
736,563.0667698229555
737,563.0398814802721
738,563.0360593596777
739,563.0564743799084
740,563.1001690305129
741,563.1639163469937
742,563.242348018732
743,563.3283511235334
744,563.4136877398055
745,563.4897477476254
746,563.548326455435
747,563.5823304076581
748,563.5863405784297
749,563.5569882495845
750,563.4931261357588
751,563.395809807264
752,563.268134650693
753,563.1149881619917
754,562.9427732522867
755,562.7591388740617
756,562.5727202643634
757,562.3928549730781
758,562.2292304164595
759,562.0914431981897
760,561.9884852857364
761,561.9281925602625
762,561.916700380546
763,561.9579632661038
764,562.0534073626036
765,562.2017733754695
766,562.3991691935217
767,562.6393119567322
768,562.9139233590965
769,563.2132413274104
770,563.5266076057258
771,563.8430888329764
772,564.1520993541455
773,564.4440069747498
774,564.7107032713931
775,564.9461100324686
776,565.1465797135668
777,565.3111323745817
778,565.4414645200795
779,565.5416851659922
780,565.61778438804
781,565.6768966107884
782,565.7264577669621
783,565.773363728694
784,565.8232263181592
785,565.8798061451241
786,565.9446861029307
787,566.0172347807525
788,566.0948877933777
789,566.1737364498637
790,566.249353918867
791,566.3177252388147
792,566.376108592365
793,566.4236605784711
794,566.4617043163094
795,566.4935881485496
796,566.524157776012
797,566.5589378720218
798,566.603180506731
799,566.6609644560742
800,566.7345053425446
801,566.8237743441955
802,566.9264535461863
803,567.0382017664615
804,567.1531712643506
805,567.2646963722153
806,567.3660626672126
807,567.4512595203254
808,567.5156228102674
809,567.5562898907958
810,567.572415083953
811,567.5651300968987
812,567.5372782425268
813,567.4929945328341
814,567.437224603171
815,567.3752594878698
816,567.3123213556172
817,567.2531953265235
818,567.2018884030064
819,567.1613154006525
820,567.1330475680114
821,567.117181838117
822,567.1123778568714
823,567.1160736711888
824,567.124851237205
825,567.1348925950994
826,567.1424484157411
827,567.1442383917937
828,567.1377251809707
829,567.1212450828771
830,567.0940228542197
831,567.0561264832489
832,567.0084148557197
833,566.952496477183
834,566.8906742599027
835,566.8258326272527
836,566.7612423364276
837,566.7002999865093
838,566.6462579644027
839,566.6020191681607
840,566.5700563889587
841,566.55246243753
842,566.551063457415
843,566.5674824941012
844,566.6030624766279
845,566.658635402644
846,566.7342041008393
847,566.8286404591452
848,566.9394960633547
849,567.0629916688067
850,567.1942206903934
851,567.3275678789244
852,567.4572969348095
853,567.5782054607346
854,567.6862113654653
855,567.7787494759776
856,567.8549190977905
857,567.9154025533658
858,567.9622334017911
859,567.9985026738044
860,568.0280506919806
861,568.0551356513389
862,568.0840448868584
863,568.1186410975064
864,568.1618943455044
865,568.2154962313468
866,568.2796471985098
867,568.353055367739
868,568.4331262226523
869,568.5162883949592
870,568.598389252013
871,568.6750897634112
872,568.7421905157469
873,568.7958421932102
874,568.832638029107
875,568.8496338963369
876,568.844364198314
877,568.814904578655
878,568.7599915844384
879,568.6791747115583
880,568.5729640489797
881,568.442943815766
882,568.2918376426983
883,568.1235233848705
884,567.9429944433105
885,567.7562529420571
886,567.5701088903166
887,567.3918572648486
888,567.2288139114289
889,567.0877132885404
890,566.9740084190074
891,566.8911608203226
892,566.8400502165334
893,566.8186472291001
894,566.822055889904
895,566.842949062362
896,566.8723247163266
897,566.9004485167178
898,566.9178358443065
899,566.9161535635324
900,566.8889680659854
901,566.8323085006083
902,566.7450340153927
903,566.6289909787868
904,566.4889378248607
905,566.3322162470902
906,566.1681609829261
907,566.0072680908864
908,565.8601863932042
909,565.7366475000152
910,565.6444794348778
911,565.5888402857056
912,565.5717684923055
913,565.592087692514
914,565.6456355799528
915,565.725730310668
916,565.8237753216365
917,565.9299369719309
918,566.0338710805976
