frame_number,force
0,877.142845101609
1,877.1279272361905
2,877.1132610183879
3,877.098875976713
4,877.0848000097745
5,877.0710592102226
6,877.0576776852438
7,877.0446773801899
8,877.0320779114285
9,877.0198964139958
10,877.0081474093365
11,876.9968426981561
12,876.9859912830871
13,876.9755993255412
14,876.965670140692
15,876.9562042337056
16,876.9471993789589
17,876.9386507422766
18,876.9305510446951
19,876.9228907652465
20,876.9156583796347
21,876.9088406310516
22,876.9024228287302
23,876.8963891695452
24,876.8907230785225
25,876.8854075654282
26,876.8804255958952
27,876.8757604759899
28,876.8713962483133
29,876.8673180957682
30,876.8635127466174
31,876.859968872324
32,876.8566774684962
33,876.8536322091646
34,876.8508297652705
35,876.848270079058
36,876.8459565865568
37,876.8438963806261
38,876.8421003077057
39,876.8405829929303
40,876.8393627906763
41,876.83846166074
42,876.837904973656
43,876.8377212513618
44,876.8379418510355
45,876.8386006007482
46,876.8397333960331
47,876.8413777667528
48,876.8435724236422
49,876.8463567935509
50,876.8497705518275
51,876.8538531593763
52,876.8586434104047
53,876.8641789946998
54,876.8704960757959
55,876.8776288843569
56,876.8856093251568
57,876.8944665965164
58,876.9042268225264
59,876.914912699944
60,876.9265431625896
61,876.9391330663045
62,876.9526928974117
63,876.967228507647
64,876.9827408791307
65,876.9992259242073
66,877.0166743261723
67,877.0350714270941
68,877.0543971679606
69,877.0746260849228
70,877.095727364106
71,877.1176649563832
72,877.140397752468
73,877.1638798176849
74,877.1880606848474
75,877.2128857025945
76,877.2382964351681
77,877.2642311080565
78,877.290625092314
79,877.3174114184529
80,877.3445213085134
81,877.371884712897
82,877.3994308379645
83,877.4270886521034
84,877.4547873615876
85,877.4824568515922
86,877.5100280908457
87,877.537433500285
88,877.5646072869959
89,877.5914857448445
90,877.6180075226839
91,877.6441138601049
92,877.6697487895968
93,877.6948593028667
94,877.7193954784667
95,877.743310568694
96,877.7665610460443
97,877.7891066124239
98,877.8109101769028
99,877.8319378095297
100,877.8521586791998
101,877.8715449826979
102,877.8900718705222
103,877.9077173738427
104,877.9244623361819
105,877.9402903529447
106,877.9551877217872
107,877.9691434070983
108,877.9821490222444
109,877.9941988332619
110,878.0052897870486
111,878.0154215655658
112,878.0245966650938
113,878.0328204967922
114,878.0401015023797
115,878.0464512769983
116,878.0518846904507
117,878.0564199980564
118,878.0600789329029
119,878.0628867716692
120,878.0648723664685
121,878.0660681359693
122,878.066510010751
123,878.0662373300363
124,878.0652926890023
125,878.0637217375111
126,878.0615729323983
127,878.0588972466556
128,878.0557478399791
129,878.0521796958545
130,878.0482492302098
131,878.0440138760792
132,878.0395316486539
133,878.0348606959458
134,878.0300588415258
135,878.0251831266102
136,878.0202893590214
137,878.0154316764028
138,878.0106621304321
139,878.0060302976044
140,878.0015829206984
141,877.9973635834657
142,877.9934124192813
143,877.9897658525865
144,877.9864563706032
145,877.983512322652
146,877.9809577454386
147,877.9788122142505
148,877.977090721738
149,877.9758035878423
150,877.9749564064601
151,877.974550035873
152,877.9745806398181
153,877.9750397840019
154,877.9759145896096
155,877.977187942138
156,877.9788387515823
157,877.9808422589131
158,877.9831703833821
159,877.9857921047451
160,877.9886738738187
161,877.991780044363
162,877.9950733193755
163,877.9985152050741
164,878.0020664654703
165,878.0056875695377
166,878.009339122496
167,878.0129822734967
168,878.0165790938651
169,878.0200929219513
170,878.0234886717208
171,878.0267331025497
172,878.0297950479616
173,878.0326456018603
174,878.0352582622571
175,878.0376090339435
176,878.03967649252
177,878.0414418128325
178,878.0428887657803
179,878.044003688647
180,878.0447754349335
181,878.0451953097564
182,878.0452569964265
183,878.0449564791334
184,878.0442919656929
185,878.0432638131749
186,878.0418744581249
187,878.0401283519423
188,878.0380319005044
189,878.0355934054733
190,878.0328230034906
191,878.0297325988814
192,878.0263357853154
193,878.0226477519166
194,878.0186851697027
195,878.0144660551076
196,878.0100096086213
197,878.0053360280757
198,878.0004662975458
199,877.9954219538072
200,877.9902248325665
201,877.9848967966436
202,877.9794594484512
203,877.9739338295866
204,877.9683401109678
205,877.962697277737
206,877.9570228140265
207,877.9513323932986
208,877.9456395803326
209,877.9399555513052
210,877.9342888387099
211,877.9286451075807
212,877.9230269685171
213,877.9174338318805
214,877.911861806799
215,877.9063036483736
216,877.9007487563407
217,877.8951832279745
218,877.8895899669352
219,877.8839488481458
220,877.8782369370524
221,877.8724287602449
222,877.8664966234821
223,877.8604109722847
224,877.8541407890448
225,877.8476540193398
226,877.8409180196301
227,877.833900019071
228,877.8265675892519
229,877.8188891165297
230,877.810834272085
231,877.8023744749505
232,877.7934833429372
233,877.7841371255155
234,877.7743151116674
235,877.7640000050988
236,877.7531782592871
237,877.7418403656856
238,877.7299810898394
239,877.7175996518142
240,877.7046998488006
241,877.6912901190333
242,877.6773835475236
243,877.662997815657
244,877.6481550984143
245,877.6328819147512
246,877.617208937983
247,877.6011707732758
248,877.584805708607
249,877.5681554444228
250,877.5512648060137
251,877.534181441355
252,877.5169555059354
253,877.4996393350855
254,877.4822871038102
255,877.4649544744799
256,877.447698234081
257,877.4305759244496
258,877.4136454701417
259,877.396964809083
260,877.3805915311831
261,877.3645825297913
262,877.3489936700311
263,877.3338794765375
264,877.3192928412018
265,877.3052847497868
266,877.2919040253306
267,877.2791970863007
268,877.2672077180748
269,877.2559768566565
270,877.2455423833967
271,877.2359389295749
272,877.2271976906152
273,877.2193462512195
274,877.2124084242159
275,877.2064041071736
276,877.2013491616176
277,877.197255319824
278,877.1941301238373
279,877.1919769010424
280,877.1907947805377
281,877.1905787544146
282,877.1913197874212
283,877.1930049770592
284,877.1956177637936
285,877.199138188113
286,877.2035431883357
287,877.2088069309535
288,877.2149011642243
289,877.221795585516
290,877.2294582131423
291,877.2378557539027
292,877.2469539583749
293,877.2567179571856
294,877.2671125727197
295,877.2781026018512
296,877.2896530663451
297,877.3017294284799
298,877.3142977700717
299,877.3273249334874
300,877.3407786235762
301,877.3546274698164
302,877.3688410485845
303,877.3833898664101
304,877.3982453061892
305,877.4133795391853
306,877.4287654060834
307,877.4443762706139
308,877.4601858495452
309,877.4761680232751
310,877.492296631651
311,877.5085452596006
312,877.5248870164874
313,877.541294312207
314,877.5577386326029
315,877.5741903170613
316,877.5906183419245
317,877.6069901142045
318,877.6232712805986
319,877.639425556868
320,877.6554145825556
321,877.6711978062827
322,877.6867324074562
323,877.7019732605231
324,877.716872947234
325,877.7313818205081
326,877.7454481209361
327,877.7590181447928
328,877.7720364615578
329,877.7844461793337
330,877.7961892573248
331,877.8072068649018
332,877.8174397865857
333,877.8268288715849
334,877.8353155251909
335,877.8428422374556
336,877.8493531425506
337,877.8547946006294
338,877.859115793215
339,877.8622693231313
340,877.8642118103903
341,877.864904475831
342,877.8643137044903
343,877.8624115806438
344,877.8591763861644
345,877.8545930533982
346,877.8486535634706
347,877.8413572812321
348,877.8327112189793
349,877.822730222501
350,877.8114370746938
351,877.7988625137795
352,877.7850451648378
353,877.7700313849903
354,877.7538750244777
355,877.7366371080318
356,877.7183854428189
357,877.699194160343
358,877.679143200029
359,877.6583177422319
360,877.6368075985808
361,877.6147065680806
362,877.5921117680963
363,877.5691229496529
364,877.545841806211
365,877.522371284791
366,877.4988149086158
367,877.4752761210077
368,877.4518576602802
369,877.4286609743798
370,877.4057856819506
371,877.3833290835802
372,877.36138572392
373,877.3400470028978
374,877.3194008326321
375,877.2995313358908
376,877.2805185818203
377,877.2624383550902
378,877.2453619554142
379,877.2293560254436
380,877.2144824058503
381,877.200798016271
382,877.1883547595656
383,877.1771994455819
384,877.1673737307201
385,877.1589140711649
386,877.1518516895989
387,877.1462125563438
388,877.1420173858507
389,877.1392816490581
390,877.1380156025826
391,877.1382243372616
392,877.1399078500115
393,877.1430611429225
394,877.1476743519976
395,877.1537329060254
396,877.1612177145428
397,877.1701053828231
398,877.1803684512533
399,877.191975656116
400,877.2048922082028
401,877.219080084607
402,877.2344983277072
403,877.2511033441808
404,877.2688491962235
405,877.2876878773759
406,877.307569566733
407,877.328442857612
408,877.3502549593929
409,877.372951873807
410,877.3964785490604
411,877.4207790164934
412,877.4457965149442
413,877.4714736079698
414,877.4977522988947
415,877.524574148327
416,877.5518803981173
417,877.5796121045722
418,877.6077102821689
419,877.6361160577492
420,877.6647708349838
421,877.6936164698727
422,877.7225954593754
423,877.7516511459456
424,877.7807279401501
425,877.8097715619081
426,877.8387292990672
427,877.8675502807841
428,877.8961857624192
429,877.9245894177967
430,877.9527176334676
431,877.9805297981011
432,878.0079885784559
433,878.0350601720181
434,878.061714526202
435,878.087925515491
436,878.1136710706205
437,878.1389332568326
438,878.1636983006243
439,878.1879565661285
440,878.2117024834599
441,878.2349344321312
442,878.2576545833604
443,878.2798687062103
444,878.3015859438818
445,878.3228185673387
446,878.3435817132852
447,878.363893112548
448,878.3837728135755
449,878.4032429044837
450,878.4223272360805
451,878.4410511474046
452,878.4594411941478
453,878.4775248790969
454,878.4953303832867
455,878.5128862973423
456,878.5302213538896
457,878.5473641628744
458,878.5643429517884
459,878.5811853126413
460,878.5979179578794
461,878.6145664886623
462,878.6311551802075
463,878.6477067891198
464,878.6642423865812
465,878.6807812200519
466,878.6973406054168
467,878.713935850931
468,878.7305802129968
469,878.7472848816751
470,878.7640589917944
471,878.780909654736
472,878.7978420067702
473,878.8148592711941
474,878.8319628321732
475,878.8491523178704
476,878.8664256899543
477,878.8837793366772
478,878.9012081675633
479,878.9187057090177
480,878.9362642013064
481,878.9538746976829
482,878.9715271656709
483,878.9892105891631
484,879.00691306891
485,879.0246219185188
486,879.0423237532008
487,879.0600045690818
488,879.077649811867
489,879.0952444345882
490,879.1127729447026
491,879.1302194411073
492,879.1475676420813
493,879.1648009055989
494,879.1819022433288
495,879.1988543285912
496,879.2156394968592
497,879.2322397357963
498,879.2486366613035
499,879.2648114772028
500,879.2807449185408
501,879.2964171807907
502,879.3118078386553
503,879.3268957590237
504,879.3416590134178
505,879.3560747959074
506,879.3701193526683
507,879.3837679289084
508,879.396994737842
509,879.4097729550703
510,879.4220747406315
511,879.4338712906377
512,879.445132920879
513,879.4558291855473
514,879.4659290343068
515,879.4754010094892
516,879.4842134823249
517,879.4923349238876
518,879.4997342039284
519,879.5063809095261
520,879.512245675483
521,879.5173005192759
522,879.5215191744077
523,879.5248774163546
524,879.5273533745899
525,879.5289278227165
526,879.5295844372571
527,879.5293100149921
528,879.528094639579
529,879.5259317904145
530,879.5228183893471
531,879.5187547832843
532,879.5137446632638
533,879.5077949235895
534,879.5009154678942
535,879.493118971711
536,879.4844206126072
537,879.4748377789156
538,879.464389766878
539,879.4530974742058
540,879.4409830961511
541,879.4280698281228
542,879.4143815767247
543,879.3999426794144
544,879.384777632412
545,879.3689108269454
546,879.3523662949656
547,879.3351674668857
548,879.3173369454389
549,879.2988963010955
550,879.2798658952646
551,879.2602647375135
552,879.24011038205
553,879.219418866831
554,879.1982046963225
555,879.1764808664942
556,879.1542589282475
557,879.131549083407
558,879.1083603060938
559,879.0847004820655
560,879.0605765593891
561,879.0359947052101
562,879.0109604649061
563,878.9854789211823
564,878.9595548514156
565,878.9331928817753
566,878.9063976365517
567,878.8791738811361
568,878.8515266574826
569,878.8234614115214
570,878.7949841125063
571,878.7661013646136
572,878.7368205115196
573,878.7071497351068
574,878.6770981494333
575,878.6466758904504
576,878.6158942009994
577,878.5847655097766
578,878.5533035026798
579,878.5215231854316
580,878.4894409371899
581,878.4570745552628
582,878.4244432908565
583,878.3915678752501
584,878.3584705351434
585,878.325174995135
586,878.2917064642919
587,878.2580916027234
588,878.2243584633735
589,878.1905364044421
590,878.1566559693131
591,878.12274873346
592,878.0888471204462
593,878.0549841905053
594,878.0211934050446
595,877.9875083696144
596,877.9539625572107
597,877.9205890135192
598,877.8874200460309
599,877.8544869000274
600,877.8218194258227
601,877.789445742666
602,877.7573919054031
603,877.7256815809886
604,877.6943357430093
605,877.6633723921258
606,877.6328063081647
607,877.6026488368748
608,877.5729077128352
609,877.5435869199321
610,877.5146865913299
611,877.4862029513434
612,877.4581283020427
613,877.4304510578438
614,877.4031558314728
615,877.3762235740538
616,877.3496317705693
617,877.3233546900284
618,877.2973636879888
619,877.2716275580703
620,877.2461129287389
621,877.2207847012683
622,877.1956065237538
623,877.1705412944801
624,877.1455516867024
625,877.1206006865643
626,877.0956521364787
627,877.0706712776085
628,877.0456252866951
629,877.0204838035464
630,876.9952194449303
631,876.9698082982333
632,876.9442303854913
633,876.9184700872768
634,876.8925165171958
635,876.8663638403877
636,876.8400115319744
637,876.8134645731402
638,876.7867335833266
639,876.7598348870137
640,876.7327905130918
641,876.7056281244451
642,876.6783808754229
643,876.6510871954557
644,876.6237904983486
645,876.5965388189077
646,876.5693843812514
647,876.5423831060092
648,876.5155940663477
649,876.4890789052831
650,876.4629012286717
651,876.4371259888895
652,876.4118188730149
653,876.3870457066994
654,876.3628718818157
655,876.3393618132625
656,876.3165784283132
657,876.2945826903691
658,876.2734331574765
659,876.2531855745757
660,876.2338924976833
661,876.2156029482659
662,876.1983620964279
663,876.1822109717298
664,876.167186200854
665,876.1533197724252
666,876.1406388305885
667,876.1291654995388
668,876.1189167411916
669,876.1099042483906
670,876.1021343765852
671,876.0956081168237
672,876.0903211115399
673,876.0862637125042
674,876.0834210786553
675,876.0817733109691
676,876.0812956220019
677,876.0819585385578
678,876.0837281361256
679,876.0865663030082
680,876.0904310313388
681,876.0952767323053
682,876.1010545735207
683,876.1077128366218
684,876.1151972927146
685,876.1234515927782
686,876.1324176698631
687,876.1420361496411
688,876.1522467654104
689,876.1629887733978
690,876.174201364548
691,876.1858240698895
692,876.1977971574363
693,876.2100620188736
694,876.2225615438568
695,876.2352404788425
696,876.2480457663498
697,876.2609268600346
698,876.273836011405
699,876.2867285253428
700,876.2995629830313
701,876.3123014317138
702,876.3249095407689
703,876.3373567233235
704,876.3496162225346
705,876.3616651619154
706,876.373484559554
707,876.3850593066695
708,876.3963781116415
709,876.4074334113834
710,876.4182212527477
711,876.4287411472629
712,876.4389959024554
713,876.4489914324422
714,876.4587365501873
715,876.468242744226
716,876.4775239435232
717,876.4865962750278
718,876.4954778192489
719,876.5041883697492
720,876.5127492025824
721,876.5211828610176
722,876.5295129591418
723,876.5377640056302
724,876.5459612471607
725,876.5541305303163
726,876.562298180838
727,876.5704908988863
728,876.5787356685559
729,876.5870596800584
730,876.5954902637953
731,876.6040548358224
732,876.6127808530015
733,876.6216957739216
734,876.6308270198407
735,876.6402019293791
736,876.6498477011397
737,876.6597913191257
738,876.6700594566511
739,876.6806783556818
740,876.6916736802583
741,876.7030703446386
742,876.7148923189369
743,876.7271624171167
744,876.739902073995
745,876.7531311192303
746,876.7668675568442
747,876.7811273582716
748,876.7959242751695
749,876.8112696759225
750,876.8271724079792
751,876.8436386875163
752,876.8606720182767
753,876.8782731418818
754,876.8964400219745
755,876.9151678644499
756,876.9344491760307
757,876.9542738630594
758,876.9746293712317
759,876.9955008656286
760,877.0168714494954
761,877.038722419668
762,877.0610335558181
763,877.083783439542
764,877.1069497978306
765,877.1305098637209
766,877.1544407448957
767,877.1787197889563
768,877.2033249328518
769,877.228235024212
770,877.2534301039276
771,877.2788916416478
772,877.3046027184284
773,877.3305481531218
774,877.3567145707678
775,877.3830904122169
776,877.4096658851096
777,877.4364328578172
778,877.4633847002698
779,877.4905160785125
780,877.5178227125829
781,877.5453011090343
782,877.5729482796847
783,877.600761456972
784,877.6287378140514
785,877.6568741950002
786,877.6851668574208
787,877.7136112264474
788,877.7422016565127
789,877.7709311966092
790,877.7997913564694
791,877.8287718734847
792,877.8578604814417
793,877.8870426821801
794,877.9163015215013
795,877.9456173722201
796,877.9749677298847
797,878.0043270291254
798,878.0336664897087
799,878.0629540008113
800,878.0921540501919
801,878.1212277026128
802,878.150132629744
803,878.1788231922034
804,878.2072505736539
805,878.235362967185
806,878.2631058151544
807,878.2904221042203
808,878.3172527166229
809,878.3435368371254
810,878.369212413164
811,878.3942166641655
812,878.4184866346933
813,878.4419597852889
814,878.4645746148669
815,878.4862713088077
816,878.5069924065266
817,878.5266834808896
818,878.5452938198855
819,878.5627770992756
820,878.5790920340029
821,878.5942029961338
822,878.608080587857
823,878.6207021594086
824,878.6320522635854
825,878.6421230403834
826,878.6509145268772
827,878.658434888711
828,878.6647005708162
829,878.669736366374
830,878.6735754043174
831,878.6762590561373
832,878.6778367618698
833,878.6783657732698
834,878.6779108107171
835,878.6765436308268
836,878.6743425041873
837,878.6713916060224
838,878.6677803257232
839,878.6636025035965
840,878.6589556046875
841,878.6539398402623
842,878.648657247984
843,878.6432107423111
844,878.6377031469374
845,878.6322362209984
846,878.6269096906589
847,878.6218202979782
848,878.617060879587
849,878.6127194881963
850,878.6088785695991
851,878.6056142061093
852,878.6029954344594
853,878.601083642964
854,878.5999320501024
855,878.5995852649894
856,878.6000789292124
857,878.6014394388642
858,878.6036837453822
859,878.6068192341886
860,878.6108436807102
861,878.6157452834959
862,878.6215027738878
863,878.6280856017319
864,878.635454197228
865,878.6435603096005
866,878.6523474231229
867,878.661751250143
868,878.6717002996286
869,878.6821165183986
870,878.6929160001117
871,878.7040097541357
872,878.7153045234087
873,878.7267036383532
874,878.7381078932115
875,878.7494164316774
876,878.7605276302229
877,878.7713399698297
878,878.781752889369
879,878.7916676157256
880,878.800987966438
881,878.8096211204538
882,878.817478352344
883,878.8244757254845
884,878.8305347402849
885,878.8355829341829
886,878.8395544305881
887,878.8423904343915
888,878.844039672317
889,878.844458776943
890,878.8436126129518
891,878.8414745430765
892,878.8380266302885
893,878.8332597729138
894,878.8271737706327
895,878.8197773206792
896,878.8110879440251
897,878.8011318409797
898,878.7899436752705
899,878.7775662855689
900,878.7640503233512
901,878.7494538162007
902,878.7338416568978
903,878.7172850209249
904,878.699860717491
905,878.6816504809258
906,878.6627402100702
907,878.6432191635538
908,878.6231791193329
909,878.6027135079817
910,878.5819165307864
911,878.5608822750861
912,878.5397038398197
913,878.5184724835652
914,878.4972768058376
915,878.4762019706379
916,878.4553289793256
917,878.4347339977533
