acceleration,velocity,displacement
-0.006713403682588101,0.0,0.0
-0.006883832939239424,-3.3993091554568816e-06,-8.498272888642204e-10
-0.007048836098127608,-6.882476414798639e-06,-3.4202736814281005e-09
-0.007207987145220405,-1.0446682225635642e-05,-7.75256334153667e-09
-0.007360874394734169,-1.4088897610624285e-05,-1.3886458300601653e-08
-0.007507106367188109,-1.7805892801104856e-05,-2.1860155903533938e-08
-0.007646318320828549,-2.159424897310902e-05,-3.171019134708741e-08
-0.0077781791693757275,-2.5450373345660087e-05,-4.347134692677969e-08
-0.007902398534876953,-2.9370517771723257e-05,-5.7176569706125524e-08
-0.008018733700318005,-3.3350800830522e-05,-7.285689935668684e-08
-0.008126996234803643,-3.738723331430241e-05,-9.054140789289294e-08
-0.008227058070576918,-4.147574689064755e-05,-1.1025715294413043e-07
-0.008318856820364371,-4.561222561338287e-05,-1.3202914607013803e-07
-0.00840240013318494,-4.97925398517702e-05,-1.558803374364263e-07
-0.008477768900634838,-5.4012582110225145e-05,-1.8183161792692514e-07
-0.008545119155199886,-5.826830412418383e-05,-2.0990183948552738e-07
-0.008604682554068809,-6.2555754551501e-05,-2.4010785415444856e-07
-0.008656765407017365,-6.687111654177255e-05,-2.7246457192776694e-07
-0.008701746265090387,-7.121074445979949e-05,-3.0698503717815995e-07
-0.008740072124827214,-7.557119905727889e-05,-3.4368052305742953e-07
-0.008772253326387515,-7.994928042008257e-05,-3.825606429267699e-07
-0.008798857247143332,-8.434205806346528e-05,-4.2363347754765683e-07
-0.00882050091760591,-8.874689760465259e-05,-4.669057164646863e-07
-0.008837842697524337,-9.316148350843515e-05,-5.123828117429583e-07
-0.00885157312818201,-9.758383746486174e-05,-5.600691419862825e-07
-0.008862405025984664,-0.00010201233200340342,-6.099681843533489e-07
-0.008871062832378387,-0.00010644569896799418,-6.620826920961983e-07
-0.00887827121889044,-0.00011088303248081138,-7.164148749583997e-07
-0.008884742980044383,-0.00011532378603054509,-7.729665795862388e-07
-0.008891166326707826,-0.00011976776335723314,-8.317394669331833e-07
-0.00889819179394358,-0.000124215102887396,-8.927351834943406e-07
-0.008906419065123752,-0.00012866625560216285,-9.559555231167302e-07
-0.008916384063455995,-0.00013312195638430778,-1.021402576113348e-06
-0.00892854666961121,-0.00013758318906757457,-1.0890788624763185e-06
-0.008943279402398356,-0.00014205114558557696,-1.1589874461396063e-06
-0.008960857371436667,-0.0001465271797790357,-1.2311320274807596e-06
-0.008981449795915055,-0.00015101275657087364,-1.305517011568237e-06
-0.009005113376853748,-0.00015550939736406585,-1.3821475500519718e-06
-0.009031787788442876,-0.00016001862265539,-1.4610295550568357e-06
-0.009061293499288579,-0.00016454189297732287,-1.542169683965014e-06
-0.00909333204392812,-0.00016908054936312704,-1.6255752945501264e-06
-0.009127488746093112,-0.00017363575456063235,-1.7112543705310663e-06
-0.009163237769416395,-0.00017820843618950974,-1.7992154182186017e-06
-0.009199949269448145,-0.00018279923294922586,-1.8894673355032857e-06
-0.009236898361106237,-0.00018740844485686447,-1.982019254954808e-06
-0.009273275588240752,-0.00019203598834420123,-2.0768803632550746e-06
-0.009308198567825835,-0.00019668135688321787,-2.1740596995619294e-06
-0.00934072447406583,-0.00020134358764369077,-2.2735659356936564e-06
-0.009369863031645482,-0.0002060212345201186,-2.3754071412346088e-06
-0.009394589704206893,-0.0002107123477040817,-2.479590536790659e-06
-0.009413858790183296,-0.00021541445982767925,-2.5861222386735992e-06
-0.009426616176358042,-0.0002201245785693146,-2.6950069982728477e-06
-0.009431811561141909,-0.0002248391855036896,-2.806247939291099e-06
-0.0094284100474897,-0.0002295542409058475,-2.9198462958934833e-06
-0.009415403103800391,-0.00023426519419367,-3.0358011546683627e-06
-0.009391818972443835,-0.00023896699971273107,-3.154109203144963e-06
-0.009356732642547329,-0.00024365413761647886,-3.2747644874772654e-06
-0.009309275484380364,-0.00024832063964821076,-3.397758181793438e-06
-0.009248644583509694,-0.0002529601196651833,-3.5230783716217863e-06
-0.00917411174965187,-0.0002575658087484737,-3.6507098537252005e-06
-0.009085032136102815,-0.0002621305947199124,-3.780633954592297e-06
-0.008980852394040539,-0.00026664706585244823,-3.912828369735387e-06
-0.008861118287717617,-0.00027110755852288775,-4.047267025829221e-06
-0.008725481692448156,-0.0002755042085179292,-4.183919967589426e-06
-0.00857370686981577,-0.0002798290056584952,-4.322753271133532e-06
-0.00840567586100474,-0.0002840738513412003,-4.463728985383456e-06
-0.008221392787890133,-0.00028823061850342404,-4.606805102844612e-06
-0.008020986839680057,-0.00029229121341031657,-4.751935560823047e-06
-0.00780471375699139,-0.00029624763855948445,-4.899070273815497e-06
-0.0075729556782475945,-0.0003000920559182942,-5.048155197434942e-06
-0.00732621925987621,-0.00030381684965282514,-5.199132423827723e-06
-0.007065132019655939,-0.0003074146874727082,-5.351940308109106e-06
-0.006790436888557422,-0.00031087857969976156,-5.506513624902223e-06
-0.00650298499115045,-0.00031420193516968855,-5.662783753619585e-06
-0.006203726706903752,-0.0003173786130942021,-5.8206788906855574e-06
-0.005893701102456277,-0.0003204029700465421,-5.9801242864707436e-06
-0.0055740238750121495,-0.0003232699012909092,-6.1410425043051065e-06
-0.005245874004110232,-0.0003259748757606898,-6.303353698568006e-06
-0.004910479369115445,-0.00032851396410399624,-6.4669759085341775e-06
-0.004569101661783991,-0.0003308838593617211,-6.631825364400607e-06
-0.00422302101043009,-0.0003330818900297746,-6.7978168017484805e-06
-0.003873520809092162,-0.00033510602548465513,-6.964863780627088e-06
-0.00352187326550843,-0.00033695487400330526,-7.132879005499078e-06
-0.003169326111994153,-0.0003386276738476809,-7.301774642461824e-06
-0.002817090778328171,-0.0003401242780702615,-7.47146263044131e-06
-0.00246633216451754,-0.00034144513380597293,-7.64185498341037e-06
-0.0021181600266844446,-0.00034259125685377344,-7.812864081075306e-06
-0.001773621913949857,-0.000343564202338932,-7.984402945873483e-06
-0.001433697557570324,-0.00034436603220681206,-8.15638550450992e-06
-0.0010992946084748888,-0.0003449992802483234,-8.328726832623704e-06
-0.0007712456402351329,-0.0003454669153105009,-8.50134338151341e-06
-0.0004503063713036901,-0.0003457723033133856,-8.67415318616938e-06
-0.00013715510455042504,-0.0003459191686823491,-8.847076054168314e-06
0.00016760657228422163,-0.0003459115558154156,-9.020033735292756e-06
0.00046345175677671777,-0.0003457537912331504,-9.192950072054897e-06
0.0007499248344982087,-0.00034545044708533167,-9.365751131634518e-06
0.0010266367660131301,-0.00034500630668520384,-9.538365320077152e-06
0.0012932592233766453,-0.0003444263326878564,-9.710723479920416e-06
0.0015495178409483407,-0.0003437156384217751,-9.882758972697823e-06
0.0017951849116926405,-0.00034287946273361486,-1.0054407747986671e-05
0.0020300718762217887,-0.0003419231485366363,-1.0225608400804235e-05
0.0022540219145774456,-0.0003408521250889365,-1.0396302219210629e-05
0.002466902888132218,-0.0003396718938882591,-1.0566433223954928e-05
0.0026686008264757304,-0.0003383880179596071,-1.0735948201916894e-05
0.002859014121015898,-0.00033700611422273424,-1.0904796734962479e-05
0.0030380485656165573,-0.0003355318485510761,-1.1072931225655932e-05
0.00320561337616684,-0.00033397093306563024,-1.1240306921060108e-05
0.0033616183289523517,-0.00033232912513935046,-1.1406881935611352e-05
0.0035059721696387223,-0.0003306122275147027,-1.1572617273774865e-05
0.0036385824425357195,-0.0003288260888616591,-1.1737476852868955e-05
0.0037593568618681434,-0.0003269766040355581,-1.190142752609326e-05
0.003868206282455937,-0.0003250697132494771,-1.2064439105414518e-05
0.003965049226636369,-0.00032311139937220404,-1.222648438356994e-05
0.0040498178105642935,-0.00032110768261290386,-1.2387539154066216e-05
0.004122464813594152,-0.00031906461195686423,-1.2547582227708657e-05
0.004182971562261995,-0.0003169882528629002,-1.2706595443913599e-05
0.004231356262551645,-0.00031488467090669676,-1.2864563674855999e-05
0.004267682413387054,-0.0003127599112377121,-1.30214748203921e-05
0.004292066952548615,-0.0003106199738962282,-1.3177319791675585e-05
0.004304687798924199,-0.00030847078520836,-1.3332092481451732e-05
0.004305790463205318,-0.0003063181656428276,-1.3485789719164529e-05
0.004295693428662816,-0.00030416779466986056,-1.3638411209242701e-05
0.0042747920680860155,-0.00030202517329567337,-1.3789959451234085e-05
0.004243560947271767,-0.00029989558504183394,-1.3940439640818461e-05
0.004202554444731907,-0.000297784056193833,-1.4089859551127378e-05
0.0041524056801259986,-0.0002956953161626185,-1.423822939421649e-05
0.004093823793629674,-0.0002936337587941796,-1.438556166295569e-05
0.004027589664270488,-0.00029160340542970454,-1.453187095401166e-05
0.003954550199115212,-0.0002896078704638581,-1.4677173772985051e-05
0.003875611351710067,-0.00028765033007615177,-1.4821488323120053e-05
0.0037917300221486285,-0.0002857334947326871,-1.4964834279322263e-05
0.003703904967766922,-0.0002838595859852082,-1.5107232549501736e-05
0.003613166850485498,-0.00028203031803064507,-1.5248705025505699e-05
0.0035205675811517422,-0.00028024688442273573,-1.5389274326119046e-05
0.0034271691703813135,-0.0002785099502348525,-1.5528963534783442e-05
0.0033340323288593775,-0.0002768196498600423,-1.5667795934807166e-05
0.0032422050713458365,-0.00027517559050999096,-1.5805794744899673e-05
0.0031527115743847306,-0.0002735768613485583,-1.594298285786431e-05
0.0030665415148370513,-0.0002720220480762529,-1.6079382585220513e-05
0.0029846400724584466,-0.000270509252679429,-1.6215015410409432e-05
0.0029078987245683215,-0.00026903611798017235,-1.6349901753074334e-05
0.002837146901742823,-0.00026759985657359454,-1.6484060746712775e-05
0.0027731445055457,-0.0002661972837217724,-1.6617510031786618e-05
0.0027165752174166226,-0.00026482485379103184,-1.675026556616482e-05
0.0026680404781584937,-0.0002634786998671381,-1.6882341454579362e-05
0.0026280540156749183,-0.0002621546762436797,-1.7013749798607068e-05
0.002597036843307293,-0.00026084840352893417,-1.714450056855022e-05
0.002575312718198283,-0.0002595553161385578,-1.7274601498467094e-05
0.002563104121525114,-0.00025827071192862695,-1.740405800548389e-05
0.0025605289017637547,-0.00025698980367280474,-1.753287313438425e-05
0.0025675978065720895,-0.0002557077719957208,-1.7661047528301382e-05
0.0025842131903766963,-0.0002544198192464836,-1.7788579426111932e-05
0.0026101691829409695,-0.0002531212236531542,-1.791546468683684e-05
0.0026451535264998553,-0.000251807392975794,-1.804169684099408e-05
0.0026887511647573064,-0.0002504739168029797,-1.8167267168438774e-05
0.0027404495432909277,-0.00024911661662596764,-1.829216480179601e-05
0.002799645494013628,-0.0002477315928666415,-1.8416376854169162e-05
0.002865653536512986,-0.00024631526810900986,-1.8539888569413076e-05
0.0029377154164204906,-0.0002448644258707765,-1.8662683492908022e-05
0.0030150106861086966,-0.0002433762443451442,-1.8784743660462002e-05
0.0030966681090838413,-0.00024184832464634607,-1.8906049802709874e-05
0.0031817776545593982,-0.00024027871320543527,-1.902658156217282e-05
0.0032694028543606935,-0.00023866591807820525,-1.914631771999373e-05
0.00335859330319775,-0.00023700891903881565,-1.9265236429272986e-05
0.0034483970692111604,-0.00023530717144571342,-1.938331545189412e-05
0.003537872747143784,-0.00023356060399162468,-1.9500532395753453e-05
0.0036261008670091604,-0.00023176961058808644,-1.961686494939838e-05
0.0037121944012423833,-0.00022993503677102355,-1.9732291111238156e-05
0.003795308186424538,-0.00022805816112410682,-1.984678941071194e-05
0.0038746471494315415,-0.0002261406722901428,-1.99603391190655e-05
0.003949473268860171,-0.00022418464218556988,-2.0072920447684428e-05
0.004019111213941279,-0.0002221924960648695,-2.0184514732247038e-05
0.004082952611363805,-0.00022016698010854323,-2.0295104601290392e-05
0.004140458920265941,-0.0002181111272256358,-2.040467412812394e-05
0.004191162949460064,-0.00021602822175820427,-2.0513208965369898e-05
0.004234669105476083,-0.00021392176374447023,-2.0620696461745567e-05
0.004270652494005819,-0.00021179543334459976,-2.0727125761017834e-05
0.004298857019097632,-0.0002096530559663239,-2.0832487883345563e-05
0.004319092656628871,-0.0002074985685473923,-2.0936775789473993e-05
0.004331232121307403,-0.00020533598735290824,-2.103998442844907e-05
0.004335207175099468,-0.0002031693775288065,-2.1142110769669497e-05
0.004331004823871745,-0.00020100282452906372,-2.1243153820183966e-05
0.0043186636272283824,-0.00019884040741628868,-2.1343114628170304e-05
0.004298270314711205,-0.0001966861739308038,-2.1441996273507076e-05
0.004269956859174952,-0.00019454411713733225,-2.153980384627411e-05
0.004233898108724135,-0.00019241815339535748,-2.163654441390728e-05
0.004190310030972238,-0.00019031210136043338,-2.1732226977596228e-05
0.004139448573996876,-0.0001882296617091911,-2.1826862418363635e-05
0.0040816090861869785,-0.00018617439729414512,-2.1920463433114468e-05
0.004017126168526331,-0.00018414971348046678,-2.201304446080812e-05
0.003946373780539351,-0.00018215883849320036,-2.2104621598801535e-05
0.0038697653952427316,-0.00018020480369925482,-2.219521250934965e-05
0.0037877539888047456,-0.00017829042385324295,-2.2284836316237775e-05
0.0037008316498071243,-0.00017641827744358998,-2.2373513491561982e-05
0.0036095286063096096,-0.0001745906873795608,-2.246126573276777e-05
0.0035144115017818256,-0.00017280970235253792,-2.2548115830200796e-05
0.0034160808001343647,-0.00017107707927705888,-2.2634087525608194e-05
0.0033151672582775837,-0.00016939426726245588,-2.2719205362243074e-05
0.0032123274609361084,-0.00016776239358265246,-2.280349452745435e-05
0.0031082384507170324,-0.00016618225210473917,-2.28869806888762e-05
0.0030035914976536036,-0.00016465429461764652,-2.2969689825556797e-05
0.002899085051352155,-0.0001631786254803951,-2.305164805558131e-05
0.0027954169268536366,-0.00016175499998584363,-2.3132881461947868e-05
0.0026932757952769573,-0.00016038282680531097,-2.3213415918645658e-05
0.0025933320763765573,-0.0001590611748373976,-2.3293276919056335e-05
0.002496228363865094,-0.0001577887847273372,-2.337248940894752e-05
0.0024025695514086104,-0.00015656408524851876,-2.3451077626441485e-05
0.002312912854545083,-0.00015538521464703034,-2.352906495141537e-05
0.002227757941232393,-0.00015425004694808597,-2.360647376681415e-05
0.0021475374022683017,-0.0001531562231122108,-2.3683325334329226e-05
0.0020726078082178574,-0.00015210118680958925,-2.3759639686809678e-05
0.002003241592592852,-0.00015108222445938657,-2.383543553962692e-05
0.0019396199670375523,-0.00015009650906947896,-2.3910730223009138e-05
0.001881827033818129,-0.00014914114731926504,-2.3985539637106324e-05
0.0018298452367552691,-0.00014821322925162169,-2.4059878231249044e-05
0.001783552286294626,-0.0001473098798708592,-2.4133759008529663e-05
0.0017427196936054493,-0.00014642831187588418,-2.420719355646635e-05
0.0017070130344958442,-0.00014556587869385886,-2.4280192104108786e-05
0.001675994025506837,-0.0001447201269288582,-2.4352763605514466e-05
0.001649124434881925,-0.000143888847313761,-2.442491584907512e-05
0.0016257717867735827,-0.00014307012325834713,-2.4496655591718148e-05
0.0016052167663167614,-0.00014226237612007455,-2.4567988716562755e-05
0.0015866622000489615,-0.0001414644063784831,-2.4638920412187395e-05
0.0015692434545346023,-0.00014067542996483722,-2.4709455371273224e-05
0.0015520400509452293,-0.00013989510908846725,-2.477959800603655e-05
0.0015340882461849818,-0.0001391235770141847,-2.4849352677562212e-05
0.0015143943129814514,-0.0001383614563743931,-2.4918723935909355e-05
0.0014919482750765506,-0.0001376098707273786,-2.4987716767684796e-05
0.0014657378975472363,-0.00013687044918422265,-2.5056336847662697e-05
0.0014347627671200472,-0.00013614532401805583,-2.5124590790963265e-05
0.0013980483155584284,-0.0001354371212473862,-2.5192486402279624e-05
0.0013546596441866622,-0.00013474894425744995,-2.5260032918655834e-05
0.0013037149941247971,-0.00013408435059787208,-2.5327241242369664e-05
0.0012443986711603797,-0.00013344732218155078,-2.539412416056452e-05
0.0011759731918212478,-0.00013284222921580537,-2.546069654841386e-05
0.0010977903903047024,-0.00013227378832027389,-2.5526975552797882e-05
0.001009301227051816,-0.00013174701541593476,-2.5592980753731935e-05
0.0009100640702923299,-0.00013126717409159874,-2.5658734301108817e-05
0.0007997512755992854,-0.00013083972025512583,-2.5724261024695497e-05
0.0006781539501567931,-0.00013047024394868682,-2.578958851574645e-05
0.000545184842482055,-0.0001301644092505271,-2.5854747179046255e-05
0.00040087934488352103,-0.00012992789320368572,-2.591977025465981e-05
0.0002453946457129479,-0.0001297663247060366,-2.5984693809137238e-05
7.900712533916172e-05,-0.00012968522426327358,-2.6049556696379567e-05
-9.789184684774574e-05,-0.00012968994544365072,-2.6114400488806297e-05
-0.00028480149136646634,-0.00012978561877820429,-2.617926937986176e-05
-0.0004811183029733299,-0.00012997709872678923,-2.624421005923801e-05
-0.0006861435642457926,-0.00013026891419359402,-2.6309271562468105e-05
-0.0008990914455856879,-0.0001306652229460519,-2.6374505096753016e-05
-0.0011190974978970932,-0.0001311697701819226,-2.643996384503501e-05
-0.0013452273959060558,-0.00013178585140537338,-2.6505702750431833e-05
-0.0015764858439187381,-0.00013251627971532957,-2.657177828321201e-05
-0.0018118256080695086,-0.00013336335757832663,-2.6638248192535424e-05
-0.00205015668195362,-0.00013432885315083242,-2.6705171245217712e-05
-0.0022903556156640176,-0.00013541398122523683,-2.6772606953811728e-05
-0.002531275026876792,-0.00013661938888587203,-2.6840615296339504e-05
-0.002771753261543841,-0.0001379451459579772,-2.6909256430050465e-05
-0.003010624105400828,-0.00013939074029971336,-2.6978590401614887e-05
-0.003246726400333855,-0.00014095507792614702,-2.7048676856171354e-05
-0.0034789134012540683,-0.000142636487876544,-2.7119574747622026e-05
-0.0037060617081484744,-0.00014443273165389464,-2.7191342052504635e-05
-0.003927079620150769,-0.00014634101698596946,-2.72640354896646e-05
-0.004140914791606131,-0.00014835801558890868,-2.733771024780832e-05
-0.004346561129380598,-0.00015047988456915536,-2.7412419722847835e-05
-0.00454306494545718,-0.0001527022910878648,-2.748821526676209e-05
-0.004729530446290147,-0.00015502043993580165,-2.7565145949518006e-05
-0.00490512467646829,-0.00015742910371649126,-2.764325833543108e-05
-0.005069082030076497,-0.00015992265539312747,-2.7722596275208486e-05
-0.005220708416931129,-0.0001624951030048794,-2.780320071480799e-05
-0.005359385154992724,-0.00016514012639786034,-2.7885109522158674e-05
-0.00548457266314402,-0.00016785111585239452,-2.7968357332721237e-05
-0.005595814022115805,-0.00017062121252370946,-2.8052975414815262e-05
-0.005692738432023581,-0.00017344335063724432,-2.81389915556055e-05
-0.005775064532123116,-0.000176310301378281,-2.8226429968609383e-05
-0.005842603485146752,-0.00017921471838259847,-2.8315311223549603e-05
-0.005895261675977905,-0.00018214918467287963,-2.8405652199313473e-05
-0.005933042839876848,-0.00018510626080184332,-2.8497466060682155e-05
-0.005956049426676515,-0.00018807853386848167,-2.8590762259349735e-05
-0.005964483017507058,-0.00019105866697952757,-2.8685546559561736e-05
-0.005958643619841799,-0.0001940394486388648,-2.8781821088466334e-05
-0.005938927667068914,-0.00019701384146059248,-2.8879584410991198e-05
-0.0059058245518860165,-0.0001999750295153312,-2.8978831628735178e-05
-0.00585991154499557,-0.00020291646353955158,-2.90795545019989e-05
-0.005801847005005608,-0.00020583190317705188,-2.918174159367805e-05
-0.005732361877004583,-0.00020871545539755443,-2.9285378433321702e-05
-0.00565224959218699,-0.00021156160826485233,-2.9390447699237303e-05
-0.005562354591801408,-0.00021436525931084943,-2.949692941613123e-05
-0.005463559780997636,-0.0002171217379040492,-2.9604801165434955e-05
-0.005356773260175669,-0.00021982682116434253,-2.9714038305202052e-05
-0.005242914689410126,-0.00022247674315173897,-2.9824614196281072e-05
