frame_number,force
0,641.2533600000269
1,640.9710485331867
2,640.7002938545298
3,640.451512102482
4,640.2330291438276
5,640.0504671275404
6,639.9065395361112
7,639.8012483965847
8,639.732405749352
9,639.696344273134
10,639.6886489482862
11,639.7047480030947
12,639.7402529129873
13,639.7910168182443
14,639.8529637949747
15,639.92181221839
16,639.9928549270071
17,640.0609419304861
18,640.1207360963315
19,640.167213179708
20,640.1962983927383
21,640.2054953693878
22,640.1943682963503
23,640.1647714619288
24,640.1207711987116
25,640.0682617072797
26,640.0143228627775
27,639.9663989482658
28,639.9314043307247
29,639.9148901576935
30,639.9204149404885
31,639.9492308920408
32,640.0003322603686
33,640.0708334001914
34,640.156574374328
35,640.2528095687483
36,640.3548340618154
37,640.4584420989285
38,640.5601745721639
39,640.6573748328394
40,640.7481154452088
41,640.8310729671438
42,640.905415953725
43,640.9707430985783
44,641.0270722584331
45,641.0748443951057
46,641.1148843449191
47,641.1482719832921
48,641.1761233416852
49,641.1993324018999
50,641.2183481447832
51,641.2330544789824
52,641.242799604725
53,641.246591973895
54,641.2434363392401
55,641.2327330663605
56,641.214634192278
57,641.190262550017
58,641.1617478990834
59,641.13208498827
60,641.1048473752237
61,641.083798703489
62,641.0724484528098
63,641.0736125374051
64,641.0890514119353
65,641.119253600914
66,641.1634057387648
67,641.2195490017021
68,641.2848804377552
69,641.356131424169
70,641.4299500095268
71,641.5032201329856
72,641.5732600489486
73,641.63786321567
74,641.6951928541175
75,641.7436095432508
76,641.7815594075336
77,641.8076358710346
78,641.8208498278343
79,641.8210454497598
80,641.8093296797268
81,641.788364497966
82,641.7623998698643
83,641.7369873524455
84,641.7183932371139
85,641.7128082940206
86,641.725503081475
87,641.7600817850979
88,641.8179505370957
89,641.898067989517
90,641.9970056559197
91,642.10930622707
92,642.2280807648642
93,642.3457459983143
94,642.4547954077635
95,642.5485223714173
96,642.6216471057925
97,642.6708185023608
98,642.6949569844496
99,642.695384939868
100,642.6756855280057
101,642.6412613443986
102,642.5986265076982
103,642.5545340735848
104,642.5150891421602
105,642.485007367925
106,642.4671408943095
107,642.4623213532062
108,642.4694932560463
109,642.4860610307902
110,642.5083613736267
111,642.532190925812
112,642.5533453848248
113,642.568137497667
114,642.5738509422148
115,642.5690695841071
116,642.5538200013566
117,642.5294896110212
118,642.4985252981797
119,642.4639637134279
120,642.4288804316071
121,642.395858588388
122,642.366567170314
123,642.3415176868397
124,642.3200419135128
125,642.3004919308978
126,642.2806046001306
127,642.2579233181945
128,642.2301640326673
129,642.1954541878744
130,642.1524365572865
131,642.1002849777789
132,642.0387056373129
133,641.9679843833622
134,641.8890935599259
135,641.8038195016181
136,641.7148442496058
137,641.6257210946247
138,641.5407111823139
139,641.4644815616124
140,641.4016958304563
141,641.3565538582196
142,641.3323491292263
143,641.3311040686523
144,641.3533228806189
145,641.3978840495499
146,641.462085194777
147,641.5418409237307
148,641.6320118783427
149,641.7268180945721
150,641.8202766655678
151,641.9066095737986
152,641.9805898367479
153,642.0378216638775
154,642.0749677990999
155,642.0899393788568
156,642.0820572485907
157,642.0521809082542
158,642.0027791645299
159,641.9378946890216
160,641.8629535424533
161,641.7843988169753
162,641.7091684340984
163,641.6440646754188
164,641.5950715624422
165,641.5666860654698
166,641.5613523875797
167,641.5791057491277
168,641.6175168914606
169,641.6719779397599
170,641.7363019306513
171,641.8035450770278
172,641.8669198346087
173,641.9206543040648
174,641.9606705234628
175,641.9849984954067
176,641.9938986935587
177,641.9897093435388
178,641.9764566965001
179,641.959278406412
180,641.9437268964167
181,641.935042505699
182,641.9374993376676
183,641.9539098822855
184,641.9853274406748
185,642.0309350757359
186,642.0880862817526
187,642.1524745610611
188,642.2184398775047
189,642.2794352672224
190,642.3286492876395
191,642.3597196368871
192,642.3674238503351
193,642.3482297524591
194,642.3006302187124
195,642.2252471375962
196,642.1247381422721
197,642.0035584175957
198,641.8676224611676
199,641.7238961383662
200,641.579939326658
201,641.4434114937454
202,641.3215475276331
203,641.2206196554004
204,641.1454265634007
205,641.0988777781616
206,641.0817493877483
207,641.0926684150837
208,641.1283462860845
209,641.1840401915072
210,641.2541804715229
211,641.3330653146688
212,641.4155035026515
213,641.4972978431879
214,641.5755054447949
215,641.6484636883915
216,641.7156104184857
217,641.7771522200383
218,641.8336574051705
219,641.8856700894543
220,641.9334389137955
221,641.9768119176028
222,642.0152813565181
223,642.0481098570915
224,642.0744609997253
225,642.0934838458172
226,642.1043395234052
227,642.1061990519606
228,642.0982722171545
229,642.0799237678135
230,642.0508920073372
231,642.0115734839627
232,641.963303132655
233,641.9085504849521
234,641.8509677393745
235,641.7952538084854
236,641.7468222857365
237,641.7112774150835
238,641.6937292070137
239,641.6980268187451
240,641.7260363075784
241,641.7771057773197
242,641.8478420993868
243,641.9322757302397
244,642.0224172550578
245,642.1091244251347
246,642.1831316633856
247,642.2360739631318
248,642.2613700394731
249,642.2548897784839
250,642.2153750739568
251,642.1445886450877
252,642.0471535907683
253,641.930059157749
254,641.8018660680443
255,641.671724586772
256,641.5483693619221
257,641.4392453770389
258,641.3498666641772
259,641.2834537825952
260,641.2408542606456
261,641.2207125711202
262,641.2198210097894
263,641.2335681879773
264,641.256418259814
265,641.2823883149673
266,641.3055229437446
267,641.3203768400929
268,641.322496566574
269,641.3088506812373
270,641.2781300813372
271,641.2308584162173
272,641.1693055231736
273,641.0972455044753
274,641.0196181995661
275,640.942142498763
276,640.8709100810655
277,640.8119706870511
278,640.7709099557366
279,640.7524229901337
280,640.7599054244207
281,640.7951126318512
282,640.8579565254641
283,640.9464987416304
284,641.0571561310207
285,641.1850750216059
286,641.3245845132179
287,641.4696348477484
288,641.6141638751969
289,641.7523796036696
290,641.8789704128568
291,641.989256998044
292,642.079299024458
293,642.1459762739704
294,642.1870734672402
295,642.2013937652924
296,642.1888987103446
297,642.1508317940913
298,642.0897541755652
299,642.0094285792928
300,641.9145340992973
301,641.810255631508
302,641.701833088341
303,641.594160412722
304,641.4914985655025
305,641.3973263623535
306,641.3143133355763
307,641.244370941003
308,641.1887294109694
309,641.1479973470721
310,641.1221833751281
311,641.110686362871
312,641.1122851281757
313,641.1251695904097
314,641.1470447864104
315,641.175311882738
316,641.2073025980052
317,641.2405287721874
318,641.2729073956922
319,641.3029255867282
320,641.3297179358341
321,641.3530453107555
322,641.3731863910857
323,641.3907668157264
324,641.4065513074934
325,641.421224251406
326,641.4351938780047
327,641.4484665337989
328,641.4606333393664
329,641.470981723527
330,641.4786967285797
331,641.4830768711378
332,641.4836832625101
333,641.4803750527881
334,641.4732388610082
335,641.4624633585636
336,641.4482226291773
337,641.4306159184404
338,641.4096851971359
339,641.3855094259641
340,641.3583530321135
341,641.3288229374908
342,641.2979790168923
343,641.2673647656272
344,641.2389666717281
345,641.215136142021
346,641.1984946749446
347,641.1918082041274
348,641.1977999441256
349,641.2188931913998
350,641.2569133921203
351,641.3127935898941
352,641.3863136231432
353,641.4758907457749
354,641.5784470393676
355,641.6893946069849
356,641.8027822882765
357,641.9116296893186
358,642.0084402123749
359,642.0858474487701
360,642.137324227679
361,642.1578762240252
362,642.1446435029117
363,642.097334183504
364,642.0184189703228
365,641.9130369694226
366,641.7886058421549
367,641.6541804912761
368,641.5196455101515
369,641.3948448877821
370,641.2887479420032
371,641.2087345021778
372,641.1600637278262
373,641.1455659337538
374,641.1655637489114
375,641.2180024428465
376,641.2987613546264
377,641.4021153937879
378,641.5212987668948
379,641.6491038191289
380,641.7784504445492
381,641.9028814731126
382,642.0169547759831
383,642.1165105695763
384,642.1988035273206
385,642.2625055232963
386,642.3076007597099
387,642.335207476246
388,642.3473637025002
389,642.3468007062522
390,642.3367033580396
391,642.320445724273
392,642.3013063489149
393,642.2821942894556
394,642.265428907614
395,642.252605109425
396,642.2445473193768
397,642.2413256234454
398,642.2422984108605
399,642.2461672661017
400,642.251063258015
401,642.2546969978447
402,642.2545836315777
403,642.2483168432618
404,642.2338460614894
405,642.2097208223072
406,642.1752861455855
407,642.130818675801
408,642.0775847865145
409,642.0177969708504
410,641.9544571147684
411,641.8911013527148
412,641.831484469804
413,641.7792468403251
414,641.7375954889166
415,641.7090192681336
416,641.6950563346622
417,641.6961326473154
418,641.7114808569453
419,641.739133326977
420,641.7759811153821
421,641.817913183357
422,641.8600789129528
423,641.8973179319888
424,641.9247542987739
425,641.9384766349617
426,641.9361709181044
427,641.91756959074
428,641.8846170538014
429,641.8413023023584
430,641.7931653238652
431,641.7465407126435
432,641.7076490248346
433,641.6816750536035
434,641.6719818803658
435,641.6796022727727
436,641.7031190457653
437,641.7389812895667
438,641.7822089664841
439,641.8273473822969
440,641.8694781036285
441,641.9050831438027
442,641.9325924471037
443,641.9525155289556
444,641.9671492961678
445,641.9799415304881
446,641.9946548203798
447,642.0145037282905
448,642.0414207113434
449,642.075559921645
450,642.115103050046
451,642.1563972716538
452,642.194416616602
453,642.2234865224883
454,642.2381588718227
455,642.2340877858641
456,642.2087459618768
457,642.1618447660628
458,642.0953777331518
459,642.0132816238931
460,641.9207809962084
461,641.8235398020937
462,641.7267836127039
463,641.6345703586405
464,641.549361569019
465,641.4719741602763
466,641.4018909537057
467,641.3378130044443
468,641.2782847162491
469,641.2222269421852
470,641.169264367942
471,641.1198099122842
472,641.0749409440128
473,641.0361411164133
474,641.0049801607387
475,640.9827825523863
476,640.9703197777916
477,640.9675558701956
478,640.9734772425053
479,640.9860448338434
480,641.0023075330029
481,641.0186855316367
482,641.0313732498468
483,641.0367692562319
484,641.0318480266503
485,641.0144257936149
486,640.9833064602976
487,640.9383156833685
488,640.8802424097746
489,640.8107020112694
490,640.7319230132246
491,640.6464658686546
492,640.556914091769
493,640.4656067805645
494,640.3744740509484
495,640.2849933093448
496,640.1982370367998
497,640.1149627511008
498,640.0357062226155
499,639.9608610572512
500,639.890742954177
501,639.8256405212203
502,639.7658529082314
503,639.7117126690152
504,639.6635880162974
505,639.621853198568
506,639.5868182783323
507,639.5586246926755
508,639.5371341028953
509,639.5218540684396
510,639.5119442834211
511,639.506325875448
512,639.5038802337812
513,639.5036906247545
514,639.5052655081523
515,639.5086894966497
516,639.514666490594
517,639.5244410788118
518,639.5396088645945
519,639.5618530952505
520,639.5926629224749
521,639.633084867782
522,639.6835349348818
523,639.7436746888758
524,639.8123511777824
525,639.8876120510702
526,639.9668072536185
527,640.0467680936074
528,640.1240338583195
529,640.1950944075727
530,640.2566288745895
531,640.3057287122641
532,640.34008739462
533,640.3581222968596
534,640.3589858909826
535,640.342447629183
536,640.3086852247116
537,640.2580777403155
538,640.1911010694118
539,640.1083853782849
540,640.0109333186368
541,639.9004428401638
542,639.7796411759705
543,639.6525261549684
544,639.5244298575664
545,639.4018576588072
546,639.2920978824035
547,639.202633927679
548,639.1404222578443
549,639.1111304442555
550,639.1184535226288
551,639.1636273424017
552,639.2452251962648
553,639.3592678352994
554,639.4996144588727
555,639.6585502316412
556,639.827460687543
557,639.9974932690415
558,640.1601400325934
559,640.3077120211647
560,640.4337050392767
561,640.5330810148835
562,640.602504295523
563,640.6405593044808
564,640.647926353909
565,640.6274364271161
566,640.5839142095086
567,640.5237677682102
568,640.4543593057463
569,640.3832513624718
570,640.317446706577
571,640.2627283755645
572,640.2231714923178
573,640.200859783806
574,640.1958128799105
575,640.2061197941332
576,640.2282720849814
577,640.2576812722376
578,640.289333499994
579,640.3184841895659
580,640.3412624682295
581,640.3550782249027
582,640.3587966875192
583,640.3527164494985
584,640.3384184413683
585,640.31854726518
586,640.2965622969424
587,640.2764693701984
588,640.2625256562329
589,640.258906488548
590,640.2693338232765
591,640.2966926220528
592,640.3426981014316
593,640.4076998437348
594,640.4906920255913
595,640.5895449011748
596,640.7014118909563
597,640.8232235596256
598,640.952157435096
599,641.0859743650884
600,641.2231478581845
601,641.362775961466
602,641.5043297363453
603,641.6473363317898
604,641.791108930993
605,641.9346177118125
606,642.0765481112659
607,642.2155269518995
608,642.3504355505593
609,642.4806965488984
610,642.6064278422526
611,642.7283933610564
612,642.8477357875381
613,642.9655450899186
614,643.0823807315618
615,643.1978905815658
616,643.310639018572
617,643.4181918315419
618,643.517438461162
619,643.605075086612
620,643.678131701331
621,643.7344226402779
622,643.7728417200037
623,643.7934829532951
624,643.7976080382368
625,643.787493194518
626,643.7661874436984
627,643.7372165867275
628,643.7042705650824
629,643.6709080984946
630,643.6402985558744
631,643.6150056510503
632,643.5968149208375
633,643.5866212133014
634,643.5844104331023
635,643.5893694729472
636,643.6001260114899
637,643.6150690831503
638,643.6326687706984
639,643.6517229814042
640,643.6714972251655
641,643.6917558008199
642,643.7126884698438
643,643.7347258984009
644,643.7582440793082
645,643.7831997705875
646,643.8087879721065
647,643.8332271779701
648,643.8537488935684
649,643.8668149990008
650,643.8685313263559
651,643.8551803894602
652,643.8237709294832
653,643.7725051987072
654,643.7010929311652
655,643.610878005485
656,643.5047756516386
657,643.3870410103359
658,643.2629066917375
659,643.1381378742664
660,643.0185564391285
661,642.9095830022707
662,642.815839172654
663,642.7408376457385
664,642.6867676381049
665,642.6543722216409
666,642.6429165020905
667,642.6502480234936
668,642.6729459969173
669,642.7065489770138
670,642.7458429320546
671,642.78518445194
672,642.8188357652191
673,642.8413000718206
674,642.8476536804579
675,642.8338667325166
676,642.7970930936425
677,642.7359011493643
678,642.6504141520732
679,642.5423328476977
680,642.414823946104
681,642.272273756196
682,642.1199273881356
683,641.9634556490956
684,641.8084997619115
685,641.6602343398521
686,641.5229797206472
687,641.3998994344784
688,641.2928236959586
689,641.2022247029205
690,641.1273375538464
691,641.0663942094268
692,641.0169290738936
693,640.9761173356782
694,640.941113430392
695,640.9093631223755
696,640.8788635237414
697,640.8483388518054
698,640.8172953777271
699,640.7859331448124
700,640.7549312556386
701,640.7251714291314
702,640.6974879224601
703,640.6725081352402
704,640.6505905546294
705,640.6318199305913
706,640.6160212319087
707,640.6027952529466
708,640.5916116370613
709,640.5819819492314
710,640.5736846867588
711,640.5669675363273
712,640.5626450479659
713,640.5620423970671
714,640.5667812955654
715,640.5784418921681
716,640.5981644537358
717,640.626278179764
718,640.6620498134746
719,640.7036187215213
720,640.7481331690924
721,640.7920489929081
722,640.8315209061735
723,640.8628143781156
724,640.8826815165072
725,640.8886651255204
726,640.8793166702641
727,640.8543327805604
728,640.8146229222626
729,640.762315430507
730,640.700697906669
731,640.6340766871928
732,640.5675318777833
733,640.5065533085046
734,640.4565831307391
735,640.4225458951659
736,640.408471744585
737,640.4172869587112
738,640.4507773644157
739,640.5096631231453
740,640.5936899421424
741,640.701656064728
742,640.8313459369343
743,640.9794010077609
744,641.1411999314283
745,641.3108362697404
746,641.481275592688
747,641.64474853163
748,641.7933898390023
749,641.9200700202865
750,642.0193031566746
751,642.0880718214431
752,642.126400978599
753,642.137548088115
754,642.1277531466923
755,642.1055809475843
756,642.08095693713
757,642.0640405747934
758,642.0640996335052
759,642.0885388563782
760,642.1421924232571
761,642.2269274107198
762,642.3415494040117
763,642.481967836206
764,642.6415748268
765,642.8118097716823
766,642.9828941912449
767,643.1447033766983
768,643.2877009269993
769,643.4038271290112
770,643.4872253515094
771,643.5347188302584
772,643.5459999713011
773,643.5235422380555
774,643.4722774795422
775,643.3991000066701
776,643.3122651169534
777,643.2207415882724
778,643.1335556102119
779,643.0591402706049
780,643.0046983826583
781,642.9756043704677
782,642.9749016379709
783,643.0029725291054
784,643.0574494830365
785,643.1334009389534
786,643.2237904984618
787,643.3201911244906
788,643.4137200331531
789,643.496117692615
790,643.5608358542796
791,643.6039619777065
792,643.6248107415643
793,643.6260539541859
794,643.6133326249242
795,643.5943899528401
796,643.5778591720912
797,643.5719108647248
798,643.5829929522987
799,643.614874084025
800,643.6681344139002
801,643.7401593409295
802,643.8256041402295
803,643.9172241484486
804,644.0069159803875
805,644.0867985835432
806,644.1501791694402
807,644.1922838811729
808,644.2106693746026
809,644.20527151891
810,644.1781063466848
811,644.1327132709854
812,644.0734916312617
813,644.0050946747014
814,643.9319981739442
815,643.8582782806046
816,643.787562099805
817,643.7230833662594
818,643.6677713786872
819,643.6243005493985
820,643.5950347005379
821,643.5818338320058
822,643.5857499888922
823,643.6066959487132
824,643.6431965519694
825,643.6923145391108
826,643.7497876568831
827,643.8103475912175
828,643.8681491122151
829,643.9172384359032
830,643.9520171744933
831,643.9676785974139
832,643.960591853786
833,643.9286029226345
834,643.8712258245522
835,643.7897092969196
836,643.6869700112325
837,643.5673850436706
838,643.4364429715688
839,643.3002683393245
840,643.1650589514873
841,643.0365073856617
842,642.9193048740493
843,642.8168272373434
844,642.7310657074889
845,642.6627952326406
846,642.6118936894385
847,642.57767565127
848,642.5591164340991
849,642.554911909283
850,642.5634028349634
851,642.5824443780913
852,642.6093108282406
853,642.6407046736987
854,642.6728994153958
855,642.7019980400505
856,642.7242561220919
857,642.7364174456086
858,642.7360300691905
859,642.721722744678
860,642.693411092877
861,642.6523845147789
862,642.6012261419862
863,642.5435538207677
864,642.483625348862
865,642.4258916024189
866,642.3745850260784
867,642.3334057285214
868,642.3053340176954
869,642.2925702999586
870,642.2965849866597
871,642.3182521457071
872,642.3580337831958
873,642.4161663000797
874,642.4927837661547
875,642.5879205382304
876,642.7013805172805
877,642.8325174467695
878,642.9800024421542
879,643.1416495738031
880,643.3143469092839
881,643.4941190650419
882,643.6763287838238
883,643.8560019003042
884,644.0282332891721
885,644.1886100504598
886,644.3335819463567
887,644.4607238559702
888,644.5688654543341
889,644.6580907567991
890,644.7296203284212
891,644.7855889377373
892,644.8287380654422
893,644.8620598477356
894,644.8884446201023
895,644.9103846368362
896,644.9297702893431
897,644.9477927180335
898,644.9649474139591
899,644.9811186694997
900,644.9957168545865
901,645.007844682619
902,645.0164811199097
903,645.0206790121415
904,645.019767770975
905,645.0135418695647
906,645.0024082876263
907,644.987463360521
908,644.9704700392793
909,644.953711236814
910,644.939708917311
911,644.9308277132862
912,644.9288239845714
913,644.9344421894757
914,644.9471785661877
915,644.9653082681724
916,644.9862063061853
917,645.0069119850994
918,645.024824541969
