frame_number,force
0,659.4770500000358
1,659.4294658591069
2,659.3852482135362
3,659.3475677624463
4,659.3191494408647
5,659.3019467516011
6,659.2967692679568
7,659.3029370811746
8,659.3180558291364
9,659.3379962178625
10,659.357131593238
11,659.3688452019394
12,659.3662673773744
13,659.3431465008831
14,659.2947140075555
15,659.2183959597407
16,659.1142587481792
17,658.9851347941172
18,658.836424556605
19,658.6755998933961
20,658.5114548886507
21,658.3531817616697
22,658.209386308996
23,658.0871765032833
24,657.9914459109552
25,657.9244375572616
26,657.8856289847081
27,657.8719368469788
28,657.8782039897168
29,657.8979037878818
30,657.9239760251724
31,657.949695780256
32,657.9694693030598
33,657.9794511397013
34,657.9778931388837
35,657.9651692639202
36,657.9434623046683
37,657.9161497236945
38,657.8869910874164
39,657.8592819705732
40,657.8351600221007
41,657.8152075930134
42,657.7984159156807
43,657.7824990348369
44,657.7644871245642
45,657.7414817433556
46,657.7114224277506
47,657.6737102136876
48,657.6295670222136
49,657.5820722775105
50,657.535888251295
51,657.4967367520064
52,657.4707110552393
53,657.4635136429547
54,657.4797195945408
55,657.5221693571508
56,657.5915705666685
57,657.6863361045231
58,657.8026380913029
59,657.9346479582046
60,658.0749555366716
61,658.2151771580005
62,658.3467407607351
63,658.4617753426121
64,658.5539690550805
65,658.6192401045861
66,658.6561033941832
67,658.665690334772
68,658.6514518302267
69,658.6186171098261
70,658.5734879221181
71,658.5226399445258
72,658.4721094834814
73,658.4266651058839
74,658.389275927251
75,658.3608714349177
76,658.3404430806177
77,658.3254780033793
78,658.3126533830987
79,658.298665853405
80,658.2810331783517
81,658.2586992554906
82,658.2323124576805
83,658.2041267591369
84,658.1775646670469
85,658.1565458741578
86,658.1447151870574
87,658.1447108781701
88,658.157608506332
89,658.1826454873535
90,658.2172719387473
91,658.2575016561051
92,658.298481677525
93,658.3351723294439
94,658.363029256394
95,658.3786005877594
96,658.3799873020452
97,658.3671424249018
98,658.3419889802892
99,658.3083282958598
100,658.2715165216099
101,658.2379194223122
102,658.2142001717644
103,658.2065338347539
104,658.2198630714782
105,658.2573013749508
106,658.3197550710485
107,658.4057965789368
108,658.5117935691509
109,658.6322705083506
110,658.7604479487139
111,658.888892464502
112,659.0102220426476
113,659.1178186905396
114,659.2064792117619
115,659.2729036040487
116,659.3159173778387
117,659.3363728695986
118,659.336760491094
119,659.3206384560165
120,659.2920196402191
121,659.2548317089559
122,659.2125137034081
123,659.167757832319
124,659.1223713295004
125,659.0772272215529
126,659.0322863486991
127,658.9866901734528
128,658.9389300109996
129,658.8870855003263
130,658.8291010914238
131,658.7630566963343
132,658.6874002862575
133,658.6011293717004
134,658.5039122004071
135,658.3961321557733
136,658.2788405061111
137,658.1536208718928
138,658.0223943099417
139,657.8872122954735
140,657.7500857010489
141,657.6128816939258
142,657.4772981897127
143,657.3449065303846
144,657.2172372863059
145,657.095870066726
146,656.9824801776448
147,656.8787962199195
148,656.7864365212785
149,656.7066277016227
150,656.6398649825367
151,656.5856232998261
152,656.5422337424375
153,656.5069912766323
154,656.4764851667118
155,656.4470823619065
156,656.4154646319321
157,656.3791175669115
158,656.3366861784993
159,656.2881437159394
160,656.2347563307354
161,656.178852325761
162,656.1234226711866
163,656.0716045656112
164,656.0261362518378
165,655.988901355359
166,655.9606786539009
167,655.9411638284126
168,655.9292446395241
169,655.9234286189962
170,655.9222882454736
171,655.9248183817198
172,655.930661918443
173,655.9402038000585
174,655.954544512327
175,655.9753584990599
176,656.0046412039821
177,656.0443615986386
178,656.0960669058883
179,656.1605210291733
180,656.2374750268901
181,656.325647799782
182,656.4229372812987
183,656.5268062199503
184,656.634724842998
185,656.7445402249352
186,656.8546908154972
187,656.9642575275924
188,657.072880532402
189,657.1805615099615
190,657.2873660640358
191,657.3930785024658
192,657.4969066449822
193,657.5973287488267
194,657.692113942198
195,657.7784815141883
196,657.8533372206914
197,657.9135404383987
198,657.9561871294693
199,657.9789084204195
200,657.98017227644
201,657.959551936243
202,657.9179131855624
203,657.8574822530782
204,657.7817774834439
205,657.6954084453474
206,657.6037640187127
207,657.5126284229187
208,657.4277744824132
209,657.3545779093165
210,657.2976790923543
211,657.2607043571498
212,657.2460557554941
213,657.2547819906533
214,657.2865428332517
215,657.3396731441848
216,657.4113449970654
217,657.4978183247047
218,657.594758626589
219,657.6975842953229
220,657.8017922362085
221,657.9032090954037
222,657.9981327009887
223,658.0833579572812
224,658.1561119139625
225,658.2139480735468
226,658.2546647885848
227,658.276307788115
228,658.2772902250971
229,658.256625617595
230,658.2142332273041
231,658.1512479749757
232,658.0702491065839
233,657.97532025121
234,657.871880566255
235,657.7662832723528
236,657.6652417399365
237,657.5751822542329
238,657.5016222413922
239,657.4486485062961
240,657.4185477460835
241,657.4116275308972
242,657.4262461241584
243,657.4590386092974
244,657.5052996303353
245,657.5594724082587
246,657.6156936690753
247,657.6683430692926
248,657.712544717128
249,657.7445768882238
250,657.7621623521197
251,657.7646225563659
252,657.752882362451
253,657.729324475968
254,657.6975210452233
255,657.6618930056795
256,657.6273450921808
257,657.5989068148516
258,657.5813975837146
259,657.579126021292
260,657.5956202575345
261,657.633374363125
262,657.6935977352616
263,657.7759713019913
264,657.8784435162115
265,657.9971324267141
266,658.126419003317
267,658.2592992841766
268,658.3880037068275
269,658.5048119401262
270,658.6029241413603
271,658.6772220331418
272,658.7247755197128
273,658.7450130792658
274,658.7395541327475
275,658.711773698866
276,658.6662130320417
277,658.6079554666445
278,658.5420623085995
279,658.4731263519891
280,658.4049630200491
281,658.3404278730138
282,658.2813305245735
283,658.2284136638701
284,658.1813814651201
285,658.1389873733493
286,658.0992118971615
287,658.0595570778381
288,658.0174495226762
289,657.9706963436764
290,657.9179031158334
291,657.8587504214761
292,657.7940378084676
293,657.725449504501
294,657.6550776611626
295,657.5848323666457
296,657.515928492524
297,657.4486295494872
298,657.3823426575365
299,657.3160336751
300,657.2488269016303
301,657.1806080477669
302,657.1124596286814
303,657.0468053843817
304,656.9872152092736
305,656.9379136377058
306,656.9031138337903
307,656.8863334240256
308,656.8898313055979
309,656.9142529477218
310,656.9585124066396
311,657.0198994155581
312,657.0943874849281
313,657.1771082963644
314,657.262921510729
315,657.3469636924361
316,657.4250517466479
317,657.493865542743
318,657.5509154711364
319,657.5943724787095
320,657.6228731124235
321,657.635400967101
322,657.6312995242941
323,657.6104165441169
324,657.5733386859338
325,657.5216486831233
326,657.4581186708587
327,657.3867455479024
328,657.3125546873692
329,657.2411566791716
330,657.178119107629
331,657.1282729188492
332,657.0950873472681
333,657.0802272060428
334,657.0833692340145
335,657.102305281897
336,657.1333020516363
337,657.171633972017
338,657.2121769826115
339,657.249958145137
340,657.2805976527043
341,657.3006403311272
342,657.3078219387696
343,657.3013159270413
344,657.2819518985716
345,657.2523299417528
346,657.2167338724953
347,657.1807903779799
348,657.1508978012689
349,657.1335113215885
350,657.1343971145951
351,657.1579620770744
352,657.2067444624732
353,657.2811246797195
354,657.379287426457
355,657.497439348299
356,657.6302630767144
357,657.7715645722368
358,657.9150394612308
359,658.0550495226704
360,658.187282377392
361,658.3091854962764
362,658.4201161816214
363,658.521206184477
364,658.6149826215416
365,658.7048166853257
366,658.7942942542478
367,658.8866098903503
368,658.9840666809645
369,659.0877270882656
370,659.197226595849
371,659.3107452128951
372,659.4251289742556
373,659.5361568665052
374,659.6389517144436
375,659.7285275188049
376,659.8004397035468
377,659.8514604383148
378,659.880163128312
379,659.8872975091342
380,659.8758730131798
381,659.8509195532014
382,659.8189420542711
383,659.7871314071316
384,659.7624450638192
385,659.7507059659403
386,659.7558625067799
387,659.7795080507063
388,659.820704839411
389,659.8761114890867
390,659.940373972121
391,660.0067090124002
392,660.0675960686915
393,660.1154985042706
394,660.1435449544326
395,660.1461153937641
396,660.1192973878127
397,660.0612022118182
398,659.9721453957
399,659.8546964886812
400,659.7135939358058
401,659.5555093786791
402,659.3886384638855
403,659.2221054046988
404,659.0652048512741
405,658.9265565993455
406,658.8132911697903
407,658.7303967580468
408,658.6803362608657
409,658.6629948074026
410,658.6759547197514
411,658.7150304419044
412,658.7749492562434
413,658.8500492042385
414,658.9348834339581
415,659.0246554058845
416,659.1154449861087
417,659.2042158589848
418,659.2886264276787
419,659.3667049687317
420,659.4364865318689
421,659.4957204860058
422,659.5417272320612
423,659.571427491268
424,659.5815241704995
425,659.568797321007
426,659.5304613710508
427,659.464521578847
428,659.3700602126514
429,659.2473876393206
430,659.0980135944116
431,658.9244392239693
432,658.729836540737
433,658.5177325502488
434,658.291809963681
435,658.055872380528
436,657.81393711054
437,657.570359649811
438,657.3298832498804
439,657.0975379623254
440,656.8783658793751
441,656.6770063923927
442,656.4972232462945
443,656.3414792098196
444,656.2106567322951
445,656.1039892365636
446,656.0192186305329
447,655.9529439270523
448,655.9010917239827
449,655.8594319680791
450,655.8240731155287
451,655.7918841120893
452,655.7608013381598
453,655.729991171578
454,655.6998579475991
455,655.671912133558
456,655.648534568283
457,655.6326742644658
458,655.6274972827997
459,655.6359860020478
460,655.6604992540578
461,655.7023425567539
462,655.7614337793088
463,655.836153088961
464,655.9234265352967
465,656.0190226706638
466,656.1179760970784
467,656.2150317325326
468,656.3050410508727
469,656.383304655606
470,656.4458971835779
471,656.4900063160518
472,656.5142746544628
473,656.5190796046073
474,656.5066579763618
475,656.4810014449365
476,656.4475100385732
477,656.4124627895003
478,656.3824115233116
479,656.3636051827846
480,656.3615148659026
481,656.3804796545603
482,656.4234575801025
483,656.4918589371065
484,656.5854533018415
485,656.702355567738
486,656.8390979697876
487,656.9907945795073
488,657.1514160604908
489,657.3142038214846
490,657.4722314835082
491,657.6190585568158
492,657.7493541303837
493,657.8593481003228
494,657.9470117895793
495,658.0119548171418
496,658.0551087879721
497,658.0783177187544
498,658.0839573272406
499,658.0746655586789
500,658.0532059788895
501,658.0224357250021
502,657.9853308338887
503,657.9450227436986
504,657.9047981723551
505,657.8680148183639
506,657.8379106049784
507,657.8173326808694
508,657.8084506860528
509,657.81252107178
510,657.8297437750623
511,657.8592277420635
512,657.899073834565
513,657.9465821319453
514,657.998578258952
515,658.0518271436956
516,658.1034694605046
517,658.1513869679798
518,658.1943965820313
519,658.2322057167146
520,658.2651302673931
521,658.2936564618449
522,658.3179833372335
523,658.3376879165452
524,658.3516092990518
525,658.3579740543357
526,658.3547148613615
527,658.339887790176
528,658.3120764884237
529,658.270684279546
530,658.2160527173239
531,658.1493898939208
532,658.0725284237905
533,657.9875637216215
534,657.8964511528698
535,657.8006543096154
536,657.7009255843454
537,657.5972704416552
538,657.4891113513323
539,657.3756319550791
540,657.2562447733868
541,657.131088131713
542,657.0014337392848
543,656.8698926734132
544,656.7403474709273
545,656.6176005020409
546,656.506798681954
547,656.4127512374813
548,656.3392786094619
549,656.2887109930115
550,656.2616084465027
551,656.2567238825606
552,656.2711969235459
553,656.3009505604425
554,656.3412402157896
555,656.3872668396641
556,656.4347380296865
557,656.4802726152819
558,656.521592545853
559,656.5575060882715
560,656.5877342028382
561,656.6126531626969
562,656.6330180384944
563,656.6497067823393
564,656.6635032363844
565,656.6749268520191
566,656.6841131757496
567,656.6907521207329
568,656.6941031962529
569,656.6931180458275
570,656.6866895797431
571,656.6740056967235
572,656.6549337563541
573,656.6303321832864
574,656.6021998460452
575,656.5736288922184
576,656.5485906800099
577,656.5316154300317
578,656.5274099611148
579,656.5404239016125
580,656.5743651624265
581,656.6316929798271
582,656.7131587171547
583,656.8174886590751
584,656.9412931413846
585,657.0792468718131
586,657.2245317244784
587,657.3694834212712
588,657.5063491105988
589,657.62804714364
590,657.728825745653
591,657.8047455137845
592,657.853950573027
593,657.8767240000689
594,657.8753381131403
595,657.8537227406778
596,657.8169946369502
597,657.7709139047898
598,657.7213499722487
599,657.6738396006683
600,657.633289568587
601,657.6038242314722
602,657.5887387497171
603,657.5905183594621
604,657.6109042854758
605,657.6509903677669
606,657.7113158262507
607,657.7919070731168
608,657.8922346260064
609,658.0110842959484
610,658.1463793076819
611,658.2950142280018
612,658.4527609495564
613,658.6142873653939
614,658.7733059197493
615,658.9228541268114
616,659.0557083743172
617,659.1649333500292
618,659.2445422678646
619,659.2901818382501
620,659.2997050363938
621,659.2735038000912
622,659.2145390569711
623,659.128080220846
624,659.0212160037693
625,658.9022232610588
626,658.7798910018023
627,658.6628885785319
628,658.5592315091753
629,658.4758471312502
630,658.4182069959435
631,658.389994729887
632,658.3928090124424
633,658.4259380654221
634,658.4862667834888
635,658.5683813753199
636,658.6649127154496
637,658.7671090453814
638,658.8655722338566
639,658.9510624210003
640,659.0152846375256
641,659.0515961736162
642,659.0555888051756
643,659.0254992225301
644,658.9623934808924
645,658.8700704786929
646,658.7546513906206
647,658.6238791344039
648,658.4862330255828
649,658.3500262218391
650,658.2226559952371
651,658.1101182308084
652,658.0168106657109
653,657.9455683695104
654,657.897824542561
655,657.8737839959298
656,657.8725293198235
657,657.8920316546987
658,657.9290976165348
659,657.9793408694746
660,658.0372923729509
661,658.0967254153933
662,658.1511778345929
663,658.194562855828
664,658.2217312974027
665,658.2288863912265
666,658.2138150704218
667,658.1759463443351
668,658.1162698828088
669,658.0371552171264
670,657.9421100456638
671,657.8355074657719
672,657.7222988445545
673,657.6077113804139
674,657.4969143600352
675,657.3946463801797
676,657.3048344019311
677,657.230273659225
678,657.172435509721
679,657.1314261101866
680,657.1060679647477
681,657.0940549978197
682,657.0921474081485
683,657.0964031961279
684,657.102460376388
685,657.1058782085968
686,657.1025283537926
687,657.0890090397676
688,657.0630382603155
689,657.0237680714592
690,656.9719637202842
691,656.9100158086394
692,656.8417874809516
693,656.7723226163242
694,656.7074497575617
695,656.6533143823824
696,656.6158677524876
697,656.6003465537761
698,656.6107940041462
699,656.6496782917804
700,656.7176433690216
701,656.8133986572055
702,656.9337466692209
703,657.07376060286
704,657.2271288181571
705,657.3866588592604
706,657.5448905399331
707,657.6947334225558
708,657.8300386679845
709,657.9460380566096
710,658.0396146140475
711,658.1093894065149
712,658.1556200039217
713,658.1799287133119
714,658.1849178386824
715,658.1737572354624
716,658.1498173833521
717,658.1163793261866
718,658.0764211615341
719,658.0324798740241
720,657.9865984810866
721,657.9403645993918
722,657.8950240122474
723,657.8516288704194
724,657.8111705679274
725,657.7746557417694
726,657.7431087352841
727,657.7175172852212
728,657.6987566814694
729,657.687511072062
730,657.6841753859038
731,657.6887109853393
732,657.7004634905148
733,657.718004790409
734,657.7390857022733
735,657.7607595361009
736,657.7796793769611
737,657.7925198582585
738,657.7964482791489
739,657.7895666001601
740,657.7712537370318
741,657.7423481801862
742,657.7051205824451
743,657.6630031405075
744,657.6200833345698
745,657.5804324872818
746,657.5473970330802
747,657.5230014202687
748,657.5075876203236
749,657.4997632221175
750,657.4966705775217
751,657.4945343982772
752,657.489393035449
753,657.4778735395299
754,657.4578543161134
755,657.4288900860073
756,657.3923360449501
757,657.3511641810445
758,657.3095020772888
759,657.2719629451282
760,657.2428841329263
761,657.2256266287422
762,657.222080910042
763,657.2324694760792
764,657.2554567191481
765,657.2885072217038
766,657.3283972474095
767,657.3717837678008
768,657.4157578055776
769,657.4583336534514
770,657.4988364536965
771,657.5381445148236
772,657.5787296365912
773,657.6244382016821
774,657.6799849229161
775,657.7501898039542
776,657.8390604253744
777,657.9488816179868
778,658.0794975534616
779,658.2279435175751
780,658.3885144726909
781,658.5532688434738
782,658.712882074575
783,658.8577009880396
784,658.978819860083
785,659.0690137332844
786,659.123419880164
787,659.1399264678118
788,659.1192732463203
789,659.0648816086743
790,658.9824314499401
791,658.87921458638
792,658.7633230547568
793,658.6427649883809
794,658.5246282816197
795,658.4144182237907
796,658.3156690933411
797,658.2298743074845
798,658.1567084695217
799,658.0944490224285
800,658.0404764509362
801,657.9917592148823
802,657.9452897085821
803,657.898479039034
804,657.8495108058719
805,657.7976143039558
806,657.7431914280235
807,657.6877499439333
808,657.6336450390364
809,657.5836728133805
810,657.5405780149841
811,657.5065505808392
812,657.4828029907196
813,657.4693264225543
814,657.4648960526614
815,657.4673356068284
816,657.4739807491462
817,657.4822260115186
818,657.4900209755108
819,657.496206604511
820,657.5006386815279
821,657.504104093016
822,657.5080787686169
823,657.5144020678256
824,657.524951205072
825,657.5413861963884
826,657.5650028383395
827,657.5966913495162
828,657.6369654432027
829,657.6860110631527
830,657.7437135073001
831,657.8096499493564
832,657.883057135713
833,657.9627847965152
834,658.0472340184306
835,658.1342772560723
836,658.2211750620671
837,658.3045389953202
838,658.3804153776224
839,658.4445528227735
840,658.49286443204
841,658.5220268101576
842,658.5301031500076
843,658.5170556136447
844,658.4850246784735
845,658.438290782771
846,658.3828861844904
847,658.3258864874595
848,658.2744791541722
849,658.2349698075138
850,658.2119202386131
851,658.2075896971864
852,658.2217731549134
853,658.2520272443312
854,658.2941896964949
855,658.3430587100816
856,658.3931014122192
857,658.439084882679
858,658.4765565154468
859,658.5021443915922
860,658.5136980448834
861,658.5103200763916
862,658.4923273593625
863,658.4611396555667
864,658.4190627292547
865,658.3689442404618
866,658.3137334107091
867,658.2560354394174
868,658.1977759889097
869,658.1400633397363
870,658.0832733789533
871,658.0273143269795
872,657.9719775399424
873,657.917264504706
874,657.8636053718411
875,657.8119377322382
876,657.7636610975827
877,657.7204953071462
878,657.6842624588841
879,657.6566182941789
880,657.6387875582548
881,657.6313741505912
882,657.6342928923525
883,657.6468222913591
884,657.6677442237549
885,657.6955306619075
886,657.7285442247847
887,657.76522084567
888,657.8041977018762
889,657.8443502395576
890,657.8847226031322
891,657.9243762822404
892,657.9622226785772
893,657.9969208588428
894,658.0269006917205
895,658.050521453238
896,658.0663175376351
897,658.0732453107495
898,658.0708505158553
899,658.0593175649701
900,658.0394097143316
901,658.0123380017386
902,657.9796072232721
903,657.9428894422684
904,657.9039679417751
905,657.8647672009334
906,657.8274388124454
907,657.7944303295054
908,657.7684527566175
909,657.7522967521259
910,657.748513139563
911,657.7590350072272
912,657.7848424511759
913,657.8257471024646
914,657.8803227922051
915,657.9459614110166
916,658.0190075031945
917,658.0949272352228
