frame_number,force
0,851.5245148579852
1,851.3644998619759
2,851.2022457110357
3,851.0379450708334
4,850.8717905445995
5,850.7039742077795
6,850.5346871360041
7,850.364118932142
8,850.1924572591889
9,850.0198873859131
10,849.8465917511129
11,849.6727495500356
12,849.4985363441205
13,849.3241236940287
14,849.1496788158622
15,848.9753642605215
16,848.8013376158543
17,848.6277512311057
18,848.4547519637233
19,848.2824809498293
20,848.1110734012587
21,847.9406584334658
22,847.7713589293387
23,847.6032914438716
24,847.4365661538728
25,847.2712868557777
26,847.107551013426
27,846.945449856495
28,846.7850685295352
29,846.6264862918182
30,846.4697767695247
31,846.3150082633035
32,846.1622441147499
33,846.011543134361
34,845.8629600913821
35,845.7165462636013
36,845.572350043513
37,845.4304175967643
38,845.2907935691478
39,845.1535218387185
40,845.0186463088528
41,844.8862117357779
42,844.7562645811337
43,844.6288538781745
44,844.5040321003733
45,844.3818560230369
46,844.2623875707972
47,844.1456946456613
48,844.0318519315334
49,843.9209416717812
50,843.8130544164541
51,843.7082897351888
52,843.6067568909777
53,843.5085754693841
54,843.4138759577378
55,843.3228002692001
56,843.2355022069755
57,843.15214786408
58,843.0729159538939
59,842.9979980663605
60,842.9275988443595
61,842.8619360746245
62,842.8012406877447
63,842.7457566625731
64,842.6957408318182
65,842.6514625873531
66,842.6132034854216
67,842.5812567535088
68,842.5559267022835
69,842.5375280472776
70,842.5263851452391
71,842.5228311492377
72,842.5272070850001
73,842.5398608493201
74,842.5611461303597
75,842.5914212493483
76,842.6310479232051
77,842.6803899477538
78,842.739811801505
79,842.809677170652
80,842.8903473971993
81,842.9821798540663
82,843.0855262533535
83,843.2007308962868
84,843.3281288754181
85,843.4680442413412
86,843.6207881475111
87,843.7866569878599
88,843.9659305430506
89,844.1588701524963
90,844.3657169302662
91,844.5866900429514
92,844.8219850662191
93,845.0717724347877
94,845.336195998859
95,845.6153716990706
96,845.9093863715373
97,846.2182966939085
98,846.5421282820051
99,846.8808749445791
100,847.2344981017668
101,847.6029263715751
102,847.986055328253
103,848.3837474359095
104,848.7958321593587
105,849.22210625157
106,849.6623342137962
107,850.1162489213356
108,850.5835524053728
109,851.0639167790988
110,851.5569852940736
111,852.0623735110205
112,852.579670568787
113,853.108440536318
114,853.6482238345318
115,854.1985387169804
116,854.7588827995002
117,855.3287346299559
118,855.9075552902331
119,856.4947900239952
120,857.0898698848536
121,857.6922134001464
122,858.301228245804
123,858.9163129281686
124,859.5368584690544
125,860.1622500903227
126,860.7918688936203
127,861.4250935299956
128,862.0613018531988
129,862.6998725496676
130,863.3401867374228
131,863.9816295252948
132,864.6235915232156
133,865.2654702937472
134,865.9066717345567
135,866.5466113814242
136,867.1847156221212
137,867.8204228132025
138,868.4531842937369
139,869.0824652917979
140,869.7077457214225
141,870.3285208701312
142,870.9443019797951
143,871.5546167258982
144,872.1590096016477
145,872.7570422140611
146,873.3482934994076
147,873.9323598654257
148,874.5088552679276
149,875.0774112299187
150,875.6376768117269
151,876.1893185399489
152,876.7320203010281
153,877.2654832027796
154,877.7894254053006
155,878.303581922195
156,878.8077043937762
157,879.3015608348851
158,879.7849353600036
159,880.2576278871167
160,880.7194538198418
161,881.1702437053967
162,881.6098428642939
163,882.0381109863563
164,882.4549216871186
165,882.8601620193501
166,883.2537319362932
167,883.6355437056972
168,884.0055212761304
169,884.363599598906
170,884.7097239102769
171,885.0438489797199
172,885.3659383313341
173,885.6759634465155
174,885.9739029571022
175,886.2597418393635
176,886.5334706203286
177,886.795084608019
178,887.0445831553888
179,887.2819689645086
180,887.5072474339514
181,887.720426049238
182,887.9215138138298
183,888.1105207163691
184,888.2874572286756
185,888.4523338287322
186,888.6051605436284
187,888.7459465088033
188,888.8746995413522
189,888.9914257265037
190,889.0961290179952
191,889.1888108550522
192,889.2694698004397
193,889.3381012049404
194,889.3946969034713
195,889.4392449470909
196,889.4717293737651
197,889.4921300194037
198,889.5004223695527
199,889.4965774511595
200,889.480561763139
201,889.4523372444215
202,889.4118612787278
203,889.359086736102
204,889.2939620519421
205,889.2164313449215
206,889.1264345761012
207,889.0239077530257
208,888.9087831843842
209,888.7809897919398
210,888.6404534861065
211,888.4870976099228
212,888.3208434538784
213,888.1416108419244
214,887.9493187876324
215,887.7438862188465
216,887.5252327686368
217,887.2932796293106
218,887.047950464527
219,886.7891723725023
220,886.5168768914051
221,886.2310010367718
222,885.931488360157
223,885.618290017794
224,885.2913658374132
225,884.9506853709971
226,884.5962289219091
227,884.2279885364193
228,883.845968951125
229,883.4501884885077
230,883.0406798933665
231,882.6174911038493
232,882.1806859524334
233,881.7303447940186
234,881.2665650597203
235,880.7894617357665
236,880.2991677672209
237,879.7958343861253
238,879.2796313632413
239,878.7507471824599
240,878.2093891377929
241,877.6557833545602
242,877.0901747382852
243,876.5128268563915
244,875.9240217588343
245,875.3240597441105
246,874.7132590765526
247,874.0919556596143
248,873.4605026683015
249,872.819270142714
250,872.1686445447383
251,871.5090282814871
252,870.8408392010535
253,870.1645100672413
254,869.4804880199256
255,868.7892340272616
256,868.0912223357421
257,867.3869399242893
258,866.6768859689267
259,865.9615713247404
260,865.2415180312836
261,864.5172588457577
262,863.7893368051427
263,863.0583048149625
264,862.3247252599734
265,861.5891696313157
266,860.8522181648244
267,860.1144594850891
268,859.3764902490983
269,858.6389147822731
270,857.9023446987586
271,857.1673984969772
272,856.4347011206538
273,855.7048834750124
274,854.9785818878125
275,854.2564375055558
276,853.5390956168511
277,852.8272048976627
278,852.1214165764361
279,851.4223835201293
280,850.7307592444637
281,850.0471968530521
282,849.3723479104736
283,848.7068612541266
284,848.0513817492941
285,847.4065489914101
286,846.7729959587358
287,846.1513476174528
288,845.5422194800054
289,844.9462161170925
290,844.3639296244017
291,843.7959380470261
292,843.2428037672333
293,842.7050718643047
294,842.1832684577234
295,841.6778990466373
296,841.189446859171
297,840.7183712248358
298,840.2651059821623
299,839.830057932345
300,839.4136053487924
301,839.0160965521516
302,838.6378485603014
303,838.2791458225872
304,837.9402390472404
305,837.6213441310949
306,837.3226412016905
307,837.0442737832851
308,836.7863480994648
309,836.5489325255483
310,836.3320572036621
311,836.1357138318998
312,835.9598556360958
313,835.8043975289127
314,835.6692164573158
315,835.5541519370819
316,835.4590067716855
317,835.3835479519335
318,835.3275077314047
319,835.2905848708222
320,835.2724460419739
321,835.2727273792289
322,835.2910361649684
323,835.3269526348995
324,835.3800318897916
325,835.449805900755
326,835.5357855952262
327,835.6374630106815
328,835.7543135032341
329,835.8857979985536
330,836.0313652724785
331,836.1904542482057
332,836.3624962963138
333,836.5469175233314
334,836.7431410340515
335,836.950589152329
336,837.1686855849217
337,837.3968575133742
338,837.634537600005
339,837.8811658953813
340,838.1361916362237
341,838.3990749248177
342,838.6692882835176
343,838.9463180800129
344,839.2296658203239
345,839.5188493075087
346,839.813403665427
347,840.1128822286256
348,840.416857301122
349,840.7249207881239
350,841.0366847052164
351,841.3517815693253
352,841.6698646754327
353,841.9906082631815
354,842.3137075779707
355,842.6388788311597
356,842.9658590631038
357,843.2944059112114
358,843.6242972836214
359,843.9553309379572
360,844.2873239643603
361,844.620112173016
362,844.9535493883994
363,845.2875066548371
364,845.6218713600771
365,845.9565462851778
366,846.2914485902068
367,846.6265087461212
368,846.9616694238647
369,847.2968843524037
370,847.6321171585467
371,847.9673402027604
372,848.3025334257605
373,848.63768321956
374,848.9727813342485
375,849.3078238291623
376,849.6428100750855
377,849.9777418128979
378,850.3126222733714
379,850.647455362043
380,850.9822449118742
381,851.3169940048346
382,851.651704362034
383,851.9863758010006
384,852.3210057581442
385,852.6555888740887
386,852.9901166392259
387,853.3245770967064
388,853.6589546000868
389,853.9932296227323
390,854.3273786156409
391,854.6613739097893
392,854.9951836584653
393,855.3287718141179
394,855.6620981331865
395,855.9951182016896
396,856.3277834743873
397,856.6600413208706
398,856.9918350728786
399,857.3231040686248
400,857.6537836917031
401,857.9838054036641
402,858.3130967702784
403,858.6415814821007
404,858.9691793706359
405,859.2958064222903
406,859.6213747930029
407,859.9457928265446
408,860.2689650788114
409,860.5907923492065
410,860.9111717187816
411,861.229996593627
412,861.5471567514663
413,861.862538389806
414,862.1760241749265
415,862.4874932915228
416,862.796821492325
417,863.1038811462986
418,863.4085412843762
419,863.7106676434115
420,864.0101227109927
421,864.3067657745615
422,864.6004529778482
423,864.8910373868065
424,865.1783690668111
425,865.462295172845
426,865.7426600540489
427,866.01930537297
428,866.2920702386374
429,866.560791351787
430,866.8253031599996
431,867.0854380201084
432,867.3410263656106
433,867.5918968785106
434,867.8378766675437
435,868.0787914569632
436,868.3144657911915
437,868.5447232603351
438,868.7693867499912
439,868.988278716283
440,869.2012214842358
441,869.4080375653024
442,869.6085499888861
443,869.8025826433892
444,869.9899606242981
445,870.170510589412
446,870.3440611237143
447,870.5104431179509
448,870.6694901655835
449,870.8210389826637
450,870.9649298544308
451,871.1010071111664
452,871.2291196342978
453,871.3491213921433
454,871.4608720030154
455,871.5642373217204
456,871.6590900439369
457,871.745310321363
458,871.8227863787065
459,871.8914151219817
460,871.9511027270166
461,872.0017651979324
462,872.0433288870162
463,872.0757309688584
464,872.098919862406
465,872.1128555950368
466,872.117510103455
467,872.1128674672871
468,872.0989240725156
469,872.07568870324
470,872.0431825618189
471,872.0014392193034
472,871.95050450005
473,871.8904363062558
474,871.8213043895871
475,871.7431900778719
476,871.6561859648576
477,871.5603955702524
478,871.4559329758214
479,871.3429224415634
480,871.2214980043723
481,871.091803060449
482,870.9539899322807
483,870.8082194213567
484,870.6546603488752
485,870.4934890881666
486,870.3248890940611
487,870.1490504357489
488,869.9661693406454
489,869.7764477568702
490,869.5800929409144
491,869.3773170753988
492,869.1683369202523
493,868.9533734993643
494,868.7326518237882
495,868.5064006519754
496,868.2748522870342
497,868.0382424099677
498,867.7968099460187
499,867.5507969592003
500,867.3004485685196
501,867.0460128787295
502,866.7877409187394
503,866.5258865816503
504,866.2607065609187
505,865.9924602770991
506,865.7214097893816
507,865.4478196860919
508,865.1719569483053
509,864.8940907805957
510,864.6144924030342
511,864.3334347995783
512,864.0511924201916
513,863.7680408367619
514,863.4842563551077
515,863.2001155866249
516,862.9158949835704
517,862.6318703419953
518,862.3483162762602
519,862.065505669303
520,861.7837091035802
521,861.5031942784608
522,861.2242254197614
523,860.9470626855804
524,860.6719615702293
525,860.3991723062578
526,860.1289392641221
527,859.8615003501219
528,859.5970864053606
529,859.3359206109567
530,859.0782179069174
531,858.8241844337758
532,858.5740170071949
533,858.3279026360796
534,858.08601809415
535,857.8485295537804
536,857.615592289856
537,857.3873504606352
538,857.1639369718112
539,856.9454734288335
540,856.7320701808893
541,856.523826457648
542,856.3208305972238
543,856.1231603613918
544,855.9308833323973
545,855.7440573847118
546,855.5627312243261
547,855.3869449871822
548,855.216730887293
549,855.0521139045794
550,854.8931125028499
551,854.7397393695385
552,854.592002170157
553,854.449904311252
554,854.3134457060811
555,854.1826235381699
556,854.0574330200528
557,853.9378681475569
558,853.8239224527802
559,853.7155897602149
560,853.6128649497723
561,853.5157447283281
562,853.4242284089535
563,853.3383186952339
564,853.258022467426
565,853.1833515673313
566,853.1143235789792
567,853.0509626019274
568,852.9933000130375
569,852.941375211228
570,852.895236338373
571,852.8549409686258
572,852.8205567580723
573,852.7921620465843
574,852.7698464038541
575,852.753711111781
576,852.7438695755652
577,852.7404476561366
578,852.7435839173231
579,852.7534297826808
580,852.7701495986696
581,852.7939206020316
582,852.8249327892862
583,852.8633886852499
584,852.9095030060497
585,852.9635022113786
586,853.0256239413313
587,853.096116334544
588,853.1752372255518
589,853.2632532201043
590,853.3604386481487
591,853.4670743952549
592,853.5834466139461
593,853.7098453167403
594,853.8465628533621
595,853.9938922761166
596,854.1521255998302
597,854.3215519652508
598,854.5024557162478
599,854.695114401517
600,854.8997967121092
601,855.1167603679677
602,855.3462499693098
603,855.5884948310202
604,855.8437068197806
605,856.112078214516
606,856.3937796108514
607,856.6889578895963
608,856.9977342680769
609,857.3202024519477
610,857.6564269043627
611,858.006441248986
612,858.370246822898
613,858.7478113945439
614,859.1390680602369
615,859.5439143306678
616,859.9622114168279
617,860.3937837227463
618,860.8384185501598
619,861.2958660176826
620,861.7658391944592
621,862.248014445789
622,862.7420319858367
623,863.2474966303996
624,863.7639787410959
625,864.2910153517573
626,864.8281114683729
627,865.3747415349422
628,865.9303510580183
629,866.4943583820956
630,867.0661566064399
631,867.6451156318129
632,868.2305843232928
633,868.8218927737109
634,869.4183546516523
635,870.0192696185857
636,870.6239258009642
637,871.2316023042042
638,871.841571755825
639,872.4531028649399
640,873.0654629852412
641,873.6779206688938
642,874.2897481991546
643,874.9002240894507
644,875.5086355354752
645,876.1142808049457
646,876.7164715480961
647,877.3145350115351
648,877.9078161388958
649,878.4956795436211
650,879.0775113423917
651,879.6527208416948
652,880.2207420735546
653,880.7810351783934
654,881.3330876336727
655,881.87641532761
656,882.4105634783771
657,882.9351074001346
658,883.4496531174701
659,883.9538378297683
660,884.4473302277308
661,884.9298306660476
662,885.4010711986555
663,885.8608154851552
664,886.308858578037
665,886.7450266003806
666,887.1691763231036
667,887.5811946499973
668,887.9809980178125
669,888.3685317176732
670,888.7437691434345
671,889.1067109723797
672,889.457384283433
673,889.7958416172673
674,890.122159981443
675,890.4364398026225
676,890.7388038273277
677,891.0293959727229
678,891.3083801293521
679,891.5759389184896
680,891.8322724076105
681,892.0775967883624
682,892.3121430220783
683,892.5361554581921
684,892.749890430946
685,892.9536148396819
686,893.1476047180652
687,893.3321437982677
688,893.5075220774053
689,893.6740343946765
690,893.8319790278354
691,893.9816563169401
692,894.123367322537
693,894.2574125250944
694,894.3840905726418
695,894.5036970839146
696,894.6165235144767
697,894.7228560926596
698,894.8229748302539
699,894.9171526099345
700,895.0056543485616
701,895.0887362339994
702,895.1666450332569
703,895.2396174708258
704,895.3078796771047
705,895.371646707476
706,895.4311221331632
707,895.4864977055574
708,895.5379530956469
709,895.5856557087832
710,895.6297605725671
711,895.6704102934167
712,895.7077350763504
713,895.7418528024144
714,895.7728691582337
715,895.8008778120094
716,895.8259606300354
717,895.8481879277701
718,895.8676187499735
719,895.8843011753748
720,895.8982726422521
721,895.9095602917359
722,895.9181813258751
723,895.924143378073
724,895.9274448944291
725,895.9280755252906
726,895.9260165265904
727,895.92124117026
728,895.9137151623701
729,895.9033970669005
730,895.8902387324956
731,895.8741857195073
732,895.8551777252961
733,895.8331490069543
734,895.8080288017774
735,895.7797417464824
736,895.7482082962945
737,895.713345144786
738,895.6750656449532
739,895.6332802315188
740,895.587896843898
741,895.5388213488185
742,895.4859579613352
743,895.4292096630195
744,895.3684786166498
745,895.3036665778767
746,895.2346753056908
747,895.1614069742985
748,895.0837645892391
749,895.0016524109795
750,894.914976390142
751,894.8236446192626
752,894.7275678057636
753,894.6266597696774
754,894.5208379682299
755,894.4100240480167
756,894.2941444241138
757,894.1731308838338
758,894.0469212108284
759,893.9154598226561
760,893.7786984118521
761,893.6365965775204
762,893.4891224323878
763,893.336253169698
764,893.1779755751461
765,893.0142864707528
766,892.8451930798632
767,892.6707133050131
768,892.4908759127488
769,892.3057206212751
770,892.1152980882375
771,891.9196697974181
772,891.7189078448761
773,891.5130946271239
774,891.3023224360337
775,891.0866929668997
776,890.8663167472266
777,890.6413124946919
778,890.4118064137973
779,890.1779314419443
780,889.9398264567162
781,889.6976354566319
782,889.4515067272891
783,889.2015920037805
784,888.9480456392292
785,888.6910237888208
786,888.4306836185107
787,888.1671825468582
788,887.9006775269324
789,887.6313243736652
790,887.3592771411533
791,887.084687554107
792,886.8077044970638
793,886.5284735635419
794,886.2471366650808
795,885.9638316978355
796,885.6786922628719
797,885.3918474358153
798,885.1034215816646
799,884.8135342111281
800,884.5222998757997
801,884.2298281004956
802,883.9362233512481
803,883.6415850363271
804,883.3460075358295
805,883.0495802540872
806,882.75238768934
807,882.4545095168572
808,882.1560206842158
809,881.856991519829
810,881.5574878575956
811,881.2575711816827
812,880.957298795869
813,880.6567240214558
814,880.3558964267232
815,880.0548620896534
816,879.7536638942495
817,879.4523418591288
818,879.1509334954351
819,878.8494741899643
820,878.5479976088928
821,878.2465361170582
822,877.9451212066134
823,877.6437839271729
824,877.3425553082614
825,877.0414667646589
826,876.7405504757639
827,876.4398397306126
828,876.1393692304378
829,875.8391753411148
830,875.5392962889435
831,875.2397722947849
832,874.9406456431848
833,874.6419606846331
834,874.343763770564
835,874.0461031222484
836,873.7490286363977
837,873.4525916319539
838,873.1568445438347
839,872.8618405701114
840,872.5676332793167
841,872.274276184804
842,871.9818222936135
843,871.690323637871
844,871.3998307968816
845,871.1103924179506
846,870.8220547439695
847,870.5348611557519
848,870.2488517363845
849,869.9640628634523
850,869.6805268336269
851,869.3982715232546
852,869.1173200877251
853,868.8376907009064
854,868.5593963341404
855,868.2824445732574
856,868.0068374726086
857,867.7325714470443
858,867.4596372049378
859,867.1880197264167
860,866.9176982904877
861,866.6486465534598
862,866.380832679717
863,866.114219524367
864,865.8487648650257
865,865.5844216772588
866,865.3211384462683
867,865.0588595072713
868,864.7975254082149
869,864.5370732898851
870,864.2774372794812
871,864.0185488944305
872,863.760337453926
873,863.5027304964216
874,863.2456542016794
875,862.9890338155043
876,862.7327940744277
877,862.4768596273051
878,862.2211554516092
879,861.9656072639623
880,861.7101419267018
881,861.4546878546432
882,861.1991754282127
883,860.9435374203092
884,860.6877094444292
885,860.4316304306583
886,860.1752431340715
887,859.9184946772576
888,859.6613371260033
889,859.4037280952663
890,859.1456313813692
891,858.887017615453
892,858.6278649326329
893,858.368159651039
894,858.1078969546069
895,857.8470815725111
896,857.5857284468577
897,857.3238633798406
898,857.0615236527964
899,856.798758611825
900,856.5356302167382
901,856.272213551532
902,856.0085972956164
903,855.7448841560014
904,855.4811912614542
905,855.2176505201334
906,854.954408942193
907,854.6916289282539
908,854.429488523536
909,854.1681816362974
910,853.9079182184403
911,853.6489244057378
912,853.391442614811
913,853.1357315935793
914,852.8820664215053
915,852.6307384555712
916,852.3820552174905
917,852.1363402173009
