frame_number,force
0,851.5245148532092
1,851.3644998572635
2,851.2022457063887
3,851.0379450662524
4,850.8717905400849
5,850.7039742033321
6,850.5346871316245
7,850.364118927831
8,850.192457254946
9,850.0198873817369
10,849.8465917470012
11,849.6727495459851
12,849.4985363401277
13,849.3241236900898
14,849.1496788119733
15,848.9753642566793
16,848.8013376120563
17,848.6277512273504
18,848.4547519600105
19,848.2824809461599
20,848.1110733976343
21,847.9406584298888
22,847.7713589258126
23,847.6032914404003
24,847.4365661504606
25,847.2712868524296
26,847.107551010148
27,846.9454498532936
28,846.7850685264175
29,846.6264862887914
30,846.4697767665957
31,846.3150082604786
32,846.162244112035
33,846.011543131762
34,845.8629600889055
35,845.7165462612539
36,845.5723500413012
37,845.4304175946938
38,845.2907935672229
39,845.1535218369414
40,845.0186463072235
41,844.8862117342939
42,844.7562645797906
43,844.6288538769675
44,844.504032099297
45,844.3818560220855
46,844.2623875699641
47,844.1456946449395
48,844.0318519309159
49,843.9209416712602
50,843.8130544160211
51,843.7082897348349
52,843.6067568906932
53,843.5085754691585
54,843.4138759575596
55,843.3228002690571
56,843.2355022068543
57,843.1521478639673
58,843.072915953777
59,842.9979980662279
60,842.9275988442007
61,842.8619360744293
62,842.8012406875033
63,842.7457566622761
64,842.6957408314566
65,842.651462586918
66,842.6132034849036
67,842.5812567528984
68,842.5559267015718
69,842.5375280464564
70,842.5263851443009
71,842.5228311481759
72,842.5272070838093
73,842.5398608479956
74,842.5611461288977
75,842.5914212477464
76,842.6310479214628
77,842.6803899458722
78,842.7398117994861
79,842.8096771684997
80,842.8903473949186
81,842.9821798516634
82,843.0855262508351
83,843.2007308936603
84,843.328128872692
85,843.4680442385245
86,843.6207881446128
87,843.7866569848887
88,843.9659305400152
89,844.1588701494045
90,844.3657169271254
91,844.5866900397679
92,844.8219850629973
93,845.0717724315311
94,845.3361959955705
95,845.6153716957522
96,845.9093863681902
97,846.2182966905336
98,846.5421282786021
99,846.8808749411471
100,847.2344980983042
101,847.6029263680807
102,847.9860553247264
103,848.3837474323516
104,848.7958321557713
105,849.2221062479556
106,849.662334210157
107,850.1162489176742
108,850.5835524016918
109,851.0639167754015
110,851.5569852903631
111,852.0623735072996
112,852.5796705650582
113,853.1084405325834
114,853.6482238307931
115,854.1985387132386
116,854.7588827957561
117,855.3287346262098
118,855.9075552864841
119,856.494790020242
120,857.0898698810944
121,857.6922133963792
122,858.3012282420264
123,858.9163129243769
124,859.5368584652441
125,860.1622500864873
126,860.7918688897519
127,861.4250935260857
128,862.061301849238
129,862.6998725456466
130,863.3401867333318
131,863.9816295211242
132,864.6235915189554
133,865.2654702893885
134,865.906671730093
135,866.54661137685
136,867.1847156174326
137,867.8204228083976
138,868.4531842888148
139,869.0824652867591
140,869.7077457162674
141,870.3285208648609
142,870.9443019744122
143,871.5546167204063
144,872.1590095960521
145,872.7570422083686
146,873.3482934936266
147,873.9323598595658
148,874.508855262
149,875.0774112239358
150,875.637676805702
151,876.1893185338961
152,876.7320202949625
153,877.2654831967166
154,877.7894253992553
155,878.3035819161821
156,878.8077043878102
157,879.3015608289796
158,879.784935354171
159,880.2576278813679
160,880.7194538141862
161,881.1702436998423
162,881.6098428588475
163,882.0381109810232
164,882.4549216819023
165,882.8601620142522
166,883.2537319313134
167,883.6355437008343
168,884.0055212713829
169,884.3635995942718
170,884.7097239057534
171,885.0438489753036
172,885.3659383270209
173,885.6759634423007
174,885.9739029529808
175,886.2597418353312
176,886.5334706163803
177,886.79508460415
178,887.0445831515937
179,887.2819689607824
180,887.5072474302898
181,887.7204260456373
182,887.9215138102868
183,888.1105207128803
184,888.2874572252384
185,888.4523338253454
186,888.6051605402914
187,888.745946505516
188,888.8746995381147
189,888.9914257233165
190,889.0961290148601
191,889.1888108519712
192,889.269469797414
193,889.3381012019711
194,889.3946969005591
195,889.4392449442355
196,889.4717293709652
197,889.492130016657
198,889.5004223668566
199,889.4965774485111
200,889.4805617605354
201,889.4523372418599
202,889.4118612762064
203,889.3590867336192
204,889.2939620494964
205,889.2164313425119
206,889.1264345737278
207,889.0239077506893
208,888.9087831820864
209,888.7809897896817
210,888.6404534838897
211,888.4870976077493
212,888.3208434517497
213,888.1416108398413
214,887.9493187855951
215,887.7438862168547
216,887.5252327666904
217,887.29327962741
218,887.0479504626733
219,886.7891723706972
220,886.5168768896509
221,886.2310010350706
222,885.9314883585101
223,885.6182900162025
224,885.291365835878
225,884.9506853695187
226,884.5962289204878
227,884.227988535055
228,883.8459689498177
229,883.4501884872574
230,883.0406798921731
231,882.6174911027125
232,882.1806859513523
233,881.7303447929912
234,881.2665650587433
235,880.7894617348347
236,880.2991677663279
237,879.7958343852629
238,879.2796313624
239,878.7507471816291
240,878.2093891369608
241,877.655783353714
242,877.0901747374114
243,876.5128268554763
244,875.9240217578642
245,875.3240597430718
246,874.7132590754321
247,874.0919556583996
248,873.4605026669807
249,872.8192701412763
250,872.168644543174
251,871.5090282797867
252,870.8408391992076
253,870.1645100652408
254,869.4804880177621
255,868.7892340249268
256,868.0912223332282
257,867.3869399215887
258,866.6768859660327
259,865.9615713216465
260,865.2415180279833
261,864.5172588422446
262,863.789336801411
263,863.0583048110078
264,862.3247252557928
265,861.5891696269082
266,860.8522181601911
267,860.1144594802332
268,859.3764902440245
269,858.6389147769877
270,857.90234469327
271,857.1673984912959
272,856.4347011147917
273,855.7048834689825
274,854.9785818816292
275,854.256437499234
276,853.5390956104064
277,852.8272048911109
278,852.1214165697933
279,851.4223835134115
280,850.7307592376862
281,850.0471968462291
282,849.3723479036174
283,848.706861247248
284,848.0513817424032
285,847.4065489845167
286,846.7729959518488
287,846.1513476105797
288,845.5422194731527
289,844.9462161102659
290,844.3639296176065
291,843.7959380402662
292,843.2428037605126
293,842.705071857627
294,842.1832684510925
295,841.6778990400574
296,841.1894468526458
297,840.7183712183694
298,840.2651059757594
299,839.830057926012
300,839.4136053425374
301,839.016096545983
302,838.6378485542288
303,838.27914581662
304,837.9402390413895
305,837.6213441253722
306,837.3226411961087
307,837.0442737778576
308,836.7863480942051
309,836.5489325204699
310,836.3320571987779
311,836.1357138272207
312,835.9598556316308
313,835.804397524669
314,835.6692164532985
315,835.5541519332957
316,835.4590067681341
317,835.3835479486199
318,835.3275077283306
319,835.2905848679878
320,835.2724460393787
321,835.272727376871
322,835.2910361628453
323,835.3269526330073
324,835.3800318881259
325,835.4498058993106
326,835.5357855939967
327,835.6374630096595
328,835.7543135024117
329,835.8857979979211
330,836.0313652720249
331,836.1904542479182
332,836.3624962961779
333,836.5469175233313
334,836.7431410341694
335,836.9505891525454
336,837.1686855852151
337,837.3968575137225
338,837.6345376003856
339,837.8811658957717
340,838.1361916366017
341,838.3990749251615
342,838.6692882838065
343,838.9463180802279
344,839.229665820447
345,839.5188493075232
346,839.8134036653175
347,840.1128822283794
348,840.4168573007285
349,840.7249207875745
350,841.0366847045052
351,841.3517815684481
352,841.6698646743868
353,841.9906082619642
354,842.3137075765799
355,842.6388788295931
356,842.9658590613589
357,843.294405909285
358,843.624297281511
359,843.9553309356597
360,844.2873239618733
361,844.6201121703374
362,844.9535493855277
363,845.2875066517711
364,845.6218713568163
365,845.9565462817224
366,846.2914485865576
367,846.6265087422802
368,846.961669419834
369,847.2968843481863
370,847.6321171541463
371,847.9673401981817
372,848.3025334210091
373,848.6376832146424
374,848.972781329172
375,849.307823823936
376,849.64281006972
377,849.9777418074052
378,850.3126222677657
379,850.6474553563393
380,850.982244906088
381,851.3169939989823
382,851.6517043561329
383,851.9863757950679
384,852.321005752198
385,852.6555888681459
386,852.9901166333027
387,853.3245770908178
388,853.6589545942462
389,853.9932296169518
390,854.3273786099304
391,854.6613739041574
392,854.9951836529185
393,855.3287718086611
394,855.6620981278228
395,855.9951181964194
396,856.3277834692086
397,856.6600413157793
398,856.991835067869
399,857.3231040636898
400,857.653783686834
401,857.9838053988511
402,858.3130967655109
403,858.6415814773673
404,858.9691793659249
405,859.2958064175904
406,859.6213747883033
407,859.9457928218357
408,860.2689650740848
409,860.5907923444548
410,860.9111717139981
411,861.2299965888052
412,861.5471567466016
413,861.8625383848959
414,862.1760241699703
415,862.4874932865213
416,862.7968214872799
417,863.1038811412128
418,863.4085412792537
419,863.7106676382572
420,864.0101227058118
421,864.306765769359
422,864.6004529726297
423,864.8910373815773
424,865.178369061576
425,865.4622951676072
426,865.7426600488109
427,866.0193053677335
428,866.292070233404
429,866.5607913465586
430,866.8253031547782
431,867.0854380148958
432,867.3410263604084
433,867.5918968733204
434,867.8378766623662
435,868.0787914517987
436,868.3144657860403
437,868.5447232551978
438,868.769386744869
439,868.9882787111776
440,869.2012214791492
441,869.4080375602368
442,869.6085499838433
443,869.8025826383707
444,869.9899606193055
445,870.1705105844471
446,870.3440611187795
447,870.5104431130491
448,870.6694901607189
449,870.8210389778411
450,870.9649298496553
451,871.1010071064421
452,871.2291196296283
453,871.3491213875311
454,871.4608719984625
455,871.5642373172278
456,871.6590900395055
457,871.7453103169927
458,871.822786374396
459,871.8914151177286
460,871.9511027228175
461,872.0017651937827
462,872.0433288829104
463,872.0757309647897
464,872.0989198583666
465,872.1128555910179
466,872.1175100994474
467,872.1128674632808
468,872.0989240685002
469,872.0756886992036
470,872.04318255775
471,872.0014392151905
472,871.9505044958819
473,871.8904363020221
474,871.8213043852782
475,871.7431900734781
476,871.6561859603694
477,871.5603955656603
478,871.4559329711172
479,871.3429224367408
480,871.2214979994269
481,871.0918030553787
482,870.9539899270851
483,870.8082194160379
484,870.6546603434371
485,870.4934890826153
486,870.3248890884043
487,870.1490504299959
488,869.9661693348066
489,869.776447750958
490,869.5800929349422
491,869.3773170693803
492,869.1683369142008
493,868.9533734932927
494,868.7326518177088
495,868.5064006459004
496,868.2748522809757
497,868.0382424039371
498,867.7968099400272
499,867.5507969532579
500,867.3004485626353
501,867.046012872911
502,866.7877409129941
503,866.5258865759859
504,866.2607065553424
505,865.9924602716171
506,865.7214097839997
507,865.447819680815
508,865.1719569431368
509,864.894090775537
510,864.6144923980851
511,864.3334347947374
512,864.0511924154572
513,863.7680408321313
514,863.4842563505771
515,863.2001155821894
516,862.9158949792251
517,862.6318703377347
518,862.3483162720788
519,862.0655056651951
520,861.7837090995413
521,861.5031942744858
522,861.2242254158458
523,860.9470626817189
524,860.6719615664167
525,860.399172302488
526,860.1289392603886
527,859.8615003464183
528,859.5970864016806
529,859.3359206072944
530,859.0782179032672
531,858.8241844301313
532,858.5740170035492
533,858.3279026324254
534,858.08601809048
535,857.8485295500874
536,857.6155922861329
537,857.3873504568755
538,857.1639369680096
539,856.945473424986
540,856.7320701769929
541,856.5238264537016
542,856.3208305932283
543,856.1231603573502
544,855.930883328315
545,855.7440573805956
546,855.5627312201844
547,855.3869449830243
548,855.2167308831278
549,855.0521139004151
550,854.8931124986939
551,854.7397393653977
552,854.5920021660389
553,854.4499043071647
554,854.3134457020335
555,854.1826235341705
556,854.057433016109
557,853.9378681436747
558,853.823922448964
559,853.7155897564679
560,853.6128649460965
561,853.5157447247248
562,853.4242284054232
563,853.3383186917771
564,853.258022464043
565,853.1833515640221
566,853.1143235757439
567,853.0509625987659
568,852.9933000099494
569,852.9413752082122
570,852.8952363354276
571,852.8549409657484
572,852.8205567552603
573,852.7921620438353
574,852.7698464011659
575,852.7537111091513
576,852.7438695729919
577,852.740447653618
578,852.7435839148577
579,852.7534297802666
580,852.7701495963045
581,852.793920599712
582,852.8249327870078
583,852.8633886830067
584,852.9095030038345
585,852.9635022091832
586,853.0256239391462
587,853.0961163323585
588,853.175237223354
589,853.2632532178812
590,853.3604386458869
591,853.4670743929411
592,853.5834466115673
593,853.7098453142845
594,853.8465628508183
595,853.9938922734742
596,854.1521255970797
597,854.3215519623842
598,854.5024557132588
599,854.6951143984014
600,854.8997967088657
601,855.1167603645968
602,855.3462499658134
603,855.5884948274014
604,855.8437068160445
605,856.1120782106697
606,856.3937796069034
607,856.688957885557
608,856.9977342639575
609,857.3202024477604
610,857.6564269001211
611,858.0064412447042
612,858.37024681859
613,858.7478113902225
614,859.1390680559139
615,859.5439143263535
616,859.9622114125316
617,860.3937837184759
618,860.8384185459223
619,861.2958660134843
620,861.7658391903057
621,862.2480144416846
622,862.7420319817855
623,863.2474966264053
624,863.7639787371617
625,864.2910153478855
626,864.8281114645658
627,865.3747415312024
628,865.9303510543482
629,866.4943583784974
630,867.0661566029158
631,867.6451156283645
632,868.2305843199207
633,868.8218927704146
634,869.4183546484294
635,870.0192696154326
636,870.6239257978759
637,871.2316023011743
638,871.841571752846
639,872.4531028620032
640,873.0654629823387
641,873.6779206660177
642,874.2897481962979
643,874.9002240866059
644,875.508635532635
645,876.1142808021041
646,876.7164715452482
647,877.3145350086774
648,877.9078161360268
649,878.495679540741
650,879.0775113395019
651,879.6527208387984
652,880.2207420706559
653,880.7810351754972
654,881.3330876307842
655,881.8764153247351
656,882.4105634755217
657,882.9351073973044
658,883.4496531146697
659,883.9538378270015
660,884.4473302250003
661,884.9298306633544
662,885.4010711959996
663,885.8608154825364
664,886.3088585754552
665,886.7450265978365
666,887.1691763205984
667,887.5811946475326
668,887.9809980153899
669,888.3685317152947
670,888.7437691411017
671,889.106710970094
672,889.4573842811958
673,889.7958416150788
674,890.1221599793024
675,890.4364398005282
676,890.7388038252781
677,891.0293959707158
678,891.308380127385
679,891.5759389165596
680,891.8322724057148
681,892.0775967864979
682,892.3121430202416
683,892.5361554563791
684,892.7498904291526
685,892.9536148379041
686,893.1476047163
687,893.332143796512
688,893.5075220756562
689,893.6740343929316
690,893.8319790260921
691,893.9816563151965
692,894.123367320791
693,894.2574125233449
694,894.3840905708887
695,894.5036970821594
696,894.6165235127212
697,894.722856090906
698,894.8229748285044
699,894.9171526081909
700,895.0056543468263
701,895.0887362322745
702,895.1666450315445
703,895.2396174691269
704,895.3078796754198
705,895.3716467058053
706,895.4311221315061
707,895.4864977039125
708,895.537953094012
709,895.5856557071558
710,895.6297605709439
711,895.6704102917929
712,895.70773507472
713,895.7418528007697
714,895.7728691565662
715,895.8008778103102
716,895.8259606282958
717,895.8481879259818
718,895.8676187481296
719,895.88430117347
720,895.8982726402821
721,895.9095602896971
722,895.9181813237642
723,895.9241433758883
724,895.9274448921699
725,895.9280755229574
726,895.9260165241845
727,895.9212411677844
728,895.9137151598288
729,895.9033970642986
730,895.8902387298388
731,895.8741857168013
732,895.8551777225471
733,895.8331490041684
734,895.8080287989609
735,895.779741743642
736,895.7482082934374
737,895.71334514192
738,895.6750656420872
739,895.6332802286622
740,895.5878968410605
741,895.5388213460104
742,895.4859579585667
743,895.4292096603007
744,895.3684786139899
745,895.3036665752848
746,895.2346753031753
747,895.1614069718672
748,895.0837645868983
749,895.0016524087348
750,894.9149763879982
751,894.8236446172235
752,894.7275678038313
753,894.6266597678525
754,894.5208379665108
755,894.4100240464004
756,894.2941444225954
757,894.1731308824068
758,894.0469212094849
759,893.9154598213878
760,893.7786984106503
761,893.6365965763769
762,893.489122431294
763,893.3362531686456
764,893.1779755741269
765,893.0142864697597
766,892.8451930788889
767,892.6707133040503
768,892.4908759117901
769,892.3057206203135
770,892.1152980872673
771,891.9196697964343
772,891.7189078438744
773,891.5130946261007
774,891.3023224349857
775,891.0866929658251
776,890.8663167461252
777,890.6413124935648
778,890.4118064126459
779,890.17793144077
780,889.9398264555206
781,889.6976354554168
782,889.4515067260559
783,889.2015920025294
784,888.9480456379603
785,888.6910237875339
786,888.430683617206
787,888.1671825455353
788,887.9006775255905
789,887.6313243723029
790,887.3592771397687
791,887.0846875526977
792,886.8077044956274
793,886.5284735620756
794,886.2471366635822
795,885.9638316963022
796,885.6786922613016
797,885.3918474342063
798,885.1034215800154
799,884.8135342094378
800,884.5222998740682
801,884.2298280987236
802,883.9362233494372
803,883.6415850344797
804,883.3460075339484
805,883.0495802521757
806,882.7523876874016
807,882.4545095148949
808,882.1560206822323
809,881.8569915178268
810,881.5574878555766
811,881.2575711796482
812,880.9572987938194
813,880.6567240193907
814,880.3558964246405
815,880.0548620875504
816,879.7536638921232
817,879.4523418569757
818,879.1509334932516
819,878.8494741877462
820,878.547997606635
821,878.2465361147549
822,877.9451212042584
823,877.6437839247594
824,877.3425553057826
825,877.0414667621079
826,876.7405504731342
827,876.4398397278982
828,876.1393692276328
829,875.8391753382136
830,875.5392962859406
831,875.2397722916744
832,874.9406456399612
833,874.6419606812913
834,874.3437637671002
835,874.0461031186597
836,873.7490286326821
837,873.4525916281092
838,873.1568445398592
839,872.8618405660037
840,872.567633275076
841,872.2742761804299
842,871.9818222891062
843,871.6903236332315
844,871.3998307921113
845,871.1103924130513
846,870.8220547389433
847,870.5348611506015
848,870.2488517311133
849,869.9640628580636
850,869.6805268281246
851,869.3982715176438
852,869.1173200820115
853,868.8376906950962
854,868.5593963282406
855,868.2824445672768
856,868.0068374665573
857,867.7325714409327
858,867.4596371987766
859,867.1880197202157
860,866.9176982842564
861,866.6486465472063
862,866.3808326734483
863,866.1142195180886
864,865.8487648587426
865,865.5844216709755
866,865.3211384399895
867,865.058859501001
868,864.7975254019567
869,864.5370732836425
870,864.277437273258
871,864.0185488882311
872,863.7603374477545
873,863.5027304902819
874,863.2456541955754
875,862.9890338094401
876,862.7327940684077
877,862.4768596213329
878,862.2211554456882
879,861.9656072580946
880,861.7101419208883
881,861.4546878488842
882,861.1991754225073
883,860.9435374146561
884,860.6877094388262
885,860.4316304251032
886,860.1752431285615
887,859.9184946717903
888,859.6613371205761
889,859.4037280898773
890,859.1456313760168
891,858.8870176101365
892,858.6278649273518
893,858.3681596457936
894,858.1078969493975
895,857.8470815673386
896,857.5857284417224
897,857.3238633747426
898,857.0615236477355
899,856.7987586068003
900,856.5356302117485
901,856.2722135465754
902,856.0085972906904
903,855.7448841511036
904,855.4811912565833
905,855.2176505152887
906,854.9544089373748
907,854.6916289234626
908,854.4294885187732
909,854.1681816315651
910,853.9079182137409
911,853.6489244010745
912,853.3914426101873
913,853.1357315889986
914,852.882066416971
915,852.6307384510869
916,852.3820552130596
917,852.1363402129264
