acceleration,velocity,displacement
-0.09298483169494129,0.0,0.0
-0.09469666118713396,-4.692037322051881e-05,-1.1730093305129704e-08
-0.09644815333372203,-9.470657685073281e-05,-4.713683082294261e-08
-0.09823943655229915,-0.0001433784743222381,-1.0665809361618534e-07
-0.10007014615552376,-0.00019295586999919383,-1.9074167969654333e-07
-0.10193944218884789,-0.00024345826708528675,-2.998452139676635e-07
-0.10384604929835449,-0.00029490463995708734,-4.34435940728257e-07
-0.10578831050579225,-0.00034731322990812403,-5.949904081945598e-07
-0.10776424527910124,-0.0004007013688543474,-7.819940578851776e-07
-0.10977160225969092,-0.00045508533073904546,-9.959407327835258e-07
-0.1118078991986878,-0.0005104802061036401,-1.2373321169941973e-06
-0.11387044701956754,-0.000566899792658204,-1.5066771166846583e-06
-0.11595635944844457,-0.000624356494275207,-1.804491188418011e-06
-0.11806255204658776,-0.0006828612221489651,-2.131295617524054e-06
-0.12018573483199785,-0.0007424232938686115,-2.4876167465284483e-06
-0.12232240281424323,-0.0008030503282801717,-2.873985152065644e-06
-0.12446882947044384,-0.0008647481363513436,-3.2909347682235227e-06
-0.12662106858010996,-0.000927520610863982,-3.739001955027354e-06
-0.12877496895823204,-0.0009913696202485675,-4.218724512805492e-06
-0.13092620443401018,-0.0010562949135966282,-4.73064064626679e-06
-0.13307031857245094,-0.0011222940443482434,-5.275287885753008e-06
-0.1352027810639364,-0.0011893623192573402,-5.853201976654404e-06
-0.13731905123371663,-0.0012574927773317535,-6.464915750801677e-06
-0.13941464406470921,-0.00132667620115636,-7.110957995423706e-06
-0.14148519519441163,-0.0013969011609711402,-7.79185233595558e-06
-0.14352652295059395,-0.0014681540905073915,-8.508116148825213e-06
-0.14553468720281743,-0.0015404193930457443,-9.260259519713497e-06
-0.1475060463767646,-0.0016136795764406398,-1.0048784262085093e-05
-0.14943731473907884,-0.0016879154167196006,-1.0874183010375153e-05
-0.1513256209766703,-0.0017631061506485379,-1.1736938402217186e-05
-0.15316856607893486,-0.0018392296974124392,-1.263752236423243e-05
-0.15496427515734573,-0.0019162629077215092,-1.3576395515515918e-05
-0.15671143616039288,-0.001994181835550944,-1.455400670133403e-05
-0.1584093194189013,-0.0020729620244457673,-1.5570792666333208e-05
-0.16005777495697004,-0.002152578798039735,-1.6627177871954584e-05
-0.16165720786781942,-0.0022330075437459324,-1.7723574457401e-05
-0.16320853414435244,-0.002314223979248975,-1.8860382338149726e-05
-0.16471311944345168,-0.002396204392645926,-2.003798943112345e-05
-0.16617270185758193,-0.0024789258479711845,-2.125677199127773e-05
-0.1675892984381824,-0.0025623663480451257,-2.2517095040281805e-05
-0.16896509584509461,-0.002646504946615945,-2.3819312863947074e-05
-0.17030232886294822,-0.0027313218027929555,-2.5163769551299298e-05
-0.17160315515289057,-0.0028167981737969154,-2.6550799545446765e-05
-0.17286953749793824,-0.0029029163469596227,-2.7980728175635898e-05
-0.17410314399767896,-0.002989659517333527,-2.9453872141709184e-05
-0.1753052729398374,-0.0030770116215679062,-3.0970539926434545e-05
-0.17647680468578866,-0.003164957140974313,-3.25310321170701e-05
-0.17761817936326574,-0.0032534808869865766,-3.4135641624060324e-05
-0.17872939673427152,-0.003342567781010961,-3.578465379105971e-05
-0.17981003325261777,-0.0034322026385076834,-3.7478346395939374e-05
-0.1808592711621147,-0.0035223699646113665,-3.9216989546719134e-05
-0.1818759354768078,-0.003613053766271097,-4.100084547943975e-05
-0.182858536233484,-0.0037042373841986703,-4.283016826705719e-05
-0.18380531457478264,-0.003795903346900737,-4.470520344983204e-05
-0.18471429148082313,-0.0038880332484146386,-4.662618759866089e-05
-0.18558331758050076,-0.00398060765067997,-4.859334782343454e-05
-0.18641012209792898,-0.004073606010599577,-5.0606901238754425e-05
-0.18719235912652055,-0.00416700663090569,-5.2667054399130744e-05
-0.18792765018856225,-0.0042607866332344604,-5.477400271516578e-05
-0.18861362318952948,-0.0043549219515789835,-5.692792986136914e-05
-0.18924794903992626,-0.004449387344636347,-5.9129007185422975e-05
-0.1898283781307923,-0.004544156426429027,-6.137739312818932e-05
-0.19035277923469707,-0.0046392017157703995,-6.367323266373918e-05
-0.1908191827888875,-0.004734494706276296,-6.601665676925085e-05
-0.19122582875317312,-0.004830005959161811,-6.840778193561037e-05
-0.19157121700482738,-0.0049257052206013105,-7.084670973055115e-05
-0.19185415626674363,-0.005021561563919203,-7.333352642668128e-05
-0.19207380575674038,-0.005117543554425074,-7.586830270626735e-05
-0.19222970191548217,-0.00521361943134313,-7.84510934527094e-05
-0.19232176147145186,-0.005309757297189863,-8.108193763484264e-05
-0.19235025280400134,-0.005405925300758726,-8.37608582843298e-05
-0.1923157303355396,-0.005502091796543611,-8.648786255865537e-05
-0.19221893081653885,-0.005598225461831631,-8.926294187324918e-05
-0.19206063459706743,-0.005694295353185033,-9.208607207700334e-05
-0.19184149816644802,-0.005790270886375911,-9.495721363689358e-05
-0.19156186620411167,-0.005886121727468551,-9.787631179035469e-05
-0.1912215727481373,-0.005981817587206614,-0.00010084329661902349
-0.19081974226268966,-0.00607732791595932,-0.00010385808299481497
-0.19035460224075135,-0.00617262150208518,-0.00010692057034932609
-0.18982331916621747,-0.006267665982436923,-0.00011003064222045661
-0.1892218687515664,-0.006362427279416369,-0.00011318816553591993
-0.18854494921111672,-0.006456868983907039,-0.00011639298960175078
-0.18778594338000223,-0.006550951707054819,-0.00011964494477449125
-0.186936932444754,-0.006644632426011009,-0.0001229438408077577
-0.18598876137317347,-0.00673786384946549,-0.00012628946487662683
-0.1849311539779639,-0.006830593828303274,-0.00012968157929606902
-0.18375287387454892,-0.006922764835266403,-0.00013311991896196144
-0.1824419261344826,-0.0070143135352686604,-0.00013660418855459522
-0.1809857927203031,-0.0071051704649823565,-0.00014013405955465798
-0.17937169262202102,-0.0071952598363179375,-0.00014370916712998306
-0.17758685575681457,-0.007284499473412647,-0.00014732910695741571
-0.1756187994727823,-0.007372800887220046,-0.0001509934320475739
-0.17345559835582092,-0.007460069486677197,-0.00015470164964104819
-0.17108614083041682,-0.007546204921473757,-0.00015845321824308593
-0.1685003681031705,-0.007631101548707154,-0.00016224754486063116
-0.1656894915566668,-0.0077146490136221135,-0.00016608398250121347
-0.16264618421724697,-0.007796732932565592,-0.0001699618279877604
-0.15936474153689414,-0.007877235664004128,-0.00017388032013690284
-0.15584120744356023,-0.007956037151249241,-0.00017783863834071618
-0.15207346336585487,-0.008033015818951595,-0.0001818359015832664
-0.1480612794952183,-0.008108049504666863,-0.000185871167914171
-0.14380632768737,-0.00818101640646251,-0.00018994343439195335
-0.1393121541701793,-0.008251796026926899,-0.0001940516375003007
-0.13458410895698533,-0.008320270092708689,-0.00019819465403020958
-0.12962922916198702,-0.008386323427238431,-0.00020237130241019635
-0.12445607590263892,-0.008449844753504588,-0.0002065803444553821
-0.11907452825548662,-0.00851072740454412,-0.00021082048749489427
-0.11349554123550253,-0.008568869921916867,-0.00021509038682650952
-0.10773087731183047,-0.0086241765265537,-0.00021938864843862717
-0.1017928231381173,-0.008676557451666188,-0.00022371383193318215
-0.09569390547012742,-0.00872592913381825,-0.00022806445357955327
-0.08944662185470204,-0.008772214265649458,-0.0002324389894294202
-0.08306320111878937,-0.00881534172139283,-0.00023683587842618077
-0.07655540551285112,-0.00885524637305074,-0.00024125352544979167
-0.06993438170689938,-0.008891868819855677,-0.0002456903042480183
-0.06321056346586787,-0.008925155056148869,-0.0002501445602170194
-0.05639362580132723,-0.008955056103465668,-0.00025461461300692307
-0.04949248833011125,-0.008981527631998528,-0.0002590987589407891
-0.04251536336680935,-0.009004529594922758,-0.00026359527324751943
-0.03546984171466723,-0.009024025896193126,-0.0002681024121202984
-0.02836300712103479,-0.009039984108402052,-0.00027261841462144717
-0.021201569534925222,-0.009052375252566042,-0.00027714150446168917
-0.013992007109069867,-0.00906117364672704,-0.00028166989168651246
-0.00674070660621969,-0.009066356825155863,-0.0002862017743044832
0.000545908323236482,-0.009067905524726609,-0.0002907353398919538
0.007861270850841057,-0.009065803729933089,-0.0002952687672056187
0.01519859467776307,-0.009060038763550937,-0.0002998002278289897
0.02255083324658936,-0.009050601406569849,-0.00030432788787151987
0.02991067744054275,-0.009037486028898065,-0.0003088499097303868
0.03727059235672797,-0.009020690711448748,-0.0003133644539154735
0.04462289130352847,-0.009000217340533684,-0.00031786968092846913
0.05195984267779633,-0.008976071657038353,-0.00032236375317786214
0.05927380302232699,-0.008948263245613323,-0.00032684483690352507
0.06655736742266845,-0.008916805453002073,-0.0003313111040781789
0.07380352640776895,-0.008881715229544463,-0.00033576073424881555
0.08100581712719258,-0.008843012893660723,-0.00034019191627961685
0.08815845674851236,-0.008800721825191796,-0.00034460284995933
0.09525644787378085,-0.008754868099036223,-0.000348991747440387
0.10229564816971397,-0.008705480075025349,-0.00035335683448390237
0.10927279850129155,-0.008652587963357597,-0.0003576963514934981
0.11618550615487246,-0.008596223387193555,-0.0003620085543311359
0.12303218299476468,-0.008536418964906145,-0.0003662917149191608
0.12981194224065318,-0.00847320793359729,-0.00037054412164378667
0.13652446072915958,-0.008406623832854836,-0.0003747640795853997
0.1431698152575287,-0.008336700263858163,-0.000378949910609578
0.14974830213226173,-0.008263470734510716,-0.0003830999533591702
0.15626024889722653,-0.008186968596753344,-0.0003872125631919862
0.16270582681664492,-0.008107227077824877,-0.00039128611211063075
0.16908487261951982,-0.008024279402965835,-0.0003953189887308284
0.17539672862523537,-0.007938159002654646,-0.0003993095983322335
0.18164011080395506,-0.007848899792797348,-0.0004032563630310965
0.18781301296683314,-0.007756536511854651,-0.0004071577221072595
0.1939126516823005,-0.007661105095692368,-0.0004110121325091463
0.19993545207880972,-0.00756264306975209,-0.0004148180695505074
0.20587707143138978,-0.007461189938874541,-0.00041857402780266404
0.2117324566213979,-0.0073567875568613435,-0.000422278522176598
0.21749593299946238,-0.0072494804594561285,-0.00042593008918067737
0.22316132407237843,-0.0071393161451881685,-0.00042952728833183846
0.2287221016892498,-0.007026345288747762,-0.0004330687036903224
0.23417156440598574,-0.006910621872223952,-0.00043655294548056536
0.23950303845644966,-0.006792203221508344,-0.0004399786517539984
0.24471009247339182,-0.006671149938775884,-0.0004433444900440695
0.24978675427338615,-0.006547525727089189,-0.00044664915896053573
0.2547277158586038,-0.006421397109556192,-0.00044989138966969707
0.25952851196211196,-0.006292833052601013,-0.00045306994721023636
0.26418565874795397,-0.006161904509923497,-0.0004561836316008675
0.26869674263966326,-0.006028683909576593,-0.0004592312787057425
0.2730604537123985,-0.005893244610488577,-0.0004622117608357588
0.2772765623810223,-0.005755660356465222,-0.0004651239870774972
0.2813458414234678,-0.005616004755514099,-0.0004679669033554921
0.2852699377401142,-0.005474350810723204,-0.0004707394922470514
0.28905120032251974,-0.005330770526207546,-0.0004734407725812841
0.2926924730624732,-0.0051853346078612975,-0.0004760697988648013
0.2961968630598843,-0.005038112273830708,-0.0004786256605852243
0.2995674969566693,-0.00488917118382657,-0.00048110748144963866
0.3028072799492867,-0.004738577489600081,-0.00048351441861799535
0.3059186741675067,-0.0045863960010708825,-0.0004858456619906631
0.30890351330713134,-0.004432690454202223,-0.00048810043360448136
0.31176286732993885,-0.004277523859042956,-0.0004902779871827927
0.31449696535420263,-0.0041209589008719206,-0.0004923776078727713
0.3171051785670961,-0.003963058364891596,-0.0004943986121892123
0.3195860595964215,-0.0038038855553507167,-0.0004963403481692729
0.3219374306417413,-0.003643504682791176,-0.0004982021957288084
0.3241565095612269,-0.003481981197740434,-0.0004999835671989413
0.3262400610645086,-0.0033193820550840004,-0.0005016839080121474
0.32818455969064586,-0.0031557758998952117,-0.0005033026975008922
0.329986352588215,-0.0029912331718254964,-0.0005048394497688223
0.33164181254235797,-0.002825826130542853,-0.0005062937145944145
0.3331474741810428,-0.002659628808862003,-0.0005076650783292656
0.3345001486322542,-0.0024927169031586783,-0.0005089531647572708
0.33569701470338537,-0.0023251676123247685,-0.0005101576358861416
0.33673568807311727,-0.002157059436630643,-0.0005112781926483804
0.33761427301715075,-0.001988471946358076,-0.0005123145754941277
0.33833140265281825,-0.0018194855274405839,-0.0005132665648625774
0.3388862733192339,-0.001650181108447571,-0.0005141339815215494
0.3392786769178142,-0.001480639870888309,-0.0005149166867663834
0.33950903249717296,-0.0013109429435345622,-0.0005156145824699891
0.3395784158998741,-0.0011411710814353004,-0.0005162276109762316
0.3394885842720509,-0.0009714043313923191,-0.0005167557548294385
0.33924199053070253,-0.0008017216876916308,-0.0005171990363342095
0.3388417817421555,-0.0006322007446234163,-0.0005175575169422882
0.33829177541036837,-0.0004629173553352853,-0.0005178312964672779
0.3375964088763428,-0.00029394530926360755,-0.0005180205121334276
0.33676065869909255,-0.0001253560423697487,-0.000518125337471336
0.33578992850695244,4.2781604431762544e-05,-0.0005181459810808204
0.33468990540411503,0.0002104015629095294,-0.0005180826852889852
0.3334663871511959,0.00037744063604835715,-0.0005179357247392457
0.33212508559965387,0.0005438385042360696,-0.0005177054049541746
0.33067141573462105,0.0007095376295696384,-0.0005173920609207232
0.32911028243429574,0.0008744830541118677,-0.0005169960557498028
0.32744587733950975,0.001038622094055319,-0.000516517779462761
0.32568149622697956,0.0012019039374469413,-0.0005159576479548854
0.323819384186433,0.0013642791575502944,-0.0005153161021811361
0.3218606131227377,0.001525699156877587,-0.0005145936076025291
0.31980499469969303,0.0016861155588331947,-0.0005137906539236014
0.31765103175835235,0.0018454795654477061,-0.0005129077551425312
0.31539591130886097,0.0020037413012145094,-0.0005119454499258656
0.3130355412945612,0.002160849164365365,-0.0005109043023094707
0.31056463122186106,0.0023167492074944703,-0.0005097849027165057
0.30797681395067383,0.002471384568787604,-0.0005085878692724352
0.30526480334827844,0.002624694973112342,-0.0005073138493869602
0.3024205809205627,0.002776616319179552,-0.0005059635215638872
0.29943560397707764,0.002927080365403962,-0.0005045375973927414
0.2963010275041919,0.0030760145232742796,-0.0005030368236705719
0.2930079310628465,0.003223341762916039,-0.0005014619845990243
0.28954754146771355,0.003368980631048679,-0.0004998139040005332
0.28591144311889305,0.0035128453771953306,-0.0004980934474984722
0.28209177044389194,0.003654846180586027,-0.0004963015246090269
0.27808137913322833,0.003794889467980307,-0.0004944390906968853
0.27387399363852255,0.003932878311173245,-0.0004925071487520969
0.2694643285834409,0.0040687128917287355,-0.0004905067509513714
0.26484818264906507,0.004202291019536862,-0.000488438999973555
0.26002250541991356,0.004333508691554106,-0.00048630505004578227
0.2549854398119988,0.004462260677862084,-0.0004841061077034282
0.24973634405503578,0.0045884411238288425,-0.00048184343225300544
0.24427579739729743,0.004711944159191926,-0.00047951833593225024
0.23860559294369035,0.004832664506777173,-0.00047713218376575794
0.2327287194673355,0.004950498084879929,-0.00047468639311784366
0.22664933193038858,0.0050653425977293595,-0.00047218243294719136
0.22037270889429583,0.005177098107935531,-0.00046962182277077516
0.21390519516012427,0.005285667583949136,-0.000467006131347804
0.20725412971813306,0.005390957415168701,-0.00046433697509802455
0.2004277612361029,0.00549287788790726,-0.00046161601627225555
0.19343515499512914,0.005591343616965068,-0.00045884496089603746
0.18628609601514817,0.0056862739297176374,-0.0004560255565093668
0.1789909927602047,0.0057775932019114755,-0.0004531595897264595
0.17156078411950657,0.005865231146131403,-0.0004502488836394488
0.16400684961155804,0.00594912305456417,-0.0004472952950892749
0.1563409195775269,0.006029209996861441,-0.0004443007118264185
0.14857497972868758,0.006105438971687995,-0.00044126704958428114
0.14072116444041632,0.0061777630077302715,-0.00043819624908942657
0.1327916360146679,0.0062461412078440425,-0.000435090273035533
0.12479845085981393,0.006310538729562663,-0.00043195110305118133
0.11675341587875682,0.006370926696247305,-0.00042878073669472885
0.10866793890284528,0.006427282034942706,-0.00042558118451193136
0.1005528769411683,0.0064795872389037095,-0.00042235446719346973
0.09241838648162774,0.006527830054759409,-0.00041910261287005394
0.08427378136938682,0.006572003096722162,-0.00041582765458218356
0.07612740549840702,0.0066121033934391105,-0.0004125316279596432
0.06798652899137296,0.006648131877061555,-0.000409216569142018
0.05985727678450704,0.006680092828505525,-0.00040588451296562627
0.05174459654757823,0.006707993296838547,-0.00040253749143429025
0.0436522685457751,0.006731842513111885,-0.00039917753248180265
0.03558295512158074,0.006751651319028724,-0.0003958066590237675
0.027538284454435673,0.006767431628922728,-0.0003924268882867796
0.01951896311092594,0.006779195940814068,-0.0003890402313943454
0.011524913261094399,0.0067869569099070735,-0.0003856486931816651
0.0035554312504674198,0.006790726996034964,-0.0003822542722051796
-0.0043906362521565784,0.0067905181947845415,-0.0003788589609074747
-0.012314703398395917,0.006786341859871903,-0.00037546474589381063
-0.020218249545632443,0.006778208621635896,-0.0003720736082734337
-0.028102623951872588,0.00676612840326152,-0.0003686875240172093
-0.03596885901219302,0.0067501105325205035,-0.0003653084642832638
-0.043817501120040764,0.006730163942487445,-0.0003619383956645118
-0.05164846841688871,0.0067062974501032125,-0.0003585792803163641
-0.05946094383961728,0.006678520097039086,-0.00035523307592957853
-0.06725330942611223,0.006646841533722654,-0.0003519017355218881
-0.0750231236663205,0.006611272425449546,-0.00034858720703209506
-0.08276713872623419,0.0065718248598514075,-0.00034529143271076984
-0.0904813500015148,0.00652851273766947,-0.0003420163483113896
-0.09816106755004902,0.006481352133281579,-0.0003387638820936518
-0.10580099784803432,0.006430361616932057,-0.0003355359536560984
-0.11339532499285293,0.006375562536221836,-0.00033233447261780995
-0.12093778237919525,0.0063169792593788235,-0.0003291613371689098
-0.1284217081648975,0.0062546393867428,-0.0003260184325073794
-0.13584008026727448,0.006188573939634757,-0.000322907629175785
-0.14318552967661363,0.006118817537148785,-0.0003198307813065891
-0.15045033471181388,0.0060454085710516785,-0.000316789724779539
-0.1576264026091628,0.0059683893867214345,-0.0003137862752900957
-0.1647052472754344,0.0058878064742502855,-0.0003108222263248528
-0.17167797242922686,0.0058037106693241206,-0.0003078993470389592
-0.17853526764436511,0.005716157359305723,-0.0003050193800318017
-0.18526742143350172,0.005625206687036256,-0.00030218403902021625
-0.19186435149310327,0.005530923743804605,-0.00029939500641250604
-0.19831564892121606,0.005433378743701025,-0.00029665393079062965
-0.204610631420453,0.005332647173615608,-0.0002939624243113005
-0.21073840029432675,0.0052288099156869135,-0.0002913220600389749
-0.2166878974030458,0.0051219533412625706,-0.0002887343692247375
-0.22244796084111726,0.00501216937670153,-0.0002862008385452465
-0.22800738085772962,0.004899555541276818,-0.0002837229073157519
-0.23335495932797057,0.004784214956230394,-0.0002813019646913751
-0.23847957663078154,0.004666256322240706,-0.0002789393468717573
-0.24337026967989686,0.004545793860663037,-0.00027663633432603135
-0.24801632479467842,0.004422947212044393,-0.0002743941490578545
-0.2524073889801326,0.004297841283600691,-0.00027221395193394323
