acceleration,velocity,displacement
-0.09309327443593687,0.0,0.0
-0.09486173290691521,-4.698875183571302e-05,-1.1747187958928255e-08
-0.09665651059697712,-9.486831271168611e-05,-4.721145409577803e-08
-0.09847568361832121,-0.00014365136126551068,-1.0684137259007723e-07
-0.10031733222353638,-0.00019334961522597509,-1.9109161671294868e-07
-0.10217954508907634,-0.00024397383455412825,-3.0042247915797454e-07
-0.10406042352257831,-0.0002955338267070419,-4.3529939447326707e-07
-0.1059580855534189,-0.0003480384539760412,-5.961924646440379e-07
-0.10787066986126774,-0.0004014956428297129,-7.835759888454765e-07
-0.10979633949712177,-0.00045591239516931025,-9.979279983452323e-07
-0.1117332853576649,-0.0005112948013830069,-1.2397297974833117e-06
-0.1136797293866418,-0.0005676480550690835,-1.5094655115963343e-06
-0.1156339274903435,-0.0006249764692883298,-1.8076216426856878e-06
-0.11759417216147591,-0.0006832834942012847,-2.1346866335580916e-06
-0.11955879480687855,-0.0007425717359433733,-2.4911504410942562e-06
-0.12152616777525123,-0.0008028429765889058,-2.877504119227326e-06
-0.12349470608356393,-0.0008640981950536095,-3.294239412137955e-06
-0.1254628688425769,-0.0009263375887851447,-3.7418483580976436e-06
-0.12742916038006585,-0.0009895605960908054,-4.2208229043166315e-06
-0.12939213105476655,-0.0010537659189495136,-4.731654533076712e-06
-0.13135037774673528,-0.0011189515461498892,-5.274833899351562e-06
-0.1333025440035362,-0.001185114776587457,-5.850850480035898e-06
-0.13524731981880997,-0.0012522522425430435,-6.4601922348185235e-06
-0.13718344102142244,-0.0013203599327531017,-7.1033452786425596e-06
-0.1391096882585111,-0.001389433215073085,-7.780793565599106e-06
-0.14102488556269396,-0.0014594668585283864,-8.493018583999473e-06
-0.1429278985011469,-0.0015304550545443465,-9.240499062267657e-06
-0.14481763191147803,-0.0016023914371475028,-1.0023710685190619e-05
-0.14669302723426603,-0.0016752691019339388,-1.084312581996098e-05
-0.14855305945175432,-0.0017490806236054438,-1.1699213251345825e-05
-0.15039673363615214,-0.0018238180718774205,-1.259243792521654e-05
-0.15222308110401736,-0.001899473025562463,-1.3523260699576512e-05
-0.1540311551713045,-0.0019760365846312935,-1.4492138102124952e-05
-0.15582002650965535,-0.0020534993800515335,-1.5499522093295658e-05
-0.15758877811662322,-0.002131851581208103,-1.6545859833610566e-05
-0.15933649992556384,-0.00221108290071865,-1.7631593454092256e-05
-0.16106228309018164,-0.0022911825964725863,-1.8757159828390066e-05
-0.16276521398189311,-0.002372139470740605,-1.9922990345193365e-05
-0.16444436793678854,-0.0024539418662202755,-2.1129510679433586e-05
-0.16609880278765773,-0.002536577658901387,-2.2377140560714e-05
-0.16772755222080746,-0.0026200342476535034,-2.3666293537352723e-05
-0.16932961900967528,-0.002704298540461124,-2.499737673438138e-05
-0.17090396819292542,-0.0027893569372617745,-2.6370790603812106e-05
-0.1724495202750162,-0.0028751953093787597,-2.778692866547224e-05
-0.17396514452630743,-0.0029617989755790905,-2.9246177236711704e-05
-0.17544965244978467,-0.0030491526748231135,-3.074891514931226e-05
-0.17690179146924834,-0.0031372405358028716,-3.2295513451968756e-05
-0.17832023888382456,-0.00322604604339114,-3.3886335096767257e-05
-0.1797035961266298,-0.0033155520021437533,-3.552173460815098e-05
-0.1810503833612896,-0.0034057404970157332,-3.720205773294085e-05
-0.18235903444910362,-0.0034965928514683314,-3.8927641070061865e-05
-0.18362789232187812,-0.0035880895831610768,-4.0698811678719214e-05
-0.18485520479900874,-0.0036802103574412985,-4.251588666386981e-05
-0.18603912088953353,-0.003772933938863434,-4.4379172737945993e-05
-0.1871776876190409,-0.003866238140990578,-4.62889657579095e-05
-0.1882688474182676,-0.003960099774749905,-4.8245550236844616e-05
-0.18931043610690243,-0.004054494595631198,-5.024919882943989e-05
-0.19030018150410133,-0.004149397250033948,-5.2300171790856176e-05
-0.19123570269678428,-0.00424478122108417,-5.4398716408635706e-05
-0.19211450999727692,-0.004340618774257685,-5.654506640747117e-05
-0.19293400562208948,-0.004436880903162526,-5.873944132682623e-05
-0.1936914851229579,-0.004533537275848788,-6.098204587157906e-05
-0.19438413959877418,-0.004630556182029221,-6.327306923604856e-05
-0.1950090587113036,-0.00472790448160674,-6.561268440195756e-05
-0.19556323451830132,-0.004825547554914142,-6.800104741108778e-05
-0.19604356612674587,-0.004923449255075403,-7.043829661358517e-05
-0.19644686515859436,-0.005021571862896738,-7.29245518930782e-05
-0.19676986201145252,-0.00511987604468925,-7.54599138699747e-05
-0.197009212886322,-0.005218320813413694,-7.804446308450043e-05
-0.19716150754638803,-0.005316863493521872,-8.067825916123433e-05
-0.19722327776781406,-0.0054154596898504225,-8.336133995707741e-05
-0.1971910064465433,-0.0055140632609040115,-8.609372069476602e-05
-0.19706113733215821,-0.005612626296848687,-8.88753930842042e-05
-0.1968300853670538,-0.00571109910252349,-9.170632443404725e-05
-0.19649424761328793,-0.005809430185768576,-9.458645675612026e-05
-0.19605001474995273,-0.005907566251359386,-9.751570586540225e-05
-0.19549378312262486,-0.0060054522008275305,-0.00010049396047844899
-0.194821967324703,-0.0061030311384393625,-0.0001035210813132657
-0.19403101328787709,-0.006200244383592507,-0.00010659690019377367
-0.1931174118545972,-0.006297031489878126,-0.00010972121916214133
-0.19207771279807737,-0.0063933302710412945,-0.00011289380960237119
-0.19090853924452666,-0.0064890768340519454,-0.00011611441137864451
-0.18960660243958283,-0.006584205619472973,-0.00011938273199202574
-0.18816871678826128,-0.0066786494492799345,-0.00012269844575921396
-0.186591815086686,-0.006772339582248672,-0.0001260611930170961
-0.18487296385492571,-0.006865205776984074,-0.0001294705793569043
-0.18300937867335026,-0.0069571763626161435,-0.00013292617489180436
-0.1809984394192851,-0.007048178317139302,-0.00013642751356174323
-0.17883770529506274,-0.007138137353317889,-0.00013997409247935754
-0.17652492953229568,-0.007226978012024729,-0.0001435653713206932
-0.17405807365251366,-0.007314623762820931,-0.0001472007717644046
-0.1714353211653801,-0.007400997111525404,-0.00015087967698299118
-0.1686550905936573,-0.007486019714465163,-0.00015460143118948882
-0.16571604772561627,-0.007569612499044981,-0.00015836533924286635
-0.1626171170056732,-0.007651695790227803,-0.00016217066631518453
-0.159357491980409,-0.007732189442474324,-0.00016601663762336007
-0.15593664472106375,-0.0078110129766496925,-0.00016990243822814107
-0.1523543341484579,-0.007888085721367073,-0.00017382721290264526
-0.14861061319499072,-0.007963326958202935,-0.00017779006607253776
-0.14470583475064233,-0.008036656070189344,-0.00018179006182963582
-0.14064065635202347,-0.00810799269296501,-0.0001858262240204244
-0.13641604358173887,-0.00817725686794845,-0.00018989753641065278
-0.1320332721497261,-0.008244369196881316,-0.0001940029429268602
-0.12749392863267997,-0.008309250997076918,-0.00019814134797534977
-0.12279990985682121,-0.008371824456699293,-0.00020231161683879382
-0.1179534209249091,-0.008432012789394726,-0.00020651257615031732
-0.11295697190776163,-0.008489740387602893,-0.00021074301444456672
-0.10781337323891568,-0.008544932973889563,-0.00021500168278493982
-0.10252572986620248,-0.008597517749665842,-0.00021928729546582867
-0.09709743422774167,-0.008647423540689328,-0.00022359853078841746
-0.09153215813356134,-0.008694580938779653,-0.0002279340319082847
-0.08583384364516886,-0.008738922439224335,-0.00023229240775278568
-0.0800066930496149,-0.008780382573398032,-0.00023667223400594128
-0.07405515802045357,-0.008818898036165548,-0.00024107205415833217
-0.06798392804883212,-0.00885440780768287,-0.0002454903806192943
-0.061797918219041174,-0.008886853269249838,-0.0002499256958885275
-0.05550225639734358,-0.008916178312903934,-0.00025437645378406594
-0.04910226989958373,-0.008942329444478165,-0.00025884108072341146
-0.04260347169880794,-0.008965255879877763,-0.00026331797705450046
-0.036011546228137264,-0.008984909634359498,-0.00026780551843305975
-0.029332334829287727,-0.009001245604623854,-0.0002723020572428056
-0.022571820895151584,-0.009014221643554964,-0.0002768059240548503
-0.01573611475429199,-0.009023798627467324,-0.00028131542912260586
-0.00883143834380465,-0.009029940515741849,-0.00028582886390840815
-0.001864109715455192,-0.009032614402756664,-0.00029034450263803276
0.005159472579475018,-0.00903179056204066,-0.0002948606038792321
0.012232845177568199,-0.0090274424826014,-0.0002993754121403926
0.0193494956086049,-0.009019546897404857,-0.00030388715948539416
0.026502877959721022,-0.009008083804012775,-0.00030839406716074856
0.033686428435067646,-0.008993036477414078,-0.0003128943472311053
0.04089358074361979,-0.008974391475119406,-0.00031738620421923865
0.04811778124389615,-0.008952138634622527,-0.0003218678367466741
0.05535250377107241,-0.008926271063368784,-0.0003263374391711719
0.06259126406952147,-0.008896785121408636,-0.0003307932032173663
0.06982763375197963,-0.00886368039695326,-0.00033523331959695675
0.07705525370661306,-0.008826959675088612,-0.00033965597961496723
0.08426784687805987,-0.008786628899942445,-0.000344059376758725
0.09145923035841096,-0.008742697130633328,-0.00034844170826636895
0.09862332673555832,-0.008695176491359835,-0.00035280117667186727
0.10575417465691538,-0.008644082116011717,-0.00035713599132371015
0.11284593857760618,-0.008589432087703087,-0.00036144436987463883
0.11989291767607616,-0.008531247373639667,-0.0003657245397399745
0.12688955393554813,-0.00846955175573676,-0.0003699747395223186
0.13383043940302233,-0.008404371757402117,-0.00037419322040060335
0.14071032264636255,-0.008335736566889771,-0.00037837824748167633
0.14752411443503127,-0.008263677957619422,-0.00038252810111280366
0.1542668926727719,-0.008188230205842471,-0.00038664107815366915
0.1609339066123114,-0.0081094300060212,-0.00039071549320663507
0.16752058038468248,-0.00802731638427195,-0.0003947496798042084
0.17402251587999687,-0.007941930610205782,-0.00039874199155282784
0.180435495020015,-0.007853316107480779,-0.00040269080323224947
0.18675548146072754,-0.007761518363360593,-0.0004065945118499598
0.192978621754207,-0.0076665848375568595,-0.00041045153765018917
0.19910124598730078,-0.007568564870621483,-0.00041426032507723375
0.20511986790635034,-0.00746750959214807,-0.0004180193436929261
0.2110311845358708,-0.007363471829037515,-0.0004217270890482225
0.21683207530443682,-0.007256506014077438,-0.00042538208350900123
0.22251960069755336,-0.00714666809507694,-0.00042898287703628985
0.22809100045886124,-0.007034015444787837,-0.00043252804792125605
0.23354369135582126,-0.006918606771834167,-0.00043601620347541155
0.23887526451710028,-0.0068005020328659365,-0.0004394459806765866
0.2440834823397628,-0.006679762346151721,-0.000442816046771341
0.2491662749566213,-0.006556449906827625,-0.0004461250998345858
0.2541217362483459,-0.006430627904026383,-0.0004493718692872993
0.25894811938310264,-0.0063023604401185205,-0.00045255511637333555
0.2636438318709765,-0.006171712452305001,-0.00045567363459644145
0.26820743013102666,-0.0060387496368045,-0.0004587262501187188
0.2726376135827429,-0.0059035383758760576,-0.00046171182212188897
0.2769332182870002,-0.005766145667908622,-0.00046462924313283514
0.28109321017200806,-0.00562663906079387,-0.00046747743931501074
0.28511667788721917,-0.005485086588779063,-0.00047025537072740395
0.289002825334754,-0.00534155671297357,-0.0004729620315528421
0.29275096393464595,-0.00519611826565622,-0.00047559645029749954
0.29636050468641023,-0.005048840398500956,-0.0004781576899635388
0.2998309500951533,-0.004899792534805565,-0.00048064484819686546
0.30316188603672417,-0.0047490443257725955,-0.00048305705741201
0.306352973642383,-0.004596665610852819,-0.00048539348489616633
0.3094039412837804,-0.0044427263821212775,-0.00048765333289440985
0.3123145767295949,-0.004287296752617934,-0.0004898358386780946
0.3150847195278029,-0.004130446928553584,-0.0004919402745983875
0.317714253648309,-0.003972247185259556,-0.0004939659481268408
0.32020310040402616,-0.0038127678467464723,-0.0004959122018848423
0.3225512116555754,-0.003652079268731572,-0.0004977784136637118
0.3247585632947909,-0.0034902518249939805,-0.0004995639964371433
0.32682514899545057,-0.00332735589692142,-0.0005012683983676221
0.32875097421750027,-0.0031634618661181826,-0.000502891102808382
0.3305360504543067,-0.0029986401099502307,-0.0005044316283023991
0.33218038971892805,-0.002832960999906922,-0.0005058895285798634
0.3336839992721105,-0.002666494902659162,-0.0005072643925555049
0.33504687660099497,-0.0024993121836908855,-0.0005085558443270925
0.3362690046651291,-0.0023314832133743543,-0.0005097635431763588
0.3373503474359135,-0.0021630783753490935,-0.0005108871835735396
0.33829084576392915,-0.001994168077049133,-0.0005119264951866392
0.33909041361227027,-0.001824822762205083,-0.0005128812428964527
0.3397489346922136,-0.001655112925128962,-0.0005137512268182862
0.3402662595314406,-0.0014851091265730483,-0.0005145362823312117
0.3406422029966347,-0.0013148820109410296,-0.0005152362801155902
0.3408765422840302,-0.0011445023246208633,-0.0005158511261994807
0.3409690153844383,-0.0009740409352037462,-0.0005163807620144368
0.3409193200230193,-0.0008035688513518817,-0.0005168251644610757
0.3407271130693345,-0.0006331572430787933,-0.0005171843459846834
0.3403920104118249,-0.00046287746220850345,-0.0005174583546610051
0.33991358729268223,-0.00029280106278237666,-0.0005176472742922529
0.3392913791021236,-0.0001229998211836752,-0.0005177512245132444
0.3385248826337066,4.645424425028235e-05,-0.0005177703609074777
0.33761355780465774,0.00021548885435987344,-0.0005177048751328252
0.3365568298488792,0.00038403145127325765,-0.0005175549950564169
0.3353540919971358,0.0005520091817347614,-0.0005173209848981648
0.3340047086673305,0.0007193488819008779,-0.0005170031453822559
0.3325080191926494,0.0008859770638658729,-0.0005166018138958141
0.33086334211274393,0.0010518199041922212,-0.0005161173646537996
0.32906998004352633,0.0012168032347312887,-0.0005155502088690688
0.3271272251281863,0.0013808525360242169,-0.0005149007949263799
0.32503436506001554,0.0015438929335712674,-0.0005141696085589811
0.3227906896595572,0.0017058491972511607,-0.0005133571730262755
0.3203954979846086,0.001866645744162202,-0.0005124640492909222
0.31784810594806256,0.00202620664514537,-0.0005114908361935952
0.31514785441236987,0.002184455635235478,-0.0005104381706235
0.3122941177197858,0.002341316128268517,-0.0005093067276826241
0.30928631260619255,0.0024967112358500114,-0.0005080972208415945
0.30612390743578943,0.0026505637908605067,-0.0005068104020849168
0.302806431686894,0.0028027963756411776,-0.0005054470620432914
0.29933348561547046,0.0029533313549667687,-0.0005040080301106395
0.295704750020356,0.003102090913875725,-0.0005024941745434289
0.29191999603063756,0.0032489971003884736,-0.0005009064025398628
0.28797909483348977,0.0033939718731045053,-0.0004992456602964896
0.2838820272641665,0.0035369371536289195,-0.0004975129330398063
0.27962889318813783,0.0036778148837419956,-0.0004957092450304636
0.27521992061313305,0.0038165270871923134,-0.00049383565953773
0.27065547447287347,0.003952995935963815,-0.000491893278781941
0.26593606502701533,0.004087143820838787,-0.0004898832438427404
0.26106235582716375,0.004218893426052332,-0.0004878067345310176
0.25603517120768976,0.0043481678078110455,-0.00048566496922255174
0.25085550326989997,0.004474890476430443,-0.0004834592046514914
0.2455245183359964,0.004598985481831917,-0.0004811907356619258
0.24004356285393708,0.0047203775021294,-0.00047886089491593547
0.23441416873642112,0.00483899193502699,-0.0004764710525566464
0.22863805811708246,0.004954754991740366,-0.00047402261582495456
0.22271714750525087,0.005067593793145949,-0.000471517028628733
0.21665355132069564,0.005177436467852435,-0.00046895577106348337
0.2104495847947904,0.0052842122518813065,-0.0004663403588835499
0.2041077662341809,0.00538785158963855,-0.00046367234292316994
0.1976308186537194,0.005488286235860525,-0.0004609533084667952
0.1910216707944791,0.005585449358222574,-0.0004581848745682744
0.18428345754889602,0.0056792756403084175,-0.00045536869331864164
0.1774195198174914,0.0057697013846500144,-0.00045250644906240204
0.17043340381962133,0.005856664615559293,-0.0004495998575623497
0.16332885987512838,0.005940105181482981,-0.00044665066511308916
0.15610984066648853,0.006019964856618385,-0.00044366064760356384
0.1487804989856345,0.006096187441531416,-0.0004406316095290264
0.14134518497086346,0.00616871886252054,-0.00043756538295301343
0.13380844284839016,0.006237507269475354,-0.00043446382642001446
0.12617500720440736,0.006302503131988554,-0.0004313288238196485
0.11844979882021092,0.006363659333494708,-0.00042816228320327767
0.11063792010385014,0.006420931263225724,-0.00042496613555409755
0.10274465015039609,0.006474276905789285,-0.0004217423335118438
0.09477543946277334,0.0065236569281925776,-0.00041849285005334837
0.08673590436701063,0.006569034764150023,-0.0004152196771302627
0.07863182115867423,0.006610376695531444,-0.0004119248242653423
0.07046912001906268,0.006647651930825878,-0.000408610317108753
0.062253878737830455,0.006680832680515101,-0.00040527819595591774
0.05399231627008743,0.00670989422926708,-0.0004019305142284722
0.045690786140338,0.006734815004869687,-0.000398569336919938
0.03735576968822169,0.006755576643826827,-0.0003951967390077639
0.028993869139366985,0.006772164053533724,-0.00039181480383342375
0.02061180048174128,0.0067845654709390016,-0.00038842562145230555
0.01221638612965957,0.006792772517591852,-0.0003850312869551728
0.003814547358021818,0.006796780250963772,-0.0003816338987630339
-0.004586703513639933,0.006796587211924867,-0.0003782355568973118
-0.012980271212212117,0.006792195468243404,-0.0003748383612272697
-0.021358985906066507,0.006783610653963834,-0.0003714444096967179
-0.029715611936707288,0.006770842004503141,-0.0003680557965321012
-0.03804285692281964,0.00675390238728826,-0.0003646746104341533
-0.04633338127440282,0.006732808327738954,-0.0003613029327553965
-0.054579808153982994,0.006707580030381857,-0.0003579428356658663
-0.06277473391758401,0.006678241394863965,-0.00035459638030955484
-0.07091073905864195,0.006644820026619909,-0.00035126561495418384
-0.0789803996628704,0.0066073472419395304,-0.00034795257313704396
-0.0869762993641663,0.0065658580671827714,-0.00034465927180976337
-0.09489104177503037,0.0065203912318979726,-0.0003413877094849932
-0.1027172633523165,0.006470989155616136,-0.00033813986438811463
-0.11044764665151434,0.0064176979281151784,-0.0003349176926171818
-0.11807493392018573,0.006360567282972253,-0.00033172312631440996
-0.12559194098202847,0.0062996505642467,-0.0003285580718526052
-0.13299157136482553,0.006235004686159986,-0.0003254244080400035
-0.14026683062765918,0.006166690085661865,-0.00032232398434704806
-0.14741084084673642,0.006094770667793265,-0.0003192586191586843
-0.1544168552254556,0.006019313743775218,-0.00031623009805579214
-0.16127827280053855,0.005940389961768719,-0.00031324017212940616
-0.16798865321849196,0.005858073230263962,-0.000310290556331398
-0.17454173155318856,0.0057724406340710415,-0.00030738292786531424
-0.18093143312596088,0.005683572342901254,-0.00030451892462107116
-0.18715188827557275,0.005591551512550871,-0.0003017001436572081
-0.1931974470099035,0.005496464178729502,-0.000298928139734388
-0.19906269345827038,0.005398399143612459,-0.0002962044239038025
-0.20474246003534952,0.0052974478552390535,-0.00029353046215408965
-0.2102318412250482,0.005193704279923954,-0.0002909076741202989
-0.21552620689532137,0.0050872647678938615,-0.00028833743185834444
-0.2206212150618812,0.004978227912404561,-0.00028582105868826986
-0.22551282402688347,0.00486669440263237,-0.0002833598281095106
-0.2301973038246199,0.004752766870669494,-0.00028095496279118514
-0.23467124690926194,0.004636549732986024,-0.00027860763364027127
-0.2389315780214593,0.004518149026753343,-0.0002763189589503364
-0.24297556317325278,0.004397672241454665,-0.00027409000363328443
-0.246800817694014,0.004275228146237849,-0.0002719217785363613
