acceleration,velocity,displacement
-0.09309327442667352,0.0,0.0
-0.09486173289582678,-4.698875183062508e-05,-1.174718795765627e-08
-0.09665651058416148,-9.486831270062214e-05,-4.721145409046807e-08
-0.0984756836038879,-0.0001436513612476345,-1.0684137257753223e-07
-0.10031733220760009,-0.0001933496152005065,-1.910916166895675e-07
-0.10217954507175557,-0.0002439738345203454,-3.0042247911978044e-07
-0.10406042350399154,-0.00029553382666428217,-4.3529939441593734e-07
-0.10595808553368326,-0.0003480384539237009,-5.961924645629331e-07
-0.10787066984050811,-0.00040149564276724875,-7.835759887356705e-07
-0.1097963394754708,-0.0004559123950962435,-9.979279982015436e-07
-0.11173328533525773,-0.0005112948012989256,-1.2397297973003358e-06
-0.11367972936361095,-0.0005676480549736427,-1.509465511368478e-06
-0.11563392746681633,-0.0006249764691812496,-1.8076216424072011e-06
-0.11759417213757967,-0.0006832834940823486,-2.1346866332231006e-06
-0.11955879478274566,-0.00074257173581243,-2.4911504406967953e-06
-0.12152616775101276,-0.0008028429764458696,-2.8775041187613703e-06
-0.12349470605934446,-0.0008640981948984589,-3.2942394115974522e-06
-0.12546286881849059,-0.0009263375886179177,-3.7418483574765465e-06
-0.1274291603562281,-0.0009895605959115974,-4.220822903608925e-06
-0.1293921310312979,-0.001053765918758479,-4.731654532276444e-06
-0.13135037772375502,-0.0011189515459472422,-5.2748338984528744e-06
-0.1333025439811635,-0.001185114776373472,-5.850850479033053e-06
-0.13524731979717572,-0.0012522522423180568,-6.460192233705935e-06
-0.13718344100066912,-0.001320359932517518,-7.1033452774148285e-06
-0.1391096882387942,-0.0013894332148273838,-7.780793564251055e-06
-0.14102488554417145,-0.0014594668582731253,-8.493018582526182e-06
-0.14292789848397286,-0.0015304550542801613,-9.240499060664503e-06
-0.14481763189580266,-0.0016023914368751052,-1.0023710683453319e-05
-0.1466930272202395,-0.0016752691016541157,-1.0843125818085625e-05
-0.14855305943951508,-0.0017490806233190544,-1.1699213249328917e-05
-0.1503967336258295,-0.0018238180715853907,-1.2592437923055028e-05
-0.15222308109573424,-0.0018994730252657817,-1.352326069726782e-05
-0.15403115516516291,-0.001976036584331006,-1.4492138099667018e-05
-0.1558200265057392,-0.0020534993797487315,-1.5499522090686952e-05
-0.1575887781150034,-0.002131851580903917,-1.6545859830850113e-05
-0.15933649992629564,-0.002211082900414242,-1.763159345117965e-05
-0.16106228309329698,-0.00229118259616914,-1.8757159825325497e-05
-0.16276521398740446,-0.0023721394704393156,-1.992299034197761e-05
-0.16444436794469147,-0.0024539418659223398,-2.1129510676068026e-05
-0.16609880279792702,-0.0025365776586079945,-2.237714055720061e-05
-0.1677275522333971,-0.0026200342473658256,-2.3666293533694066e-05
-0.16932961902451463,-0.0027042985401803036,-2.4997376730580598e-05
-0.17090396820991915,-0.002789356936988912,-2.63707905998729e-05
-0.1724495202940482,-0.002875195309114904,-2.7786928661398856e-05
-0.173965144547246,-0.0029617989753252276,-2.924617723250889e-05
-0.17544965247248506,-0.0030491526745801602,-3.0748915144985234e-05
-0.17690179149356325,-0.0031372405355716724,-3.2295513447523195e-05
-0.17832023890960533,-0.0032260460431724645,-3.388633509220923e-05
-0.17970359615372775,-0.003315552001938298,-3.552173460348692e-05
-0.18105038338955595,-0.0034057404968241187,-3.7202057728177524e-05
-0.18235903447838578,-0.003496592851291104,-3.892764106520633e-05
-0.1836278923520234,-0.0035880895829987066,-4.069881167377878e-05
-0.18485520482985401,-0.003680210357294176,-4.2515886658852e-05
-0.18603912092089883,-0.0037729339387318644,-4.437917273285851e-05
-0.18717768765073833,-0.003866238140874774,-4.628896575276017e-05
-0.18826884745009892,-0.003960099774649983,-4.8245550231641354e-05
-0.1893104361386615,-0.004054494595547173,-5.0249198824190645e-05
-0.19030018153557426,-0.004149397249965732,-5.2300171785568874e-05
-0.19123570272776744,-0.004244781221031568,-5.4398716403318196e-05
-0.19211451002756535,-0.0043406187742204005,-5.6545066402131184e-05
-0.19293400565148336,-0.004436880903140162,-5.8739441321471325e-05
-0.19369148515127418,-0.004533537275840852,-6.098204586621658e-05
-0.19438413962584014,-0.00463055618203513,-6.327306923068557e-05
-0.19500905873695426,-0.004727904481625828,-6.561268439660081e-05
-0.19556323454238064,-0.004825547554945662,-6.800104740574369e-05
-0.19604356614911211,-0.004923449255118535,-7.043829660825974e-05
-0.19644686517911214,-0.005021571862950591,-7.292455188777702e-05
-0.19676986202998897,-0.005119876044752866,-7.545991386470289e-05
-0.19700921290275586,-0.005218320813486052,-7.804446307926261e-05
-0.1971615075606135,-0.005316863493601894,-8.067825915603459e-05
-0.19722327777973703,-0.005415459689936982,-8.33613399519193e-05
-0.19719100645608245,-0.005514063260995936,-8.609372068965253e-05
-0.19706113733925038,-0.00561262629694477,-8.887539307913771e-05
-0.19683008537164734,-0.005711099102622495,-9.170632442902953e-05
-0.19649424761534023,-0.005809430185869242,-9.458645675115246e-05
-0.1960500147494341,-0.005907566251460435,-9.751570586048488e-05
-0.19549378311951845,-0.0060054522009276735,-0.00010049396047358191
-0.1948219673190023,-0.006103031138537303,-0.00010352108130844815
-0.19403101327958586,-0.00620024438368695,-0.00010659690018900421
-0.19311741184373468,-0.00629703148996778,-0.0001097212191574179
-0.19207771278467184,-0.006393330271124881,-0.00011289380959769106
-0.19090853922861795,-0.006489076834128204,-0.00011611441137400433
-0.18960660242121724,-0.006584205619540663,-0.00011938273198742154
-0.18816871676748886,-0.0066786494493378395,-0.00012269844575464118
-0.18659181506356198,-0.006772339582295602,-0.00012606119301254953
-0.1848729638295078,-0.0068652057770188695,-0.00012947057935237816
-0.1830093786457026,-0.006957176362637672,-0.0001329261748872923
-0.1809984393894705,-0.007048178317146466,-0.00013642751355723832
-0.17883770526314655,-0.00713813735330962,-0.00013997409247485233
-0.1765249294983419,-0.007226978011999992,-0.00014356537131617975
-0.17405807361659917,-0.0073146237627787275,-0.00014720077175987443
-0.17143532112759732,-0.007400997111464777,-0.0001508796769784353
-0.16865509055411163,-0.007486019714385204,-0.0001546014311848978
-0.16571604768442344,-0.007569612498944838,-0.0001583653392382303
-0.1626171169629554,-0.007651695790106682,-0.0001621706663104932
-0.15935749193629747,-0.007732189442331496,-0.00016601663761860272
-0.15593664467568844,-0.007811012976484492,-0.00016990243822330672
-0.1523543341019513,-0.007888085721178903,-0.00017382721289772258
-0.14861061314749316,-0.007963326957991264,-0.0001777900660675151
-0.14470583470229673,-0.008036656069953711,-0.00018179006182450136
-0.14064065630297534,-0.008107992692705028,-0.00018582622401516606
-0.13641604353213377,-0.008177256867663806,-0.00018989753640525825
-0.13203327209970958,-0.008244369196571767,-0.00019400294292131715
-0.12749392858239766,-0.008309250996742294,-0.00019814134796964565
-0.12279990980641099,-0.008371824456339496,-0.0002023116168329161
-0.1179534208744972,-0.008432012789009723,-0.0002065125761442534
-0.11295697185747956,-0.008489740387192718,-0.000210743014438304
-0.10781337318889628,-0.008544932973454312,-0.00021500168277846578
-0.10252572981656959,-0.008597517749205679,-0.00021928729545913077
-0.09709743417860364,-0.008647423540204473,-0.0002235985307814833
-0.09153215808501494,-0.008694580938270377,-0.00022793403190110202
-0.08583384359730056,-0.008738922438690955,-0.00023229240774534234
-0.08000669300250479,-0.008780382572840906,-0.0002366722339982253
-0.07405515797418182,-0.008818898035585079,-0.00024107205415033181
-0.06798392800346607,-0.00885440780707949,-0.00024549038061099797
-0.06179791817464695,-0.008886853268624019,-0.00024992569587992385
-0.05550225635397705,-0.008916178312256174,-0.0002543764537751439
-0.04910226985728922,-0.00894232944380899,-0.0002588410807141602
-0.04260347165761432,-0.008965255879187716,-0.00026331797704490933
-0.03601154618806707,-0.008984909633649136,-0.00026780551842311854
-0.029332334790358416,-0.009001245603893742,-0.00027230205723250425
-0.022571820857379465,-0.009014221642805676,-0.0002768059240441791
-0.015736114717683127,-0.009023798626699442,-0.0002813154291115554
-0.008831438308363958,-0.009029940514955953,-0.0002858288638969692
-0.0018641096811877248,-0.009032614401953342,-0.0002903445026261965
0.005159472612565355,-0.009031790561220497,-0.00029486060386699
0.01223284520947476,-0.009027442481764987,-0.00029937541212773634
0.019349495639316996,-0.00901954689655279,-0.0003038871594723158
0.02650287798922652,-0.009008083803145654,-0.00030839406714724043
0.03368642846334648,-0.00899303647653251,-0.00031289434721715995
0.04089358077064655,-0.008974391474224012,-0.00031738620420484906
0.04811778126963361,-0.008952138633713943,-0.00032186783673183355
0.0553525037954754,-0.008926271062447665,-0.00032633743915587394
0.06259126409253299,-0.008896785120475663,-0.00033079320320160476
0.06982763377353739,-0.008863680396009146,-0.00033523331958072597
0.07705525372664679,-0.0088269596741341,-0.0003396559795982618
0.08426784689649656,-0.008786628898978313,-0.0003440593767415399
0.0914592303751853,-0.008742697129660392,-0.00034844170824869955
0.0986233267506126,-0.008695176490378943,-0.0003528011766537094
0.10575417467019563,-0.008644082115023741,-0.00035713599130506
0.11284593858906093,-0.008589432086708928,-0.0003614443698554932
0.11989291768566547,-0.008531247372640246,-0.0003657245397203305
0.12688955394323323,-0.008469551754733021,-0.0003699747395021738
0.13383043940876171,-0.008404371756395022,-0.0003741932203799558
0.14071032265011593,-0.008335736565880303,-0.00037837824746052463
0.14752411443675953,-0.008263677956608583,-0.0003825281010911469
0.15426689267244356,-0.008188230204831282,-0.00038664107813150687
0.16093390660990267,-0.008109430005010696,-0.0003907154931839674
0.16752058038017595,-0.008027316383263176,-0.00039474967978103583
0.17402251587338416,-0.007941930609199786,-0.00039874199152915157
0.1804354950113044,-0.007853316106478613,-0.00040269080320807116
0.1867554814499585,-0.007761518362363298,-0.0004065945118252816
0.19297862174144992,-0.007666584836565445,-0.00041045153762501383
0.19910124597265458,-0.007568564869636919,-0.00041426032505156445
0.20511986788993714,-0.007467509591171271,-0.0004180193436667665
0.2110311845178296,-0.007363471828069329,-0.0004217270890215766
0.2168320752849207,-0.007256506013118642,-0.0004253820834818736
0.22251960067672713,-0.00714666809412823,-0.00042898287700868535
0.2280910004368948,-0.007034015443849824,-0.0004325280478931799
0.23354369133288702,-0.006918606770907379,-0.00043601620344686917
0.2388752644933706,-0.006800502031950814,-0.0004394459806475837
0.24408348231540608,-0.00667976234524862,-0.00044281604674188354
0.24916627493180463,-0.0065564499059368175,-0.0004461250998046799
0.2541217362232376,-0.006430627903148057,-0.0004493718692569511
0.2589481193578658,-0.006302360439252781,-0.0004525551163425513
0.26364383184577034,-0.006171712451451872,-0.0004556736345652275
0.2682074301060051,-0.006038749635963928,-0.0004587262500870814
0.27263761355805344,-0.005903538375047913,-0.00046171182208983437
0.2769332182627915,-0.005766145667092702,-0.0004646292431003695
0.2810932101484288,-0.005626639059989897,-0.0004674774392821402
0.28511667786442063,-0.005485086587986685,-0.00047025537069413434
0.2890028253128939,-0.005341556712192356,-0.0004729620315191791
0.2927509639138755,-0.005196118264885664,-0.0004755964502634486
0.29636050466687286,-0.0050488403977404775,-0.00047815768992910516
0.2998309500769755,-0.004899792534054515,-0.0004806448481620539
0.3031618860200222,-0.004749044325030266,-0.0004830570573768251
0.30635297362725483,-0.004596665610118447,-0.00048539348486061225
0.3094039412703045,-0.004442726381394057,-0.0004876533328584904
0.3123145767178382,-0.0042872967518970215,-0.0004898358386418132
0.31508471951782185,-0.004130446927838106,-0.000491940274561747
0.31771425364014444,-0.003972247184548614,-0.0004939659480898437
0.3202031003977165,-0.003812767846039149,-0.0004959122018474906
0.3225512116511523,-0.0036520792680269317,-0.0004977784136260071
0.3247585632922759,-0.003490251824291075,-0.0004995639963990866
0.32682514899485726,-0.0033273558962192916,-0.0005012683983292141
0.3287509742188385,-0.0031634618654158677,-0.000502891102769623
0.33053605045757056,-0.0029986401092467656,-0.0005044316282632887
0.33218038972409364,-0.0028329609992013495,-0.0005058895285404007
0.33368399927914866,-0.0026664949019505387,-0.0005072643925156887
0.3350468766098804,-0.0024993121829782815,-0.0005085558442869209
0.33626900467584303,-0.0023314832126568505,-0.0005097635431358297
0.337350347448432,-0.002163078374625782,-0.0005108871835326504
0.3382908457782217,-0.0019941680763191187,-0.0005119264951453866
0.3390904136282986,-0.0018248227614674887,-0.0005128812428548332
0.3397489347099266,-0.0016551129243829324,-0.0005137512267762958
0.3402662595507753,-0.001485109125817757,-0.000514536282288846
0.34064220301751397,-0.0013148820101756846,-0.0005152362800728443
0.34087654230634956,-0.0011445023238447188,-0.0005158511261563495
0.3409690154080739,-0.0009740409344161129,-0.0005163807619709147
0.34091932004783554,-0.0008035688505521355,-0.0005168251644171568
0.34072711309518683,-0.0006331572422663799,-0.0005171843459403614
0.3403920104385569,-0.00046287746138294394,-0.0005174583546162737
0.33991358732012195,-0.00029280106194327427,-0.0005176472742471053
0.3392913791300901,-0.00012299982033072126,-0.0005177512244676737
0.3385248826620085,4.645424511730341e-05,-0.0005177703608614771
0.33761355783308533,0.00021548885524107689,-0.0005177048750863875
0.33655682987720487,0.0003840314521686495,-0.0005175549950095351
0.3353540920251252,0.000552009182644232,-0.0005173209848508319
0.334004708694743,0.000719348882824199,-0.0005170031453344648
0.3325080192192429,0.0008859770648026956,-0.000516601813847558
0.3308633421382854,0.0010518199051420777,-0.0005161173646050718
0.3290699800677867,0.0012168032356935957,-0.0005155502088198629
0.3271272251509468,0.001380852536998279,-0.00051490079487669
0.32503436508106515,0.001543892934556282,-0.0005141696085088014
0.3227906896786979,0.0017058491982462228,-0.0005133571729756007
0.3203954980016579,0.0018666457451663118,-0.0005124640492397476
0.31784810596286006,0.0020262066461574414,-0.0005114908361419166
0.3151478544247719,0.002184455636254349,-0.0005104381705713137
0.3122941177296735,0.0023413161292929604,-0.0005093067276299269
0.3092863126134677,0.0024967112368787458,-0.0005080972207883839
0.3061239074403783,0.002650563791892207,-0.0005068104020311911
0.30280643168875554,0.0028027963766744904,-0.0005054470619890494
0.29933348561458945,0.0029533313560003265,-0.0005040080300558808
0.29570475001673924,0.003102090914908159,-0.0005024941744881537
0.2919199960243165,0.0032489971014184227,-0.000500906402484072
0.287979094824514,0.0033939718741306303,-0.0004992456602401847
0.2838820272525974,0.0035369371546499083,-0.0004975129329829896
0.27962889317404316,0.0036778148847565685,-0.0004957092449731379
0.2752199205965858,0.003816527088199226,-0.0004938356594798989
0.2706554744539557,0.003952995936961861,-0.0004918932787236086
0.265936065005826,0.004087143821826807,-0.0004898832437839114
0.2610623558038199,0.004218893427029218,-0.00048780673447169746
0.2560351711823255,0.004348167808775755,-0.0004856649691627462
0.25085550324266875,0.004474890477382003,-0.00048345920459120676
0.24552451830706729,0.004598985482769437,-0.0004811907356011689
0.24004356282348957,0.004720377503052076,-0.0004788608948547135
0.23441416870464254,0.004838991935934109,-0.00047647105249496694
0.22863805808415755,0.004954754992631309,-0.0004740226157628256
0.22271714747136315,0.0050675937940201895,-0.00047151702856616275
0.21665355128602473,0.005177436468709536,-0.0004689557710004803
0.21044958475951342,0.0052842122527209205,-0.0004663403588201227
0.20410776619847504,0.0053878515904604175,-0.00046367234285932734
0.1976308186177632,0.005488286236664477,-0.0004609533084025461
0.19102167075844984,0.0055854493590085305,-0.00045818487450362787
0.18428345751297237,0.005679275641076386,-0.00045536869325360664
0.17741951978185472,0.005769701385400092,-0.0004525064489969875
0.17043340378444782,0.005856664616291668,-0.0004495998574965646
0.1633288598405905,0.005940105182197928,-0.0004466506650469422
0.1561098406327666,0.0060199648573162675,-0.00044366064753706365
0.14878049895291276,0.006096187442212687,-0.0004406316094621814
0.14134518493931852,0.006168718863185744,-0.00043756538288583177
0.13380844281818577,0.006237507270125121,-0.00043446382635250406
0.12617500717569957,0.006302503132623592,-0.0004313288237518169
0.11844979879314814,0.006363659334115803,-0.00042816228313513204
0.11063792007857824,0.006420931263833735,-0.00042496613548564466
0.10274465012705854,0.006474276906385144,-0.00042174233344308994
0.0947754394415033,0.006523656928777284,-0.0004184928499842993
0.08673590434793753,0.006569034764724644,-0.00041521967706092386
0.07863182114191723,0.006610376696097108,-0.00041192482419571844
0.07046912000472683,0.006647651931383769,-0.0004086103170388482
0.06225387872601055,0.0066808326810664535,-0.00040527819588573566
0.053992316260870615,0.006709894229813174,-0.00040193051415801575
0.04569078613380122,0.006734815005411842,-0.0003985693368492095
0.03735576968442254,0.006755576644366398,-0.0003951967389367649
0.028993869138338582,0.006772164054072089,-0.0003918148037621553
0.020611800483498734,0.006784565471477548,-0.0003884256213807679
0.012216386134199982,0.006792772518131973,-0.0003850312868833655
0.003814547365320392,0.006796780251506853,-0.0003816338986909558
-0.004586703503618209,0.006796587212472279,-0.000378235556824961
-0.012980271199512472,0.006792195468796496,-0.00037483836115464385
-0.021358985890744385,0.006783610654523932,-0.0003714444096238137
-0.029715611918823152,0.00677084200507154,-0.0003680557964589149
-0.03804285690244547,0.0067539023878662235,-0.00036467461036068045
-0.04633338125163248,0.006732808328327704,-0.000361302932681632
-0.054579808128933524,0.006707580030982563,-0.00035794283559180444
-0.06277473389038396,0.006678241395477734,-0.00035459638023518935
-0.07091073902943008,0.0066448200272477805,-0.00035126561487950795
-0.07898039963179179,0.006607347242582475,-0.0003479525730620504
-0.08697629933137624,0.006565858067841684,-0.00034465927173444433
-0.09489104174068785,0.006520391232573667,-0.0003413877094093405
-0.10271726331658426,0.006470989156309349,-0.0003381398643121197
-0.11044764661455364,0.006417697928826564,-0.0003349176925408357
-0.11807493388216288,0.0063605672837023855,-0.00033172312623770347
-0.12559194094311477,0.006299650564996066,-0.00032855807177552883
-0.13299157132519085,0.00623500468692899,-0.0003254244079625476
-0.140266830587481,0.006166690086450822,-0.0003223239842692026
-0.14741084080619074,0.006094770668602404,-0.0003192586190804393
-0.15441685518471182,0.006019313744604678,-0.00031623009797713755
-0.16127827275976592,0.0059403899626185586,-0.0003132401720503317
-0.16798865317786732,0.00585807323113415,-0.0003102905562518935
-0.17454173151290683,0.005772440634961457,-0.0003073829277853696
-0.18093143308623627,0.005683572343811671,-0.0003045189245406763
-0.18715188823663098,0.005591551513480955,-0.0003017001435763532
-0.1931974469719767,0.005496464179678803,-0.00029892813965306326
-0.19906269342158925,0.005398399144580411,-0.00029620442382199844
-0.20474246000013296,0.00529744785622498,-0.0002935304620717971
-0.2102318411914994,0.005193704280927072,-0.00029090767403750905
-0.21552620686363436,0.005087264768913288,-0.00028833743177504893
-0.22062121503224344,0.004978227913439319,-0.00028582105860446076
-0.22551282399946934,0.004866694403681391,-0.0002833598280251806
-0.2301973037995907,0.0047527668717316255,-0.00028095496270632734
-0.23467124688677246,0.004636549734060034,-0.0002786076335548794
-0.2389315780016551,0.004518149027837927,-0.00027631895886440493
-0.24297556315627294,0.004397672242548445,-0.00027409000354680835
-0.2468008176799962,0.0042752281473393775,-0.0002719217784493364
