acceleration,velocity,displacement
-0.09322850723530178,0.0,0.0
-0.09501796847003643,-4.706161892633455e-05,-1.1765404731583638e-08
-0.09683327864218158,-9.502443070438905e-05,-4.728691713926454e-08
-0.09867240903373575,-0.0001439008526233684,-1.070182379712039e-07
-0.1005333352478708,-0.00019370228869377003,-1.9141902330048852e-07
-0.10241404194618815,-0.00024443913299228477,-3.009543787220022e-07
-0.10431252754548365,-0.00029612077536520274,-4.360943558113741e-07
-0.10622680882589888,-0.0003487556094580484,-5.973134520171869e-07
-0.10815492539602459,-0.00040235104301352927,-7.850901151350814e-07
-0.11009494395982752,-0.0004569135103524923,-9.999062534765868e-07
-0.11204496233812089,-0.0005124484869269794,-1.2422467527964546e-06
-0.11400311321362153,-0.000568960505814915,-1.5125990009819283e-06
-0.11596756758562381,-0.0006264531760147264,-1.8114524214393387e-06
-0.11793653792913608,-0.0006849292023934163,-2.139298016041374e-06
-0.11990828105449068,-0.000744390407139323,-2.496627918424559e-06
-0.12188110066382622,-0.0008048377525689021,-2.8839349583516152e-06
-0.12385334960364176,-0.0008662713651357691,-3.3017122377777832e-06
-0.12582343181440106,-0.0009286905604902799,-3.7504527191842954e-06
-0.12778980397527342,-0.0009920938694376986,-4.23064882666629e-06
-0.1297509768343218,-0.0010564790646400975,-4.742792060185739e-06
-0.1317055162044846,-0.001121843187899799,-5.287372623320714e-06
-0.13365204359695695,-0.0011881825778501593,-5.8648790647582036e-06
-0.13558923645942542,-0.001255492897864255,-6.475797933686807e-06
-0.13751582798815526,-0.0013237691639761502,-7.120613449146909e-06
-0.13943060648909092,-0.0013930057725954617,-7.799807183289812e-06
-0.14133241427161064,-0.0014631965277856372,-8.513857758385087e-06
-0.14322014606778333,-0.0015343346678704857,-9.263240557299118e-06
-0.1450927469788239,-0.0016064128911321375,-1.0048427447049774e-05
-0.14694920995640667,-0.001679423380365945,-1.0869886514924294e-05
-0.14878857282552715,-0.0017533578260614286,-1.1728081816531137e-05
-0.15060991484742048,-0.0018282074479796654,-1.262347313504141e-05
-0.15241235281151194,-0.0019039630148943985,-1.3556515750759927e-05
-0.15419503664259726,-0.001980614862257926,-1.4527660220048008e-05
-0.15595714451689033,-0.002058152907547798,-1.553735216249944e-05
-0.1576978774959353,-0.002136566663051004,-1.658603205514914e-05
-0.15941645370407515,-0.002215845245851007,-1.7674135032374643e-05
-0.1611121020869313,-0.0022959773847987582,-1.8802090690037085e-05
-0.16278405579226676,-0.0023769514242685578,-1.9970322892303915e-05
-0.1644315452126565,-0.0024587553245197886,-2.1179249579501002e-05
-0.16605379072754675,-0.0025413766585048393,-2.242928257525716e-05
-0.16764999518778695,-0.002624802604983673,-2.372082739112929e-05
-0.16921933620155177,-0.0027090199378310073,-2.5054283026832962e-05
-0.1707609583009965,-0.002794015011456644,-2.6430041764154875e-05
-0.17227396508243695,-0.0028797737423025024,-2.7848488952594662e-05
-0.17375741141166712,-0.0029662815864260283,-2.9310002784776796e-05
-0.17521029577331762,-0.0030535235132222744,-3.081495405968887e-05
-0.17663155282748666,-0.0031414839753724755,-3.236370593183756e-05
-0.17802004622408693,-0.003230146875135369,-3.395661364446452e-05
-0.17937456171663063,-0.003319495527120548,-3.5594024245028496e-05
-0.1806938006121174,-0.0034095126177027353,-3.7276276281234314e-05
-0.18197637359290994,-0.0035001801612539922,-3.900369947597349e-05
-0.18322079494979812,-0.0035914794533896694,-4.077661437963441e-05
-0.18442547727056208,-0.0036833910214447594,-4.259533199834302e-05
-0.18558872663163503,-0.0037758945724203088,-4.4460153396809284e-05
-0.18670873833992116,-0.003868968938663198,-4.637136927458016e-05
-0.18778359326845284,-0.003962592021565291,-4.832925951463728e-05
-0.18881125482591804,-0.004056740733588884,-5.0334092703425824e-05
-0.18978956659809382,-0.004151390938944887,-5.2386125621559266e-05
-0.1907162506993602,-0.0042465173932692505,-5.44856027046128e-05
-0.19158890687378488,-0.004342093682662537,-5.6632755473595746e-05
-0.19240501238632415,-0.004438092162477564,-5.882780193488077e-05
-0.1931619227445271,-0.004534483896260277,-6.107094594956523e-05
-0.19385687328861742,-0.004631238595268563,-6.336237657244744e-05
-0.19448698168122508,-0.004728324559011023,-6.570226736101733e-05
-0.19504925131670525,-0.0048257086172605055,-6.809077565508521e-05
-0.19554057565660993,-0.004923356074003835,-7.052804182790129e-05
-0.19595774348526734,-0.005021230653789304,-7.301418850984958e-05
-0.19629744506719152,-0.005119294450927419,-7.554931978602876e-05
-0.19655627917552795,-0.005217507881988099,-7.813352036925763e-05
-0.19673076095078287,-0.005315829642019676,-8.076685475025958e-05
-0.19681733054593686,-0.0054142166648938565,-8.344936632698796e-05
-0.196812362518667,-0.005512624088160008,-8.618107651525142e-05
-0.19671217594116036,-0.005611005222774965,-8.896198384298517e-05
-0.19651304520802954,-0.005709311528062262,-9.179206303069448e-05
-0.1962112115287304,-0.0058074925922464524,-9.467126406077166e-05
-0.1958028950920375,-0.005905496118901644,-9.759951123855869e-05
-0.1952843078889719,-0.0060032679196468965,-0.00010057670224819583
-0.1946516671787796,-0.006100751913413834,-0.00010360270720646101
-0.19390120957964513,-0.00619789013260344,-0.00010667736771796533
-0.19302920576048158,-0.0062946227364384716,-0.0001098004959352258
-0.1920319757009054,-0.006390888031803818,-0.00011297187362728637
-0.19090590447275282,-0.006486622501847233,-0.00011619125126069914
-0.18964745848010184,-0.006581760842585447,-0.0001194583470968073
-0.18825320207850055,-0.006676236007725097,-0.00012277284630938493
-0.1867198144798241,-0.006769979261864678,-0.00012613440012678237
-0.18504410683759903,-0.006862920242194034,-0.00012954262500279704
-0.18322303939858828,-0.006954987028753081,-0.00013299710182053382
-0.1812537385989995,-0.007046106223252478,-0.0001364973751335352
-0.17913351397613336,-0.007136203036396261,-0.0001400429524484474
-0.176859874757842,-0.0072252013835797544,-0.0001436333035534414
-0.17443054598589883,-0.007313023988765689,-0.00014726785989652776
-0.17184348403030036,-0.007399592496269739,-0.0001509460140177866
-0.1690968913614338,-0.007484827590117672,-0.00015466711903938345
-0.16618923046154735,-0.007568649120573418,-0.00015843048821705623
-0.16311923676947299,-0.007650976237381173,-0.00016223539455654487
-0.15988593056025766,-0.007731727529213606,-0.00016608107049819357
-0.15648862766580288,-0.007810821168770121,-0.0001699667076726895
-0.15292694894824083,-0.007888175062923632,-0.00017389145673061296
-0.14920082844834656,-0.00796370700727278,-0.00017785442724816206
-0.14531052014642296,-0.008037334844421472,-0.00018185468771108563
-0.14125660328804643,-0.00810897662528009,-0.00018589126557851102
-0.13703998623688132,-0.008178550772661322,-0.00018996314742799638
-0.1326619088216321,-0.00824597624642595,-0.0001940692791827682
-0.12812394314908904,-0.00831117270941863,-0.00019820856642172933
-0.12342799286621094,-0.008374060693422456,-0.0002023798747724396
-0.11857629087358267,-0.008434561764357404,-0.00020658203038688457
-0.11357139551679198,-0.008492598685954998,-0.00021081382049946266
-0.10841618530515665,-0.008548095581160485,-0.00021507399406624152
-0.10311385222604702,-0.008600978090543285,-0.00021936126248416746
-0.09766789373992531,-0.008651173527034779,-0.00022367430038856197
-0.09208210355806505,-0.008698611026359276,-0.0002280117465269105
-0.0863605613185514,-0.008743221692578431,-0.00023237220470664492
-0.08050762128073813,-0.008784938738228254,-0.0002367542448143466
-0.0745279001521348,-0.008823697618586472,-0.00024115640390355027
-0.06842626414899923,-0.008859436159661756,-0.0002455771873481123
-0.06220781537965057,-0.008892094679543919,-0.0002500150700579137
-0.05587787763156267,-0.008921616102796723,-0.0002544684977534989
-0.04944198163836897,-0.008947946067614206,-0.0002589358882961016
-0.042905849896694805,-0.008971033025497972,-0.00026341563306937966
-0.036275381094381456,-0.008990828333245741,-0.0002679060984090656
-0.029556634204827,-0.009007286337070543,-0.00027240562707664466
-0.022755812299112665,-0.009020364448696527,-0.0002769125397730864
-0.015879246126417133,-0.00903002321330291,-0.00028142513668858625
-0.008933377511018529,-0.009036226369212268,-0.00028594169908421506
-0.0019247426118332042,-0.009038940899242981,-0.00029046049090132884
0.00514004490909785,-0.009038137073668665,-0.00029497976039455674
0.012254310758284556,-0.00903378848475182,-0.00029949774178416184
0.01941133686516689,-0.009025872072845957,-0.0003040126569235613
0.02660437815546435,-0.0090143681440908,-0.0003085227169777955
0.03382667917437364,-0.008999260379758341,-0.00031302612410875777
0.04107149048525673,-0.008980535837343434,-0.0003175210731630332
0.04833208476431136,-0.008958184943531042,-0.00032200575335825186
0.05560177250730514,-0.008932201479213139,-0.00032647834996393793
0.06287391726108449,-0.008902582556771042,-0.00033093704597293396
0.0701419502899488,-0.008869328589883284,-0.00033538002375959757
0.07739938458675866,-0.008832443256164106,-0.0003398054667211094
0.08463982814450259,-0.008791933452981291,-0.00034421156089839574
0.09185699641648253,-0.008747809246841045,-0.00034859649657335135
0.09904472390771543,-0.008700083816759996,-0.0003529584698392516
0.10619697485334538,-0.008648773392069731,-0.000357295684141459
0.11330785295374016,-0.00859389718511796,-0.00036160635178575596
0.12037161015333972,-0.00853547731934119,-0.00036588869541187075
0.1273826544697665,-0.008473538753185414,-0.0003701409494300024
0.13433555689634546,-0.008408109200343886,-0.0003743613614183847
0.1412250574119568,-0.008339219046766811,-0.0003785481934801624
0.14804607013793594,-0.008266901264879337,-0.00038269972355807393
0.15479368768462667,-0.008191191325423697,-0.0003868142467056497
0.161463184731769,-0.008112127107319598,-0.00039089007631383553
0.16805002088937368,-0.008029748805914312,-0.00039492554529214403
0.17454984289053257,-0.007944098839969336,-0.00039891900720361495
0.1809584861713765,-0.007855221757703859,-0.00040286883735303323
0.18727197588989292,-0.007763164142188542,-0.0004067734338280063
0.19348652742290495,-0.007667974516360342,-0.0004106312184926435
0.19959854636458096,-0.007569703247913471,-0.00041444063793371196
0.20560462803824045,-0.007468402454312765,-0.0004182001643592685
0.2115015565308293,-0.007364125908170498,-0.00042190829644988935
0.21728630326559906,-0.007256928943221391,-0.0004255635601627373
0.22295602513627227,-0.007146868361120923,-0.00042916450948882293
0.22850806222729236,-0.007034002339280032,-0.0004327097271639232
0.23393993513741324,-0.006918390339938856,-0.0004361978253337279
0.23924934191155287,-0.006800093020676614,-0.00043962744617388175
0.24443415457339077,-0.006679172146555379,-0.00044299726246568974
0.24949241524058105,-0.0065556905041018855,-0.00044630597812835406
0.2544223317963665,-0.006429711817342649,-0.0004495523287087152
0.25922227308847473,-0.0063013006661214385,-0.0004527350818295812
0.26389076363147135,-0.006170522406941452,-0.0004558530375978469
0.26842647780208523,-0.006037443096583063,-0.00045890502897372805
0.27282823353456476,-0.0059021294187489,-0.000461889922102561
0.2770949855400757,-0.00576464861398024,-0.0004648066166107433
0.28122581808725033,-0.005625068413073408,-0.00046765404586750675
0.28521993739041557,-0.005483456974203992,-0.0004704311772143261
0.2890766636602589,-0.005339882823941324,-0.0004731370121638624
0.2927954228802336,-0.0051944148023062,-0.0004757705865704243
0.29637573837986203,-0.0050471220119911765,-0.0004783309707739987
0.29981722228336316,-0.00489807377182537,-0.00048081726971995284
0.3031195669200625,-0.004747339574524514,-0.0004832286230565403
0.30628253629072644,-0.004594989048721816,-0.0004855642052123519
0.3093059576843821,-0.0044410919252280395,-0.00048782322545583935
0.3121897135279043,-0.004285718007424968,-0.0004900049279390026
0.3149337335282089,-0.004128937145660939,-0.0004921085917272741
0.3175379871420112,-0.003970819215493384,-0.0004941335308175627
0.3200024763866701,-0.0038114340996112136,-0.0004960790941463388
0.32232722898901917,-0.0036508516732672914,-0.0004979446655895585
0.32451229185641217,-0.0034891417930559337,-0.0004997296639561393
0.32655772484563095,-0.003326374288880423,-0.0005014335429766233
0.328463594802842,-0.003162618958968305,-0.0005030557912885855
0.3302299698523138,-0.0029979455678045158,-0.0005045959324202787
0.3318569139203762,-0.0028324238468613433,-0.0005060535247739452
0.33334448149020135,-0.002666123498008699,-0.0005074281616101627
0.3346927125915059,-0.002499114199488272,-0.0005087194710345369
0.33590162803966345,-0.0023314656143304797,-0.0005099271159879916
0.33697122495148885,-0.0021632474010826915,-0.0005110507942418449
0.3379014725762831,-0.0019945292267007485,-0.0005120902383987908
0.33869230848600135,-0.0018253807814351776,-0.0005130452159008248
0.33934363516659,-0.0016558717955220297,-0.0005139155290450641
0.3398553170451908,-0.0014860720574690846,-0.0005147010150083119
0.340227177977572,-0.001316051433713394,-0.0005154015458811075
0.3404589992100187,-0.0011458798894164962,-0.00051601702871189
0.3405505178213446,-0.0009756275101586554,-0.0005165474055617837
0.34050142564320085,-0.000805364524292519,-0.0005169926535703966
0.34031136865127387,-0.0006351613257189004,-0.0005173527850328994
0.3399799468187726,-0.00046508849685138876,-0.0005176278474885419
0.33950671442661945,-0.00029521683154004076,-0.0005178179238206397
0.33889118082925784,-0.00012561735772607143,-0.0005179231323679562
0.3381328116790456,4.363864040100445e-05,-0.0005179436270472875
0.33723103061579796,0.00021247960097471534,-0.0005178795974869436
0.3361852214334699,0.0003808336639870323,-0.0005177312691707031
0.3349947307453707,0.0005486286520317424,-0.0005174989035916985
0.33365887118078097,0.0007157920525132803,-0.0005171827984155622
0.3321769251527695,0.0008822510015966679,-0.0005167832876520347
0.3305481492341002,0.0010479322701933854,-0.0005163007418340872
0.32877177916622646,0.001212762252293467,-0.0005157355682034655
0.3268470355100481,0.0013766669559625356,-0.0005150882109014015
0.3247731299319496,0.0015395719973230351,-0.0005143591511630801
0.3225492721086934,0.0017014025978331958,-0.0005135489075142911
0.32017467722993714,0.0018620835851678535,-0.0005126580359685408
0.3176485740729954,0.0020215393979935866,-0.0005116871302227505
0.3149702136167614,0.002179694094916026,-0.0005106368218495231
0.3121388781496097,0.0023364713678576186,-0.0005095077804838297
0.30915389081162664,0.0024917945600979275,-0.0005083007140018408
0.30601462549823216,0.0026455866891753922,-0.0005070163686895225
0.3027205170433303,0.002797770474810783,-0.0005056555293985259
0.29927107159564326,0.0029482683719705264,-0.0005042190196868306
0.2956658770986912,0.00309700260914411,-0.0005027077019415519
0.2919046137804179,0.003243895231863887,-0.0005011224774812999
0.28798706455584583,0.003388868151447953,-0.000499464286635472
0.2839131252505977,0.0035318431988995637,-0.0004977341087978851
0.2796828145639782,0.0036727421838532075,-0.0004959329624521969
0.27529628370039033,0.0038114869584193,-0.0004940619051666288
0.27075382560306305,0.0039479994857451635,-0.0004921220335555877
0.2660558837275747,0.004082201913077823,-0.0004901144832058819
0.2612030602995711,0.00421401664908461,-0.00048804042856534133
0.25619612401239156,0.004343366445162601,-0.0004859010827917795
0.2510360171329562,0.004470174480448938,-0.00048369769756037665
0.2457238619943196,0.004594364450230757,-0.00048143156282770674
0.24026096685916706,0.004715860657444129,-0.000479104006550788
0.23464883114104923,0.0048345881069441834,-0.0004767163943596909
0.22888914996964027,0.004950472602221856,-0.0004742701291823994
0.22298381808389628,0.00506344084423524,-0.00047176665082078516
0.21693493303664754,0.005173420532015376,-0.0004692074354767225
0.21074479770037363,0.005280340464699631,-0.0004665939952275438
0.20441592207606873,0.005384130644643741,-0.0004639278774502079
0.19795102442056497,0.005484722381267899,-0.00046121066419373
0.19135303171901913,0.005582048395302795,-0.0004584439714995873
0.18462507953695853,0.00567604292311679,-0.00045562944866998244
0.1777705112889019,0.005766641820823255,-0.0004527687774839974
0.1707928769575348,0.005853782667884865,-0.0004498636713618204
0.16369593128972057,0.005937404869946678,-0.0004469158744773625
0.15648363148569386,0.006017449760640532,-0.0004439271608197157
0.14916013439018394,0.006093860702109501,-0.0004408993332040282
0.14172979319537277,0.00616658318400589,-0.00043783422223249934
0.13419715367689497,0.006235564920723957,-0.0004347336852063169
0.12656694999820606,0.006300755946642732,-0.00043159960498947525
0.11884410012679489,0.0063621087091739826,-0.0004284338888255211
0.11103370090633478,0.006419578159432265,-0.00042523846710836955
0.1031410228265098,0.006473121840365476,-0.0004220152921084201
0.0951715045315152,0.006522699972204982,-0.0004187663366552775
0.08713074711013873,0.006568275535115396,-0.0004154935927784474
0.07902450821351108,0.006609814348946308,-0.00041219907030743194
0.07085869604839538,0.006647285150011784,-0.0004088847954326924
0.0626393632908598,0.006680659664846598,-0.0004055528092289778
0.05437270095338618,0.006709912680907659,-0.0004022051661425393
0.04606503221756873,0.0067350221142003985,-0.00039884393244376225
0.0377228062214306,0.006755969073810149,-0.00039547118464675963
0.02935259177466959,0.006772737923309174,-0.0003920890078974798
0.020961070970822088,0.0067853163389955465,-0.0003886994943319036
0.0125550326670892,0.006793695364905024,-0.00038530474140592845
0.004141365802600414,0.006797869464522447,-0.0003819068501985716
-0.0042729474785648276,0.006797836569103456,-0.00037850792369016514
-0.012680838939562384,0.006793598122498924,-0.0003751100650172645
-0.0210751616438548,0.006785159122353069,-0.0003717153757060515
-0.029448697680034476,0.006772528157522097,-0.0003683259538860827
-0.037794166273977324,0.006755717441533594,-0.0003649438924863188
-0.046104232346686896,0.006734742841878428,-0.0003615712774154658
-0.05437151557577384,0.006709623904897813,-0.00035821018572877175
-0.06258860001327071,0.006680383876000552,-0.00035486268378354715
-0.07074804430053576,0.006647049714922101,-0.00035153082538581646
-0.07884239250163484,0.006609652105721559,-0.00034821664993065556
-0.08686418555361756,0.006568225461207746,-0.0003449221805389232
-0.09480597331082866,0.006522807921491634,-0.0003416494221932484
-0.10266032714421719,0.0064734413463778725,-0.000338400359876281
-0.11041985304691969,0.006420171301330088,-0.000335176956714354
-0.11807720519420868,0.006363047036769806,-0.00033198115212982904
-0.12562509990708728,0.006302121460494482,-0.00032881486000551296
-0.13305632997124842,0.006237451103024898,-0.0003256799668646331
-0.1403637792659217,0.0061690960757156054,-0.000322578330069948
-0.14754043766221792,0.00609712002148357,-0.00031951177604564823
-0.1545794161587221,0.006021590058028335,-0.00031648209852577026
-0.16147396223003493,0.0059425767134311455,-0.0003134910568329054
-0.16821747536694245,0.0058601538540319015,-0.00031054037419103964
-0.1748035227822496,0.005774398604494604,-0.000307631736076408
-0.18122585524382134,0.005685391259988086,-0.0003047667886102873
-0.18747842297794823,0.005593215190432644,-0.00030194713699768213
-0.19355539156565615,0.0054979567367967426,-0.0002991743440158748
-0.19945115773740796,0.005399705099470977,-0.00029644992855680784
-0.2051603649609473,0.005298552218796388,-0.000293775364227241
-0.21067791871312003,0.005194592647877871,-0.00029115207801057243
-0.2159990013294271,0.005087923417867234,-0.00028858144899413614
-0.2211190863335579,0.004978643895951488,-0.00028606480716568145
-0.226033952159049,0.004866855636328336,-0.0002836034322826115
-0.23073969518233997,0.004752662224492989,-0.0002811985528174062
-0.23523274198967054,0.004636169115199987,-0.00027885134498248295
-0.23950986080184078,0.004517483464502109,-0.0002765629318375574
-0.2435681719835678,0.004396713956305757,-0.00027433438248235546
-0.2474051575675707,0.004273970623917972,-0.0002721667113372995
