acceleration,velocity,displacement
-0.09322850723377395,0.0,0.0
-0.09501796846717321,-4.706161892523679e-05,-1.1765404731309198e-08
-0.09683327863791938,-9.502443070150994e-05,-4.728691713799588e-08
-0.0986724090280136,-0.0001439008526179932,-1.0701823796787167e-07
-0.10053333524062512,-0.00019370228868515287,-1.9141902329365818e-07
-0.10241404193735668,-0.00024443913297964834,-3.009543787098585e-07
-0.10431252753500929,-0.0002961207753477398,-4.3609435579170555e-07
-0.10622680881373234,-0.00034875560943492523,-5.973134519873719e-07
-0.10815492538212694,-0.00040235104298389006,-7.850901150920757e-07
-0.11009494394417411,-0.0004569135103154653,-9.999062534169146e-07
-0.11204496232071302,-0.0005124484868816871,-1.2422467527162027e-06
-0.11400311319448254,-0.000568960505760486,-1.512599000876746e-06
-0.11596756756478872,-0.0006264531759503038,-1.8114524213044434e-06
-0.11793653790664901,-0.0006849292023181632,-2.13929801587156e-06
-0.11990828103039575,-0.0007443904070524245,-2.4966279182142072e-06
-0.12188110063816751,-0.0008048377524695653,-2.8839349580947046e-06
-0.12385334957646728,-0.0008662713650232239,-3.301712237467902e-06
-0.1258234317857666,-0.0009286905603637824,-3.750452718814654e-06
-0.12778980394523087,-0.0009920938692965318,-4.230648826229733e-06
-0.1297509768029295,-0.0010564790644835718,-4.742792059674759e-06
-0.13170551617180484,-0.0011218431877272554,-5.287372622727465e-06
-0.13365204356305593,-0.0011881825776609706,-5.864879064074522e-06
-0.13558923642437573,-0.0012554928976578285,-6.475797932904222e-06
-0.13751582795204126,-0.0013237691637519328,-7.120613448256662e-06
-0.13943060645200475,-0.0013930057723529443,-7.799807182282881e-06
-0.14133241423365472,-0.0014631965275243592,-8.513857757252207e-06
-0.14322014602906538,-0.0015343346675900393,-9.263240556030806e-06
-0.14509274693945548,-0.0016064128908321695,-1.0048427445636359e-05
-0.14694920991649676,-0.0016794233800461575,-1.086988651335594e-05
-0.14878857278518084,-0.001753357825721577,-1.1728081814797874e-05
-0.15060991480674024,-0.0018282074476195572,-1.2623473133133157e-05
-0.1524123527706029,-0.001903963014513893,-1.3556515748666519e-05
-0.15419503660157222,-0.001980614861856937,-1.4527660217759227e-05
-0.15595714447587386,-0.0020581529071262983,-1.5537352160005035e-05
-0.15769787745505973,-0.0021365666626090318,-1.658603205243887e-05
-0.1594164536634806,-0.002215845245388667,-1.7674135029438294e-05
-0.16111210204676696,-0.002295977384316229,-1.880209068686452e-05
-0.1627840557526909,-0.0023769514237660934,-1.99703228888851e-05
-0.16443154517382996,-0.0024587553239977236,-2.1179249575826055e-05
-0.16605379068962653,-0.002541376657963588,-2.2429282571316384e-05
-0.16764999515092097,-0.002624802604423725,-2.372082738691321e-05
-0.1692193361658723,-0.0027090199372529233,-2.505428302233237e-05
-0.17076095826661905,-0.002794015010861046,-2.6430041759360865e-05
-0.1722739650494588,-0.0028797737416900652,-2.784848894749864e-05
-0.17375741138017003,-0.0029662815857974725,-2.9310002779370527e-05
-0.17521029574337812,-0.0030535235125783594,-3.0814954053964486e-05
-0.17663155279917223,-0.003141483974713997,-3.2363705925787574e-05
-0.17802004619745462,-0.003230146874463154,-3.395661363808186e-05
-0.1793745616917285,-0.00331949552643545,-3.559402423830651e-05
-0.18069380058898823,-0.0034095126170056293,-3.727627627416678e-05
-0.1819763735715953,-0.0035001801605457753,-3.900369946855463e-05
-0.1832207949303395,-0.003591479452671259,-4.0776614371858885e-05
-0.1844254772529997,-0.0036833910207170937,-4.259533199020597e-05
-0.18558872661600395,-0.0037758945716843445,-4.4460153388306334e-05
-0.18670873832625123,-0.0038689689379199084,-4.6371369265707395e-05
-0.1877835932567661,-0.003962592020815663,-4.832925950539129e-05
-0.1888112548162314,-0.004056740732833912,-5.033409269380368e-05
-0.18978956659042026,-0.004151390938185575,-5.238612561155855e-05
-0.1907162506937127,-0.004246517392506608,-5.4485602694231596e-05
-0.1915889068701816,-0.004342093681897582,-5.663275546283264e-05
-0.19240501238479366,-0.004438092161711326,-5.8827801923734866e-05
-0.19316192274509794,-0.004534483895493799,-6.107094593803615e-05
-0.1938568732913143,-0.004631238594502902,-6.336237656053532e-05
-0.19448698168606485,-0.004728324558247247,-6.570226734872286e-05
-0.19504925132369572,-0.004825708616499687,-6.809077564240959e-05
-0.19554057566575112,-0.0049233560732470484,-7.052804181484628e-05
-0.1959577434965528,-0.005021230653037625,-7.301418849641744e-05
-0.19629744508061606,-0.005119294450181917,-7.554931977222232e-05
-0.19655627919108254,-0.005217507881249842,-7.813352035508027e-05
-0.19673076096845193,-0.0053158296412897255,-8.076685473571515e-05
-0.1968173305656945,-0.005414216664173262,-8.34493663120809e-05
-0.1968123625404808,-0.005512624087449806,-8.618107649998666e-05
-0.19671217596499402,-0.005611005222076175,-8.896198382736816e-05
-0.1965130452338403,-0.005709311527375883,-9.179206301473117e-05
-0.19621121155646634,-0.00580749259157346,-9.467126404446852e-05
-0.19580289512164423,-0.005905496118242988,-9.759951122192262e-05
-0.19528430792039755,-0.006003267919003499,-0.00010057670223123424
-0.1946516672119736,-0.006100751912786592,-0.00010360270718918177
-0.19390120961455823,-0.006197890131993225,-0.00010667736770037672
-0.1930292057970684,-0.006294622735846131,-0.00010980049591733656
-0.19203197573911931,-0.006390888031230178,-0.00011297187360910564
-0.19090590451253542,-0.006486622501293092,-0.00011619125124223646
-0.18964745852138573,-0.0065817608420515724,-0.00011945834707807263
-0.18825320212120536,-0.00667623600721222,-0.00012277284629038857
-0.18671981452386163,-0.006769979261373487,-0.000126134400107535
-0.18504410688287723,-0.006862920241725172,-0.00012954262498330967
-0.18322303944501897,-0.006954987028307146,-0.00013299710180081774
-0.1812537386464945,-0.007046106222830024,-0.00013649737511360204
-0.17913351402459804,-0.0071362030359977974,-0.000140042952428309
-0.17685987480717782,-0.007225201383205741,-0.0001436333035331099
-0.1744305460360059,-0.007313023988416537,-0.00014726785987601547
-0.17184348408108016,-0.007399592495945809,-0.00015094601399710605
-0.1690968914127852,-0.007484827589819275,-0.0001546671190185473
-0.1661892305133718,-0.007568649120300815,-0.00015843048819607733
-0.1631192368216771,-0.007650976237134577,-0.00016223539453543616
-0.1598859306127533,-0.007731727528993185,-0.0001660810704769681
-0.15648862771850058,-0.0078108211685759986,-0.00016996670765136038
-0.1529269490010511,-0.007888175062755886,-0.00017389145670919335
-0.1492008285011709,-0.007963707007131442,-0.00017785442722666517
-0.14531052019915633,-0.008037334844306524,-0.00018185468768952467
-0.14125660334057338,-0.008108976625191456,-0.00018589126555689916
-0.13703998628907998,-0.00817855077259887,-0.00018996314740634673
-0.1326619088733767,-0.008245976246389484,-0.00019406927916109382
-0.12812394320025636,-0.008311172709407892,-0.00019820856640004317
-0.12342799291667779,-0.008374060693437126,-0.00020237987475075442
-0.11857629092322197,-0.008434561764397101,-0.00020658203036521297
-0.11357139556547145,-0.008492598686019275,-0.00021081382047781705
-0.10841618535274791,-0.008548095581248829,-0.00021507399404463407
-0.10311385227242299,-0.008600978090655121,-0.00021936126246261005
-0.09766789378496278,-0.008651173527169468,-0.0002236743003670662
-0.09208210360165119,-0.008698611026516121,-0.0002280117465054876
-0.08636056136057987,-0.008743221692756679,-0.0002323722046853058
-0.08050762132111298,-0.008784938738427102,-0.00023675424479310174
-0.07452790019077175,-0.008823697618805073,-0.0002411564038824098
-0.06842626418582697,-0.008859436159899222,-0.0002455771873270859
-0.06220781541461204,-0.008892094679799333,-0.0002500150700370105
-0.05587787766460731,-0.008921616103069137,-0.00025446849773272764
-0.04944198166945531,-0.008947946067902652,-0.0002589358882754706
-0.042905849925778755,-0.008971033025801461,-0.00026341563304889664
-0.03627538112141505,-0.00899082833356326,-0.0002679060983887378
-0.029556634229754474,-0.009007286337401051,-0.0002724056270564789
-0.022755812321880863,-0.00902036444903896,-0.0002769125397530889
-0.015879246146975477,-0.009030023213656174,-0.00028142513666876265
-0.008933377529321638,-0.009036226369575249,-0.0002859416990645705
-0.0019247426278356924,-0.009038940899614538,-0.00029046049088186796
0.005140044895433587,-0.009038137074047638,-0.0002949797603752835
0.012254310746988342,-0.009033788485137032,-0.0002994977417650797
0.019411336856264658,-0.009025872073236218,-0.000304012656904673
0.02660437814897425,-0.009014368144484908,-0.0003085227169591033
0.033826679170302146,-0.00899926038015509,-0.0003130261240902633
0.04107149048359996,-0.008980535837741615,-0.00031752107314473747
0.048332084765053726,-0.008958184943929451,-0.0003220057533401552
0.055601772510412914,-0.008932201479610585,-0.00032647834994604024
0.06287391726650966,-0.008902582557166354,-0.00033093704595523447
0.07014195029763691,-0.008869328590275317,-0.0003353800237420949
0.07739938459663576,-0.00883244325655175,-0.0003398054667038017
0.08463982815648045,-0.00879193345336347,-0.00034421156088128047
0.09185699643046907,-0.008747809247216732,-0.00034859649655642554
0.09904472392361856,-0.00870008381712821,-0.0003529584698225118
0.10619697487107559,-0.008648773392429535,-0.00035729568412490125
0.11330785297321183,-0.008593897185468463,-0.0003616063517693757
0.12037161017446467,-0.008535477319681545,-0.00036588869539566323
0.12738265449245,-0.008473538753514816,-0.0003701409494139623
0.1343355569204929,-0.00840810920066158,-0.0003743613614025064
0.14122505743746955,-0.00833921904707209,-0.0003785481934644398
0.14804607016470767,-0.008266901265171545,-0.0003826997235425007
0.15479368771254845,-0.008191191325702231,-0.00038681424669021917
0.16146318476072663,-0.008112127107583912,-0.0003908900762985407
0.1680500209192414,-0.00802974880616392,-0.00039492554527697767
0.1745498429211794,-0.007944098840203815,-0.0003989190071885696
0.1809584862026597,-0.007855221757922855,-0.0004028688373381013
0.18727197592166853,-0.007763164142391773,-0.0004067734338131799
0.19348652745503164,-0.007667974516547598,-0.00041063121847791475
0.19959854639691865,-0.007569703248084611,-0.0004144406379190728
0.20560462807064775,-0.007468402454467719,-0.0004182001643447109
0.21150155656315967,-0.007364125908309267,-0.0004219082964354051
0.21728630329769555,-0.007256928943344053,-0.00042556356014831847
0.2229560251679598,-0.00714686836122764,-0.00042916450947446137
0.22850806225838802,-0.007034002339371053,-0.00043270972714961107
0.23393993516772116,-0.006918390340014526,-0.00043619782531945745
0.23924934194086817,-0.006800093020737379,-0.0004396274461596454
0.2444341546015072,-0.006679172146601785,-0.0004429972624514802
0.24949241526730018,-0.006555690504134583,-0.0004463059781141643
0.2544223318215028,-0.006429711817362383,-0.00044955232869453853
0.2592222731118532,-0.0063013006661290435,-0.0004527350818154114
0.2638907636529259,-0.006170522406937849,-0.00045585303758367813
0.26842647782145634,-0.0060374430965692534,-0.0004589050289595549
0.2728282335516969,-0.005902129418725965,-0.00046188992208837874
0.2770949855548235,-0.005764648613949335,-0.00046480661659654754
0.2812258180994815,-0.005625068413035759,-0.00046765404585329384
0.2852199374000082,-0.005483456974160887,-0.000470431177200093
0.28907666366710555,-0.005339882823894108,-0.0004731370121496067
0.29279542288423804,-0.005194414802256272,-0.00047577058655614435
0.2963757383809415,-0.005047122011939977,-0.0004783309707596934
0.29981722228143975,-0.0048980737717743816,-0.000480817269705622
0.30311956691507397,-0.0047473395744752536,-0.0004832286230421844
0.3062825362826353,-0.004594989048675826,-0.0004855642051979722
0.30930595767317404,-0.004441091925186874,-0.00048782322544143784
0.31218971351358327,-0.004285718007390184,-0.0004900049279245821
0.3149337335107944,-0.00412893714563409,-0.0004921085917128381
0.31753798712153697,-0.003970819215476007,-0.0004941335308031157
0.3200024763631882,-0.003811434099604826,-0.0004960790941318858
0.3223272289625982,-0.0036508516732733794,-0.0004979446655751054
0.32451229182713925,-0.003489141793075945,-0.0004997296639416927
0.32655772481361234,-0.003326374288915757,-0.0005014335429621906
0.3284635947682037,-0.003162618959020303,-0.0005030557912741746
0.3302299698151972,-0.002997945567874453,-0.0005045959324058983
0.33185691388094096,-0.0028324238469504184,-0.0005060535247596045
0.3333444814486226,-0.0026661234981180276,-0.0005074281615958716
0.3346927125479783,-0.002499114199618877,-0.0005087194710203059
0.3359016279943945,-0.002331465614483284,-0.0005099271159738314
0.3369712249046927,-0.002163247401258512,-0.0005110507942277669
0.3379014725281843,-0.001994529226900293,-0.0005120902383848066
0.33869230843682685,-0.0018253807816590402,-0.0005130452158869464
0.33934363511656435,-0.0016558717957706923,-0.0005139155290313039
0.3398553169945371,-0.001486072057742917,-0.0005147010149946823
0.34022717792651735,-0.0013160514340126534,-0.0005154015458676211
0.34045899915879013,-0.0011458798897413267,-0.0005160170286985596
0.3405505177701666,-0.0009756275105090874,-0.0005165474055486223
0.3405014255922927,-0.0008053645246684725,-0.0005169926535574166
0.34031136860084577,-0.0006351613261201879,-0.0005173527850201138
0.33997994676902693,-0.00046508849727771976,-0.0005176278474759633
0.3395067143777522,-0.00029521683199102496,-0.0005178179238082805
0.33889118078145325,-0.00012561735820122358,-0.0005179231323558285
0.3381328116324787,4.363863990225941e-05,-0.0005179436270354033
0.3372310305706389,0.00021247960045303884,-0.0005178795974753145
0.3361852213898783,0.00038083366344316815,-0.0005177312691593404
0.33499473070349434,0.0005486286514665113,-0.000517498903580613
0.33365887114075365,0.0007157920519275733,-0.0005171827984047645
0.33217692511470404,0.0008822510009914377,-0.0005167832876415348
0.330548149198081,0.001047932269569634,-0.0005163007418238945
0.3287717791323042,0.0012127622516522303,-0.0005157355681935891
0.3268470354782344,0.001376666955304865,-0.0005150882108918498
0.32477312990222773,0.0015395719966499806,-0.0005143591511538611
0.32254927208101924,0.0017014025971457923,-0.0005135489075054121
0.3201746772042498,0.0018620835844671095,-0.0005126580359600089
0.3176485740492157,0.002021539397280476,-0.000511687130214572
0.31497021359478705,0.002179694094191477,-0.000510636821841704
0.31213887812932,0.0023364713671225035,-0.0005095077804763756
0.3091538907928828,0.002491794559353054,-0.0005083007139947567
0.30601462548087344,0.002645586688421493,-0.0005070163686828131
0.3027205170271894,0.002797770474048509,-0.0005056555293921956
0.29927107158055144,0.002948268371200444,-0.0005042190196808833
0.2956658770844774,0.0030970026083667014,-0.0005027077019359916
0.2919046137669239,0.003243895231079552,-0.00050112247747613
0.287987064542925,0.003388868150657014,-0.0004994642866306959
0.28391312523811657,0.0035318431981022744,-0.0004977341087935061
0.2796828145518122,0.0036727421830497564,-0.0004959329624482181
0.2752962836884228,0.003811486957609815,-0.0004940619051630532
0.2707538255911902,0.0039479994849297186,-0.0004921220335524183
0.2660558837157097,0.004082201912256444,-0.0004901144832031218
0.2612030602876439,0.004214016648257282,-0.00048804042856299333
0.25619612400034647,0.0043433664443292795,-0.0004859010827898467
0.2510360171207583,0.0044701744796095556,-0.000483697697558862
0.24572386198195453,0.004594364449385234,-0.0004814315628266133
0.24026096684663883,0.0047158606565923826,-0.0004791040065501189
0.23464883112837603,0.004834588106086136,-0.00047671639435944925
0.22888914995685458,0.004950472601357444,-0.00047427012918258834
0.22298381807105,0.00506344084336442,-0.00047176665082140787
0.21693493302380562,0.005173420531138133,-0.0004692074354777822
0.21074479768760226,0.005280340463815985,-0.0004665939952290437
0.204415922063438,0.005384130643753746,-0.0004639278774521513
0.19795102440814882,0.005484722380371642,-0.00046121066419611996
0.1913530317068903,0.005582048394400402,-0.00045844397150242696
0.18462507952518578,0.005676042922208421,-0.00045562944867327473
0.1777705112775398,0.005766641819909102,-0.00045276877748774534
0.17079287694662484,0.005853782666965143,-0.0004498636713660268
0.16369593127929782,0.005937404869021623,-0.0004469158744820301
0.1564836314757895,0.006017449759710395,-0.00044392716082484714
0.14916013438082915,0.006093860701174549,-0.00044089933320962593
0.1417297931865961,0.006166583183066406,-0.00043783422223856567
0.13419715366871335,0.006235564919780233,-0.000434733685212854
0.12656694999062465,0.006300755945695067,-0.00043159960499648516
0.11884410011981636,0.0063621087082226776,-0.0004284338888330057
0.11103370089996173,0.006419578158477622,-0.0004252384671163306
0.10314102282075004,0.0064731218394078,-0.00042201529211685927
0.09517150452637392,0.006522699971244581,-0.0004187663366641962
0.08713074710562635,0.006568275534152581,-0.0004154935927878469
0.0790245082096393,0.0066098143479813975,-0.00041219907031731336
0.07085869604517459,0.006647285149045101,-0.00040888479544305673
0.06263936328830298,0.006680659663878471,-0.00040555280923982586
0.05437270095150762,0.0067099126799384234,-0.00040220516615387163
0.04606503221638012,0.006735022113230396,-0.0003988439324555794
0.03772280622094492,0.006755969072839727,-0.00039547118465906185
0.029352591774907604,0.00677273792233869,-0.00039208900791026726
0.020961070971809746,0.006785316338025369,-0.00038869949434517623
0.012555032668856344,0.006793695363935536,-0.000385304741419686
0.004141365805176882,0.006797869463554044,-0.0003819068502128136
-0.0042729474751504945,0.006797836568136551,-0.000378507923704891
-0.012680838935284244,0.006793598121533942,-0.0003751100650324734
-0.021075161638686907,0.00678515912139045,-0.0003717153757217423
-0.029448697673954787,0.006772528156562289,-0.0003683259539022541
-0.03779416626696639,0.006755717440577059,-0.00036494389250296927
-0.046104232338730455,0.006734742840925635,-0.0003615712774325936
-0.05437151556686671,0.006709623903949235,-0.00035821018574637485
-0.06258860000342199,0.006680383875056663,-0.0003548626838016234
-0.07074804428976622,0.006647049713983366,-0.0003515308254043634
-0.07884239248996655,0.006609652104788433,-0.00034821664994967046
-0.08686418554106483,0.006568225460280675,-0.0003449221805584032
-0.09480597329740448,0.006522807920571058,-0.00034164942221319027
-0.10266032712993584,0.006473441345464223,-0.00033840035989668145
-0.11041985303180066,0.006420171300423789,-0.00033517695673520947
-0.11807720517827666,0.00636304703587127,-0.0003319811521511357
-0.12562509989036824,0.006302121459604108,-0.0003288148600272668
-0.1330563299537748,0.006237451102143072,-0.00032567996688683004
-0.14036377924773508,0.006169096074842695,-0.0003225783300925836
-0.14754043764336763,0.006097120020619919,-0.00031951177606871794
-0.1545794161392743,0.006021590057174259,-0.0003164820985492694
-0.16147396221007276,0.0059425767125869215,-0.00031349105685682914
-0.1682174753465671,0.0058601538531977615,-0.00031054037421538296
-0.1748035227615623,0.005774398603670729,-0.00030763173610116586
-0.18122585522292334,0.005685391259174608,-0.0003047667886354545
-0.18747842295693684,0.005593215189629643,-0.0003019471370232534
-0.19355539154462617,0.005497956736004252,-0.00029917434404184496
-0.1994511577164515,0.005399705098688983,-0.0002964499285831716
-0.20516036494014747,0.005298552218024833,-0.00029377536425399315
-0.2106779186925534,0.005194592647116658,-0.0002911520780377078
-0.2159990013091651,0.005087923417116228,-0.00028858144902164955
-0.22111908631366545,0.004978643895210521,-0.0002860648071935679
-0.2260339521395871,0.0048668556355972075,-0.000283603432310866
-0.2307396951633697,0.004752662223771468,-0.0002811985528460238
-0.2352327419712451,0.004636169114487814,-0.000278851345011459
-0.23950986078400047,0.004517483463799003,-0.0002765629318668873
-0.24356817196634642,0.004396713955611416,-0.0002743343825120347
-0.2474051575510033,0.004273970623232079,-0.0002721667113673238
