acceleration,velocity,displacement
0.05722687727429328,0.0,0.0
0.05596874083845974,5.6597809056376514e-05,2.829890452818826e-08
0.054682176325524294,0.00011192326763836853,1.1255944287556078e-07
0.053340890269077186,0.00016593480093566928,2.514884771625797e-07
0.05192174354251138,0.00021856611784146356,4.437389365511461e-07
0.05040419523219663,0.00026972908722881756,6.878865390862866e-07
0.0487686003880818,0.0003193154850389568,9.824088252201738e-07
0.046994356133296035,0.0003671969632996457,1.325665049389475e-06
0.045058928628346914,0.00041322360568046715,1.7158753338795314e-06
0.042938483796656136,0.00045722231189296867,2.151098292666249e-06
0.04061026305919654,0.000498996685320895,2.629207791273181e-06
0.0380559876101958,0.0005383298106555912,3.147871039261424e-06
0.035264828975343665,0.0005749902189483609,3.7045310540634e-06
0.03223448642386768,0.0006087398766479665,4.296396101861564e-06
0.028969819401064127,0.0006393420295604324,4.9204370549657636e-06
0.025479709954280522,0.0006665667942381048,5.5733914668650324e-06
0.021773586353522997,0.0006901934423920066,6.251771585180088e-06
0.017858984024387372,0.0007100097275809618,6.951873170166573e-06
0.013740917867701739,0.0007258096785270063,7.669782873220556e-06
0.009423183737423407,0.0007373917293295689,8.401383577148844e-06
0.0049112463801623115,0.0007445589443883618,9.14235891400781e-06
0.00021608466559858313,0.0007471226099112422,9.888199691157611e-06
-0.004641773305703027,0.0007449097655911899,1.0634215878908827e-05
-0.009628787818758209,0.0007377744850289593,1.1375558004218902e-05
-0.014696213470667956,0.0007256119843842462,1.2107251238925505e-05
-0.019779792173605957,0.0007083739815621093,1.2824244221898684e-05
-0.024801799887239122,0.0006860831855316867,1.3521472805445582e-05
-0.02967559349029361,0.0006588444888429204,1.4193936642632886e-05
-0.03431232194716919,0.000626850531124189,1.4836784152616441e-05
-0.03862897117466411,0.0005903798845632724,1.5445399360460173e-05
-0.042556588650367905,0.0005497871046507564,1.6015482855067187e-05
-0.046047443504055735,0.0005054850885735446,1.6543118951679338e-05
-0.04908000098139417,0.00045792136633081965,1.702482217913152e-05
-0.051660956354813097,0.000407550887662716,1.7457558306128287e-05
-0.05382418589064746,0.00035480831653998576,1.7838737908229638e-05
-0.055627140384155525,0.0003000826534025843,1.8166183393200923e-05
-0.05714558653074733,0.00024369628994513285,1.843807286487478e-05
-0.058467474956062054,0.00018588975920172816,1.865286588944821e-05
-0.05968624626137622,0.00012681289859300902,1.8809217218345577e-05
-0.060893502903920475,6.652302401036068e-05,1.8905885179647262e-05
-0.062170943492680174,4.990800812060346e-06,1.894164209205847e-05
-0.06358178657532536,-5.788556422194242e-05,1.891519471035353e-05
-0.06516257186331768,-0.00012225774344126395,1.8825123056521926e-05
-0.06691704567389994,-0.00018829755220987275,1.8669845408696357e-05
-0.06881424016709355,-0.0002561631951303695,1.8447615035026236e-05
-0.07079223584146722,-0.0003259664331346499,1.8156550220893726e-05
-0.0727675784235047,-0.0003977463402671359,1.7794693834192834e-05
-0.07464879270005653,-0.0004714545258289165,1.7360093401144806e-05
-0.07635165485923907,-0.0005469547496085643,1.6850888763426064e-05
-0.07781379642356642,-0.0006240374752499671,1.6265392650996797e-05
-0.0790063118491626,-0.0007024475293863317,1.5602150148678647e-05
-0.07994020674645717,-0.0007819207886841416,1.485996598964341e-05
-0.08066615101015716,-0.0008622239675624487,1.4037893611520114e-05
-0.08126728522563761,-0.0009431906856803462,1.3135186284898716e-05
-0.08184630944088117,-0.0010247474830136056,1.215121720055174e-05
-0.08250916815077962,-0.001106925221809436,1.1085380848140218e-05
-0.08334822569156079,-0.0011898539187306062,9.936991277870197e-06
-0.08442801136105904,-0.001273742037256916,8.705193299876436e-06
-0.08577622693563698,-0.001358844156405264,7.3889002030453464e-06
-0.08738156807641606,-0.0014454230539112905,5.9867665978870695e-06
-0.08919833667845216,-0.0015337130062887247,4.497198567787062e-06
-0.09115640685831267,-0.0016238903780571071,2.918396875614146e-06
-0.09317418549221498,-0.0017160556742323709,1.2484238494694068e-06
-0.09517183569534558,-0.0018102286848261512,-5.147183300598542e-07
-0.0970822336852986,-0.0019063557195164733,-2.373010532231167e-06
-0.0988578820795735,-0.0020043257773989095,-4.328351280688858e-06
-0.10047313638790116,-0.002103991286632647,-6.3825098127046364e-06
-0.10192235241892135,-0.002205189031036058,-8.537099971538988e-06
-0.10321557187841945,-0.0023077579931847286,-1.0793573483649381e-05
-0.10437370744245258,-0.0024115526328451647,-1.3153228796664327e-05
-0.10542468607059953,-0.0025164518296016906,-1.5617231027887755e-05
-0.10640095318110175,-0.0026223646492275414,-1.818663926730237e-05
-0.10733770894601721,-0.002729233980291101,-2.086243858206169e-05
-0.10827079507565796,-0.0028370382323019386,-2.364557468835821e-05
-0.10923355294917265,-0.002945790406314354,-2.6536989007666356e-05
-0.11025297536412537,-0.003055533670471003,-2.9537651046059035e-05
-0.11134632103787917,-0.0031663333186720054,-3.264858454063054e-05
-0.1125193884822524,-0.003278266173432071,-3.587088428668258e-05
-0.11376691922868101,-0.0033914093272875375,-3.920572203704239e-05
-0.11507480383238623,-0.003505830188818071,-4.265434179509519e-05
-0.1164234239636401,-0.003621579302716084,-4.6218046540862266e-05
-0.11779151560401087,-0.0037386867724999097,-4.989817957847026e-05
-0.11916005229939798,-0.0038571625564516143,-5.3696104242946024e-05
-0.12051565719633155,-0.0039770004111994795,-5.7613185726771574e-05
-0.12185299504598943,-0.00409818473732064,-6.165077830103164e-05
-0.1231755926724875,-0.004220699031179879,-6.58102201852819e-05
-0.12449472628177474,-0.00434453419065701,-7.009283679620034e-05
-0.1258264422964863,-0.00446969477494614,-7.449995127900192e-05
-0.1271873342955855,-0.004596201663242176,-7.903289949809608e-05
-0.12859016769909212,-0.0047240904142395145,-8.369304553683693e-05
-0.1300405615388701,-0.004853405778858496,-8.848179363338593e-05
-0.13153554235292222,-0.004984193830804392,-9.340059343821738e-05
-0.1330640766215307,-0.005116493640291618,-9.845093717376538e-05
-0.13460913976274688,-0.005250330248483757,-0.00010363434911815308
-0.13615077691715718,-0.005385710206823709,-0.00010895236934580681
-0.13766978498154203,-0.005522620487773059,-0.0001144065346931052
-0.13915170633753113,-0.005661031233432596,-0.00011999836055370802
-0.14059057834747754,-0.0058009023757751,-0.00012572932735831186
-0.14199153435044296,-0.005942193432124061,-0.00013160087526226143
-0.14337131813892542,-0.006084874858368745,-0.00013761440940750783
-0.1447562479529423,-0.006228938641414678,-0.00014377131615739955
-0.1461778999929089,-0.006374405715387604,-0.0001500729883358007
-0.14766737157267532,-0.0065213283511703956,-0.00015652085536907968
-0.14924926743015043,-0.0066697866706718085,-0.0001631164128800008
-0.15093657241512748,-0.0068198795905944475,-0.00016986124601063392
-0.15272734455715783,-0.00697171154908059,-0.00017675704158047145
-0.15460371746715845,-0.007125377080092748,-0.00018380558589505813
-0.15653316694844033,-0.007280945522300547,-0.00019100874719625476
-0.15847148567677097,-0.007438447848613153,-0.00019836844388171162
-0.1603665517318932,-0.007597866867317485,-0.00020588660123967693
-0.1621619486813702,-0.007759131117524117,-0.00021356510023209772
-0.1637998010671256,-0.007922111992398366,-0.00022140572178705895
-0.16522263563941594,-0.008086623210751636,-0.00022941008938863396
-0.1663745038410367,-0.008252421780491861,-0.00023757961188425572
-0.16720190445158084,-0.00841920998463817,-0.00024591542776682075
-0.16765512342231856,-0.00858663849857512,-0.0002544183520084274
-0.16769041508992738,-0.008754311267831242,-0.0002630888268916306
-0.1672730255584694,-0.00892179298815544,-0.00027192687901962393
-0.16638053686180648,-0.009088619769365579,-0.00028093208539838445
-0.16500564989577257,-0.009254312862744368,-0.00029010355171443943
-0.16315757826099322,-0.009418394476822751,-0.000299439905384223
-0.16086164579168766,-0.009580404088849092,-0.0003089393046670589
-0.15815710987094736,-0.009739913466680409,-0.0003185994634448236
-0.1550934197301064,-0.009896538731480936,-0.0003284176895439043
-0.15172519588816696,-0.010049948039290072,-0.0003383909329292898
-0.14810644620318825,-0.01019986386033575,-0.0003485158388791027
-0.14428491523548923,-0.010346059541055089,-0.0003587888005797981
-0.1402977017340189,-0.010488350849539843,-0.0003692060057750956
-0.1361690912405526,-0.010626584246027129,-0.0003797634733228791
-0.13191093947110813,-0.010760624261382959,-0.00039045707757658413
-0.12752519333205167,-0.010890342327784538,-0.0004012825608711679
-0.12300761333599185,-0.01101560873111856,-0.00041223553640061945
-0.11835169374644014,-0.011136288384659776,-0.0004233114849585086
-0.11355216035811255,-0.011252240311712052,-0.00043450574930669456
-0.10860802264396632,-0.011363320403213091,-0.00044581352966415713
-0.10352560272084828,-0.011469387215895499,-0.0004572298834737114
-0.09832197628602898,-0.011570311005398938,-0.00046874973258435865
-0.09302882593005952,-0.011665986406506982,-0.0004803678812903116
-0.0876960880186652,-0.011756348863481345,-0.0004920790489253057
-0.08239432951896357,-0.011841394072250159,-0.0005038779203931715
-0.07721473565157522,-0.011921198604835427,-0.0005157592167317144
-0.07226590014686407,-0.011995938922734647,-0.0005277177854954994
-0.0676671577571906,-0.012065905451686674,-0.00053974870768271
-0.06353890273415255,-0.012131508481932346,-0.0005518474146495195
-0.05999109212474719,-0.012193273479361796,-0.0005640098056301666
-0.05711165164250477,-0.012251824851245423,-0.0005762323547954702
-0.05495647452766944,-0.01230785891433051,-0.0005885121966782582
-0.05354219207479642,-0.012362108247631743,-0.0006008471802592393
-0.05284232558650773,-0.012415300506462395,-0.0006132358846362864
-0.052787072237687915,-0.012468115205374494,-0.0006256775924922049
-0.05326671689420594,-0.01252114209994044,-0.0006381722211448623
-0.054138416078873715,-0.01257484466642698,-0.000650720214528046
-0.05523601659989231,-0.012629531882766363,-0.0006633224028026426
-0.05638260672431336,-0.012685341194428466,-0.00067597983934124
-0.05740526395946129,-0.012742235129770354,-0.0006886936275033394
-0.058150767216834216,-0.012800013145358502,-0.0007014647516409039
-0.05850027763102016,-0.012858338667782429,-0.0007142939275474743
-0.05838076682404334,-0.01291677919000996,-0.0007271814864763705
-0.05777149217748466,-0.012974855319510724,-0.0007401273037311309
-0.05670481415960541,-0.013032093472679269,-0.0007531307781272259
-0.05526166499575727,-0.01308807671225695,-0.000766190863219694
-0.05356259231254694,-0.013142488840911102,-0.000779306145996278
-0.051755382120555735,-0.013195147828127654,-0.0007924749643307974
-0.05000015178182948,-0.013246025595078847,-0.0008056955510424007
-0.04845298246957154,-0.013295252162204547,-0.0008189661899210424
-0.047249718736384984,-0.013343103512807526,-0.0008322853677585484
-0.0464921137613265,-0.013389974429056381,-0.0008456519067294803
-0.04623856099180793,-0.013436339766432949,-0.000859065063827225
-0.04650099104703577,-0.01348270954245237,-0.0008725245884816676
-0.04724823381792355,-0.01352958415488485,-0.0008860307353303362
-0.04841467138614147,-0.013577415607486883,-0.0008995842352115221
-0.04991195313526273,-0.013626578919747584,-0.0009131862324751393
-0.05164135368445832,-0.013677355573157444,-0.0009268381997215917
-0.05350491639304317,-0.013729928708196195,-0.0009405418418622685
-0.055414299398570684,-0.013784388316092001,-0.0009542990003744127
-0.05729680140378823,-0.01384074386649318,-0.0009681115664657053
-0.059098383365232904,-0.01389894145887769,-0.0009819814091283907
-0.06078381674579827,-0.013958882558933206,-0.0009959103211372963
-0.062334416987587515,-0.014020441675799898,-0.0010098999832546629
-0.0637439928894535,-0.014083480880738419,-0.001023951944532932
-0.06501360020568261,-0.014147859677285986,-0.0010380676148119443
-0.06614566859249854,-0.014213439311685077,-0.0010522482643064298
-0.06713827032802093,-0.014280081281145336,-0.001066495024602845
-0.06798055351438058,-0.014347640693066536,-0.001080808885589951
-0.06865041991005594,-0.014415956179778755,-0.0010951906840263735
-0.06911533787651497,-0.01448483905867204,-0.0011096410816455989
-0.06933671848710901,-0.014554065086853852,-0.0011241605337183617
-0.06927744720566478,-0.014623372169700239,-0.0011387492523466387
-0.06891106152069158,-0.014692466424063418,-0.0011534071716435205
-0.0682301877334981,-0.014761037048690513,-0.0011681339233798975
-0.06725177243300838,-0.014828778028773765,-0.0011829288309186297
-0.06601749984302868,-0.014895412664911784,-0.0011977909262654725
-0.06458914360996203,-0.01496071598663828,-0.0012127189905912475
-0.06303987267477282,-0.015024530494780646,-0.0012277116138319569
-0.061443350135047786,-0.015086772106185557,-0.00124276726513244
-0.059862753430565956,-0.015147425157968363,-0.001257884363764517
-0.05834169259812658,-0.01520652738098271,-0.0012730613400339925
-0.05689845332315942,-0.015264147453943352,-0.0012882966774514556
-0.05552405852041977,-0.015320358709865142,-0.0013035889305333598
-0.0541836322964123,-0.015375212555273557,-0.0013189367161659292
-0.052820011949484276,-0.015428714377396506,-0.0013343386796322643
-0.051358738233612256,-0.015480803752488054,-0.0013497934386972066
-0.04971417258770788,-0.015531340207898715,-0.0013652995106774
-0.047797021770313655,-0.015580095805077725,-0.0013808552286838883
-0.04552360323835774,-0.01562675611758206,-0.0013964586546452182
-0.04282665496835766,-0.015670931246685418,-0.001412107498327352
-0.03966660390900197,-0.015712177876124098,-0.0014277990528887567
-0.03604142874336783,-0.01575003189245028,-0.001443530157773044
-0.03199304577779014,-0.01578404912971086,-0.0014592971982841244
-0.027608635161325702,-0.01581384997018042,-0.00147509614783407
-0.023016216909069635,-0.015839162396215616,-0.001490922654017268
-0.01837464637370179,-0.015859857827857003,-0.0015067721641293043
-0.013858810789477103,-0.015875974556438594,-0.0015226400803214522
-0.009641326916898035,-0.015887724625291783,-0.0015385219299123174
-0.005872731546759275,-0.015895481654523612,-0.0015544135330522251
-0.0026629658902590143,-0.01589974950324212,-0.001570311148631108
-6.74229633914831e-05,-0.015901114697668944,-0.0015862115807315637
0.001919584656014477,-0.015900188616822634,-0.0016021122323888095
0.003362544041952483,-0.01589754755247365,-0.0016180111004734576
0.004374256718561297,-0.015893679152093394,-0.0016339067138257412
0.005099383154704821,-0.01588894233215676,-0.0016497980245678663
0.0056950139045677806,-0.015883545133627122,-0.001665684268300758
0.006311325740559417,-0.01587754196380456,-0.001681564811849474
0.007074955392821974,-0.015870848823237867,-0.001697439007242995
0.008076808461477627,-0.015863272941310718,-0.0017133060681252693
0.009364787279354869,-0.015854552143440302,-0.0017291649806676448
0.010940925731167514,-0.01584439928693504,-0.0017450144563828324
0.012762204189337418,-0.015832547721974788,-0.0017608529298872872
0.014744839735390638,-0.015818794200012424,-0.001776678600848281
0.016772434195378515,-0.01580303556304704,-0.0017924895157298106
0.01870833659405342,-0.015785295177652325,-0.0018082836811001604
0.02041182001101426,-0.015765735099349792,-0.0018240591962386614
0.02175655116113706,-0.015744650913763716,-0.0018398143892452183
0.022648765834229555,-0.015722448255266034,-0.001855547938829733
0.023041876921109924,-0.015699602933888366,-0.0018712589644243104
0.02294429164997752,-0.015676609849602823,-0.001886947070816056
0.022418298937205587,-0.01565392855430923,-0.0019026123400180121
0.021569882308806698,-0.015631934463686225,-0.0019182552715270099
0.020531575496529255,-0.015610883734783558,-0.0019338766806262448
0.01944213297587028,-0.015590896880547357,-0.0019494775709339102
0.018427206200719838,-0.015571962210959063,-0.0019650590004796635
0.017584490237455102,-0.015553956362739976,-0.001980621959766513
0.016975608919867886,-0.015536676313161314,-0.0019961672761044636
0.01662573285708659,-0.015519875642272836,-0.0020116955520821807
0.016530393897725124,-0.01550329757889543,-0.002027207138692765
0.01666722684892592,-0.015486698768522105,-0.0020427021368664734
0.017009190399683106,-0.0154698605598978,-0.0020581804165306834
0.01753588007478483,-0.015452588024660567,-0.0020736416408229626
0.018240640655209316,-0.01543469976429557,-0.0020890852847174407
0.0191325353313888,-0.01541601317630227,-0.0021045106411877396
0.020233309072046863,-0.015396330254100553,-0.002119916812902941
0.021570257261305893,-0.015375428470933877,-0.0021353026922654584
0.023166511555627187,-0.01535306008652541,-0.002150666936544188
0.02503066140193232,-0.015328961500046631,-0.002166007947337474
0.027147673674596695,-0.015302872332508367,-0.0021813238642537512
0.02947276066475842,-0.015274562115338688,-0.0021966125814776747
0.031929386854275786,-0.015243861041579172,-0.0022118717930561336
0.034412051943820535,-0.015210690322180124,-0.0022270990687380133
0.03679376401195823,-0.015175087414202234,-0.0022422919576062044
0.03893735624242461,-0.015137221854075043,-0.002257448112240343
0.04070926068186792,-0.015097398545612897,-0.002272565422440187
0.04199406172123652,-0.015056046884411345,-0.002287642145155199
0.042707941382291385,-0.015013695882859581,-0.0023026770165388345
0.042808979363577145,-0.014970937422486646,-0.0023176693331915074
0.04230240197419937,-0.014928381731817758,-0.0023326189927686597
0.04123945428675192,-0.014886610803687283,-0.002347526489036412
0.039709576904338094,-0.014846136288091737,-0.0023623928625823016
0.037826885799230096,-0.014807368056739953,-0.0023772196147547175
0.03571327584036105,-0.014770597975920157,-0.0023920085977710477
0.03348124683927738,-0.014736000714580338,-0.002406761897116298
0.031219407310703225,-0.014703650387505348,-0.0024214817226673405
0.028982712074126827,-0.014673549327812932,-0.002436170322525
0.026788315084997207,-0.01464566381423337,-0.002450829929096023
0.024616852284595626,-0.014619961230548574,-0.002465462741618414
0.022418188655076478,-0.014596443710078738,-0.002480070944088728
0.02012018798869326,-0.014575174521756853,-0.0024946567532046454
0.01763886424509581,-0.014556294995639959,-0.002509222487963344
0.014888416948267202,-0.014540031355043276,-0.0025237706511386858
0.011790190074489318,-0.014526692051531898,-0.0025383040128419735
0.008280282255243231,-0.014516656815367032,-0.002552825687275423
0.004315949686859047,-0.014510358699395981,-0.0025673391950328047
-0.00011906555211760153,-0.01450826025732861,-0.002581848504511167
-0.005010345915568076,-0.014510824963062453,-0.002596358047121363
-0.010310007046337897,-0.014518485139543406,-0.0026108727021726657
-0.015935787192119237,-0.014531608036662634,-0.002625397748760769
-0.02177266727109761,-0.014550462263894243,-0.0026399387839110473
-0.02767754677134269,-0.014575187370915463,-0.0026545016087284523
-0.033487064253562314,-0.014605769676427917,-0.002669092087252124
-0.03902813180433009,-0.014642027274456862,-0.0026837159857275666
-0.04413031815581224,-0.014683606499436933,-0.0026983788026145135
-0.04863883417184348,-0.014729991075600761,-0.0027130856014020324
-0.052426480696556185,-0.014780523733034961,-0.0027278408588063503
-0.055402727623369605,-0.014834438337194923,-0.002742648339841465
-0.05751852425478823,-0.014890898963134003,-0.0027575110084916295
-0.05876646816925068,-0.014949041459346023,-0.0027724309787028694
-0.059176926172550916,-0.015008013156516923,-0.0027874095060108008
-0.05881112126103513,-0.015067007180233717,-0.002802447016179176
-0.057752318345280586,-0.015125288900036876,-0.0028175431642193114
-0.05609646912932741,-0.01518221329377418,-0.002832696915316217
-0.05394387860413233,-0.01523723346764091,-0.0028479066386969247
-0.051393172429534194,-0.015289901993157743,-0.002863170206427324
-0.04853797989679593,-0.015339867569320908,-0.0028784850912085633
-0.045465755513583214,-0.015386869437026099,-0.0028938484597117366
