frame_number,force
0,740.3026100000642
1,740.5548366773098
2,740.7967331596681
3,741.0187057122037
4,741.2125376778969
5,741.3718665871303
6,741.4924709726425
7,741.5723741632173
8,741.6117904989545
9,741.6129461814016
10,741.5798103166508
11,741.5177720327958
12,741.4332896882958
13,741.333515389239
14,741.2258728702552
15,741.1175579412976
16,741.0149524121966
17,740.9229926207771
18,740.8445901574505
19,740.780234580316
20,740.7278951617611
21,740.6832803805588
22,740.640432176842
23,740.5925610330651
24,740.5329881412544
25,740.4560505664198
26,740.3578386644892
27,740.2366685958901
28,740.0932365389918
29,739.9304463808955
30,739.752953084416
31,739.5665195812065
32,739.3773218337537
33,739.1913261408449
34,739.0138104100059
35,738.8490446442455
36,738.700114588379
37,738.5688632672313
38,738.4559191992297
39,738.3607739098705
40,738.281880464039
41,738.2167753438874
42,738.1622596064348
43,738.1146876798356
44,738.0703941262567
45,738.0262425606809
46,737.9802166966798
47,737.9319201211462
48,737.88284689378
49,737.8363373013107
50,737.7972133461825
51,737.7711668554105
52,737.7640295173729
53,737.7810690734341
54,737.8264271880996
55,737.9027682174479
56,738.0111651112188
57,738.1512027077846
58,738.3212262854095
59,738.5186286153762
60,738.7400745870352
61,738.9816005959034
62,739.2385771223578
63,739.5055762818143
64,739.7762269382469
65,740.043153006945
66,740.2980766064782
67,740.5321348186482
68,740.7364110628598
69,740.9026266330626
70,741.0238864460914
71,741.0953399609256
72,741.1146247433699
73,741.0820178137534
74,741.0003025782022
75,740.8744156183288
76,740.71094428521
77,740.5175331036837
78,740.3022667626484
79,740.0731250146478
80,739.8376056930101
81,739.6025627339204
82,739.3742278502593
83,739.158317680011
84,738.9601053827773
85,738.7843658183654
86,738.6351674373699
87,738.5155505770842
88,738.4271778448806
89,738.3700578912814
90,738.3424286416761
91,738.3408443646467
92,738.3604555152041
93,738.3954268249845
94,738.4394269919255
95,738.4861301674368
96,738.5296705656816
97,738.5649925250658
98,738.5880660583276
99,738.5959890587903
100,738.5870321361514
101,738.5606747735419
102,738.5176461583134
103,738.4599461745514
104,738.3907947227711
105,738.3144507077205
106,738.2358654673207
107,738.1601805731195
108,738.0921225993324
109,738.0353759327248
110,737.9920325925616
111,737.9622197189183
112,737.9439798216256
113,737.9334355726579
114,737.925228794954
115,737.913183364133
116,737.891100402511
117,737.8535638049941
118,737.7966288877874
119,737.7182877669601
120,737.6186475531542
121,737.4998154743341
122,737.3655415348521
123,737.2207006731823
124,737.0706953145088
125,736.9208402184948
126,736.7757712040934
127,736.638908455941
128,736.5120144929512
129,736.3949174361588
130,736.2854975145341
131,736.1800197014838
132,736.0738205773895
133,735.9622525162347
134,735.8417059183703
135,735.7105000830362
136,735.5694562023425
137,735.4220362320156
138,735.2740337784213
139,735.1328998365015
140,735.0068367898537
141,734.9037928733914
142,734.8304700118806
143,734.7914535845198
144,734.7885801778924
145,734.8206492158823
146,734.8835347366519
147,734.970673299062
148,735.0738269231757
149,735.1839789012258
150,735.2922264682755
151,735.3905750659717
152,735.4725873911333
153,735.5338723220024
154,735.5724062644532
155,735.5886700756455
156,735.5855726454739
157,735.5681324598847
158,735.542912303828
159,735.517247588622
160,735.4983551676474
161,735.4924347730074
162,735.5038793811754
163,735.5347076820025
164,735.5843172872608
165,735.6496121952265
166,735.7254854913845
167,735.8055705817055
168,735.8831364872073
169,735.9519926696228
170,736.0072753518962
171,736.0460067528552
172,736.0673513893039
173,736.0725383065269
174,736.0644704879924
175,736.0470955379244
176,736.0246559757694
177,736.0009606550793
178,735.9788085440675
179,735.9596524455849
180,735.9435269982814
181,735.9291996696395
182,735.9144551804372
183,735.8964149337094
184,735.8718308852414
185,735.8373560008444
186,735.7898423077684
187,735.7267251897866
188,735.6465159921303
189,735.549359413376
190,735.4375449436341
191,735.3158241941392
192,735.191398338333
193,735.0735028101873
194,734.9726116781513
195,734.8993779554212
196,734.8634841362489
197,734.8725809188104
198,734.9314458037569
199,735.0414273178711
200,735.2001941055069
201,735.401793290321
202,735.6370192240511
203,735.8940799139392
204,736.1595172913246
205,736.4192961366751
206,736.659944891842
207,736.8696285846379
208,737.0390566773974
209,737.1621588153122
210,737.2364873786706
211,737.2633247439001
212,737.2474870045053
213,737.1968317452493
214,737.1215015316321
215,737.0329634304097
216,736.9429315019103
217,736.8622830212122
218,736.8000939123419
219,736.7629060294493
220,736.754290943235
221,736.7747137295368
222,736.821658817608
223,736.8899708323939
224,736.9723711808325
225,737.0601139791008
226,737.1437366029492
227,737.2138466992665
228,737.2618759923333
229,737.2807312586407
230,737.2652912679281
231,737.2127265495283
232,737.1226385201794
233,736.9970179917904
234,736.8400227464383
235,736.6575906714695
236,736.4569385988484
237,736.2460186178156
238,736.0329917724029
239,735.8257466320699
240,735.631465076151
241,735.4562320776143
242,735.3046937046804
243,735.1797780567747
244,735.082503016904
245,735.0119001610399
246,734.965082264348
247,734.9374698276752
248,734.923171210489
249,734.9154875960015
250,734.9074965748042
251,734.8926608719563
252,734.8654074211455
253,734.8216195158312
254,734.7589846244215
255,734.6771580003085
256,734.5777417124375
257,734.4641155038851
258,734.3411593806943
259,734.2148801550751
260,734.0919304674429
261,733.9790195896685
262,733.8822558518792
263,733.8064986273276
264,733.754809938773
265,733.7280876051072
266,733.7249467003736
267,733.7418885513041
268,733.7737469077198
269,733.8143432646694
270,733.8572458245676
271,733.8965208380217
272,733.9273795972853
273,733.9466438950442
274,733.952974097456
275,733.9468340027591
276,733.9302099683688
277,733.906150943599
278,733.8782304665897
279,733.8500310437164
280,733.824717693245
281,733.8047271994162
282,733.7915766133657
283,733.7857887902215
284,733.7869288409617
285,733.7937316439136
286,733.8042778206136
287,733.8161583236299
288,733.8265767686861
289,733.832379574042
290,733.8300569882256
291,733.8157947540714
292,733.785655898104
293,733.7359274950405
294,733.6635951105744
295,733.5668479877503
296,733.4455016016169
297,733.3012471828662
298,733.1376777718605
299,732.9600830971247
300,732.7750460803284
301,732.5899036282285
302,732.4121425244591
303,732.2487885050487
304,732.1058325097433
305,731.9877413233573
306,731.8971132417316
307,731.8345392334367
308,731.7987040936077
309,731.7867169272595
310,731.794611901141
311,731.817925318209
312,731.8522458780828
313,731.8936567793153
314,731.9390348101495
315,731.9862197250284
316,732.0340895349337
317,732.08256768618
318,732.1325662296388
319,732.1858561758881
320,732.244858532753
321,732.3123666523269
322,732.3912381314657
323,732.4841136871465
324,732.5932074276701
325,732.7201697668035
326,732.8659857579913
327,733.030871148523
328,733.2141600650058
329,733.4142063803376
330,733.628324215725
331,733.8527787662525
332,734.0828205143254
333,734.3127458802021
334,734.5359770271953
335,734.7451809973413
336,734.9324719861587
337,735.0897362392416
338,735.2090837940896
339,735.2833903919304
340,735.3068750567395
341,735.2756630163535
342,735.1882862554467
343,735.0460659620369
344,734.8533151091038
345,734.6173056250207
346,734.3479641124201
347,734.0572937328471
348,733.7585624228828
349,733.4653345256206
350,733.1904450056469
351,732.9450242195638
352,732.7376803810488
353,732.5739364639883
354,732.4559913864305
355,732.3828241306394
356,732.3505977054665
357,732.3532833957183
358,732.3834305681095
359,732.4330245789392
360,732.4943696945112
361,732.5609106015871
362,732.627898458436
363,732.6928293201019
364,732.7556141037459
365,732.8184575436833
366,732.8854357770965
367,732.9617968460552
368,733.0530732617788
369,733.1641547150168
370,733.2984768170882
371,733.4574347917402
372,733.6400681004565
373,733.8430206890392
374,734.0607652566327
375,734.2860646293208
376,734.5106106408967
377,734.7257422375181
378,734.9231297436968
379,735.0953362830278
380,735.2362131743519
381,735.3411243563777
382,735.4070147066193
383,735.4323479798991
384,735.4169516884141
385,735.3618220944313
386,735.2689602144612
387,735.1413114732206
388,734.9828423628685
389,734.7987103516907
390,734.5954129616064
391,734.380788350522
392,734.1637937945688
393,733.9540762392002
394,733.7614214238466
395,733.5951923306435
396,733.4638424713421
397,733.3745399076321
398,733.3328935211778
399,733.342748622262
400,733.4060166689538
401,733.5225220166693
402,733.6898794071614
403,733.9034436542014
404,734.1563821541753
405,734.4399069150724
406,734.7436767330005
407,735.05635746201
408,735.3663115546454
409,735.6623676390076
410,735.9345942802863
411,736.1749827367339
412,736.3779478153311
413,736.5405871915934
414,736.6626872618957
415,736.7465103867245
416,736.7964253801356
417,736.8184389414264
418,736.8196587349878
419,736.8076966224772
420,736.7900289884449
421,736.7733683882443
422,736.7631362705205
423,736.7631295912771
424,736.7754369914459
425,736.8005949614402
426,736.8379080040095
427,736.8858261574147
428,736.9422953614687
429,737.0050442568489
430,737.0718053469756
431,737.1404795194593
432,737.2092534115493
433,737.2766754600909
434,737.3416908746748
435,737.4036366076297
436,737.4622087334658
437,737.5174251308287
438,737.5695999323451
439,737.6193229333716
440,737.6674187903131
441,737.7148689577183
442,737.762705898437
443,737.8119012998702
444,737.8632532234749
445,737.9172582194719
446,737.9739649982563
447,738.0328372101782
448,738.0926695028348
449,738.1515897703982
450,738.2071563687434
451,738.2565371550413
452,738.2967415675807
453,738.3248703550735
454,738.3383508654625
455,738.3351337685373
456,738.3138386384351
457,738.2738546915997
458,738.2154199846136
459,738.1396998671997
460,738.0488641299493
461,737.9461392705504
462,737.8357974379909
463,737.7230400474922
464,737.61374745017
465,737.5140940713056
466,737.4300579846806
467,737.3668767984383
468,737.3285198782525
469,737.3172620688563
470,737.3334514012774
471,737.3755529495247
472,737.4405116770106
473,737.5244044363048
474,737.6232621445653
475,737.7338768034402
476,737.8544001478862
477,737.9845950458803
478,738.1256912943383
479,738.2798915449306
480,738.4496456697138
481,738.6368486235638
482,738.8421158811248
483,739.064257191203
484,739.3000124976743
485,739.5440548471424
486,739.7892336366244
487,740.027033666924
488,740.2482320719623
489,740.4437175363356
490,740.6053990859054
491,740.7271027899534
492,740.8053499901334
493,740.83992071279
494,740.8341172612658
495,740.7946597724131
496,740.731182285357
497,740.6553616281267
498,740.5797879329695
499,740.5167387281679
500,740.4770216870781
501,740.4690167271167
502,740.4980074025732
503,740.5658564970308
504,740.6710413895252
505,740.8090146018
506,740.9728085531384
507,741.1537823698227
508,741.3424157077261
509,741.5290770396291
510,741.7047190896023
511,741.8614723484071
512,741.9931137853617
513,742.0953879653161
514,742.1661623902826
515,742.2054090022629
516,742.2150129251754
517,742.1984193552735
518,742.1601471729846
519,742.1052173453519
520,742.0385535250024
521,741.9644167354719
522,741.885947616209
523,741.8048985621481
524,741.72161876135
525,741.6352988504531
526,741.5444131213779
527,741.4472571702321
528,741.3424860779985
529,741.2295863655086
530,741.1092259375608
531,740.9834195103274
532,740.8554561776461
533,740.7295814140713
534,740.6104893237535
535,740.5027251687628
536,740.4101065764949
537,740.3352592879731
538,740.2793454998944
539,740.242030910217
540,740.2216802318787
541,740.215709152146
542,740.2209850972093
543,740.2341718867283
544,740.2519464659023
545,740.2710648191883
546,740.2883041366109
547,740.3003459912737
548,740.3036786792876
549,740.2945824685108
550,740.2692319309721
551,740.2239220597745
552,740.155404658043
553,740.0613031457438
554,739.9405545080332
555,739.7938118253466
556,739.6237345992741
557,739.4350943230869
558,739.2346289709169
559,739.0306020230855
560,738.8320689985504
561,738.6479236429863
562,738.4858646098324
563,738.3514571805899
564,738.2474417762932
565,738.1733744260284
566,738.1256100440875
567,738.09758854079
568,738.0803665965511
569,738.0633432811636
570,738.0351329800371
571,737.984527669119
572,737.901466627407
573,737.7779153183538
574,737.608560901194
575,737.3912547355844
576,737.1271569515882
577,736.8205592225356
578,736.4783916961743
579,736.1094708252654
580,735.7236042236423
581,735.3307050398691
582,734.9400602636547
583,734.5598487854805
584,734.1969384066784
585,733.8569323103036
586,733.5443972283422
587,733.2631825452006
588,733.0167264665778
589,732.808251885362
590,732.6407923136476
591,732.517046249147
592,732.4391080219629
593,732.4081446411753
594,732.4240802438583
595,732.4853265370554
596,732.5885803458655
597,732.728705700243
598,732.8987163458839
599,733.0898703701531
600,733.2918912682399
601,733.4933364863964
602,733.6821266307819
603,733.846220796446
604,733.9743920974277
605,734.0570383578521
606,734.0869562351295
607,734.0600009159948
608,733.9755402383083
609,733.8366058262517
610,733.6496720537228
611,733.4240611499656
612,733.171049679344
613,732.9028051005158
614,732.6313008848873
615,732.3673490753466
616,732.1198569495889
617,731.8953713072176
618,731.697934238136
619,731.5292380150493
620,731.3890199062071
621,731.2755847972238
622,731.186315633075
623,731.1180465321097
624,731.0672211059102
625,731.0298296601559
626,731.0012012640647
627,730.9757834812956
628,730.9470426152773
629,730.9075718753456
630,730.8494361162308
631,730.7647287946161
632,730.6462762604308
633,730.4883992147192
634,730.2876293769426
635,730.0432785717727
636,729.7577685748544
637,729.4366571754418
638,729.0883421882656
639,728.7234831248246
640,728.3542279770766
641,727.9933485050454
642,727.6533684005473
643,727.3457342265327
644,727.0800594337217
645,726.863481967564
646,726.7001991934784
647,726.5912491653256
648,726.5345789977607
649,726.5253902956753
650,726.5567050608347
651,726.6200700559043
652,726.7063106105528
653,726.8062548821225
654,726.9113802880897
655,727.0143696444239
656,727.1095757935965
657,727.1933730942246
658,727.2643465659621
659,727.3232642906762
660,727.3728063352278
661,727.4170685893598
662,727.4608943602594
663,727.5091001705653
664,727.5656729371386
665,727.6330365215966
666,727.7115005596115
667,727.7989922025762
668,727.8911306907861
669,727.9816463229524
670,728.0630812873075
671,728.1276569833902
672,728.1681686867855
673,728.1787775313165
674,728.1556029964923
675,728.0970678870218
676,728.0040022525266
677,727.8795544660821
678,727.7289702062425
679,727.5592836733148
680,727.3789372216273
681,727.1973284563204
682,727.0242912611806
683,726.8695426135988
684,726.7421497980628
685,726.6500758575364
686,726.5998380966051
687,726.5962689284707
688,726.6423254771338
689,726.7388910704057
690,726.884552498471
691,727.0753862154482
692,727.3048204470091
693,727.5636629866318
694,727.8403912391009
695,728.1217681108637
696,728.393769215482
697,728.6427145133229
698,728.8564341077707
699,729.0252875584032
700,729.1428961984867
701,729.2065209434271
702,729.2170996017895
703,729.1790163399316
704,729.0996834982898
705,728.9889747497757
706,728.8585037753367
707,728.720747943017
708,728.5880780111672
709,728.4718213930337
710,728.38150620834
711,728.3244001955866
712,728.3053911246548
713,728.3271680029316
714,728.3905829082033
715,728.4950480697519
716,728.6388673449039
717,728.8194713501211
718,729.0335676097665
719,729.2772256188691
720,729.5459181119988
721,729.8345462864606
722,730.1374835629091
723,730.4486759218913
724,730.7618302563735
725,731.0706975651498
726,731.3694235139588
727,731.6529116833142
728,731.9171277565117
729,732.1592669230755
730,732.377727097045
731,732.571883248476
732,732.74172058528
733,732.8874280256637
734,733.0090674056207
735,733.1064195065824
736,733.1790682585253
737,733.2267228849825
738,733.2497037908867
739,733.2494542030825
740,733.2289165778029
741,733.1926460390856
742,733.1466057008646
743,733.0976662443902
744,733.0528916267742
745,733.0187306367878
746,733.0002534755296
747,733.0005722792049
748,733.0205565383093
749,733.0588934950225
750,733.112462695662
751,733.1769243475533
752,733.2473890955549
753,733.319044796466
754,733.3876524509349
755,733.4498735561594
756,733.5034329495782
757,733.5471379207617
758,733.5807732338552
759,733.6048938985748
760,733.6205504033366
761,733.6289919394461
762,733.6313889796944
763,733.6286021613282
764,733.6210149467379
765,733.6084471522779
766,733.5901634391445
767,733.5649775253423
768,733.5314400178285
769,733.4880981572177
770,733.4338212114561
771,733.3681749353318
772,733.2917971609186
773,733.2066962159641
774,733.1163944658795
775,733.0258762633136
776,732.9413476785596
777,732.8698466933669
778,732.818750864356
779,732.7952290412634
780,732.8056910265542
781,732.8553016680687
782,732.9476226930448
783,733.0844145613879
784,733.2655866311187
785,733.4892523762685
786,733.7518388301856
787,734.0482112324294
788,734.3717974607847
789,734.7147270260389
790,735.0680266422459
791,735.4219245416207
792,735.7663013892851
793,736.0912911971549
794,736.3879903853083
795,736.649186339284
796,736.8699819952838
797,737.0481923768529
798,737.1844383973515
799,737.2819451196317
800,737.3461191267877
801,737.3839993304609
802,737.4036564233872
803,737.4135887774577
804,737.4221439292106
805,737.4369846715098
806,737.4646151470052
807,737.5099864263157
808,737.5762132321345
809,737.6644467742926
810,737.7739446256722
811,737.9023414623401
812,738.0460668471186
813,738.2008147893771
814,738.3619674847757
815,738.5249058512
816,738.6851894014046
817,738.8386452042354
818,738.9814411963782
819,739.1102028149744
820,739.2221718518788
821,739.3153492951594
822,739.388554407525
823,739.4413760535932
824,739.4740502554758
825,739.4873196382566
826,739.482303836537
827,739.4603715914355
828,739.4229948334308
829,739.3715869176496
830,739.307360194364
831,739.2312578750547
832,739.1440048357108
833,739.0462851416597
834,738.9390132959608
835,738.8236355625454
836,738.7023746578201
837,738.5783234165115
838,738.455323254583
839,738.3376332153025
840,738.2294691992412
841,738.1345276749094
842,738.0555923983069
843,737.9942806207904
844,737.9509482324147
845,737.924752193751
846,737.9138511555539
847,737.9156985065996
848,737.9273592108985
849,737.9457905844927
850,737.9680659667378
851,737.9915514117233
852,738.0140456028315
853,738.0338809027302
854,738.0499843720588
855,738.0619068626854
856,738.0698272235536
857,738.074527740059
858,738.0773291527613
859,738.0799719406899
860,738.0844333939099
861,738.0926839492367
862,738.1064145757186
863,738.1267933626243
864,738.1543114242743
865,738.188755863656
866,738.2293191684133
867,738.2748247760144
868,738.3240094051573
869,738.3757683381855
870,738.4292785698499
871,738.4839796735573
872,738.5394698303752
873,738.5954022227353
874,738.6514275255287
875,738.7071625389846
876,738.7621250247455
877,738.8155800993255
878,738.8662855443125
879,738.9121851311442
880,738.9501561571208
881,738.9759405685571
882,738.9843624459373
883,738.9698642663815
884,738.9273014732869
885,738.8528537881732
886,738.7448787127333
887,738.604554566227
888,738.4362059557424
889,738.2472438886381
890,738.0476913569203
891,737.8493244334162
892,737.6645345154978
893,737.5050775585335
894,737.3808968202823
895,737.2991888339509
896,737.2638409673525
897,737.2753128848104
898,737.3309735397455
899,737.4258500031949
900,737.5536957568916
901,737.708236838535
902,737.8844029583947
903,738.0793158718953
904,738.2928226605985
905,738.5274469226841
906,738.787763754366
907,739.079329439857
908,739.4073683234133
909,739.775432987175
910,740.1842368321111
911,740.6308337823152
912,741.1082854560918
913,741.6058960162921
914,742.1100053594377
915,742.6052276353734
916,743.075933681968
917,743.5077386212292
