frame_number,force
0,730.8910203771185
1,730.9031856503774
2,730.9163857909211
3,730.930580683785
4,730.9457300403988
5,730.9617934780283
6,730.97873058642
7,730.9965009862962
8,731.0150643843282
9,731.0343806283835
10,731.0544097658637
11,731.0751121073441
12,731.0964482974007
13,731.1183793941542
14,731.1408669585793
15,731.1638731541879
16,731.1873608573637
17,731.2112937781709
18,731.2356365907386
19,731.2603550716395
20,731.2854162443037
21,731.3107885272983
22,731.3364418839511
23,731.3623479702901
24,731.3884802776033
25,731.4148142649321
26,731.4413274755689
27,731.4679996308449
28,731.4948126949275
29,731.5217509059933
30,731.5488007713824
31,731.5759510267908
32,731.6031925621375
33,731.6305183189372
34,731.6579231650031
35,731.6854037518863
36,731.7129583591939
37,731.7405867286525
38,731.7682898901279
39,731.7960699818628
40,731.8239300675234
41,731.8518739528289
42,731.8799060046315
43,731.9080309755795
44,731.9362538378244
45,731.9645796292123
46,731.9930133149451
47,732.0215596671002
48,732.0502231638993
49,732.0790079100907
50,732.1079175789558
51,732.1369553751664
52,732.1661240162812
53,732.1954257296067
54,732.224862260774
55,732.2544348905582
56,732.28414445664
57,732.3139913767566
58,732.3439756690354
59,732.3740969647566
60,732.4043545089047
61,732.4347471448327
62,732.465273280753
63,732.4959308369973
64,732.5267171739094
65,732.5576290011754
66,732.5886622706468
67,732.6198120560693
68,732.6510724240835
69,732.68243630088
70,732.7138953380794
71,732.7454397805411
72,732.7770583385482
73,732.8087380669317
74,732.8404642536212
75,732.8722203196298
76,732.9039877315621
77,732.9357459261417
78,732.9674722443933
79,732.9991418723699
80,733.0307277866349
81,733.0622007052323
82,733.0935290469772
83,733.1246789029527
84,733.1556140246488
85,733.1862958336675
86,733.2166834582954
87,733.24673380243
88,733.276401652254
89,733.3056398254325
90,733.3343993662938
91,733.3626297885436
92,733.3902793648359
93,733.4172954605443
94,733.4436249079848
95,733.4692144173371
96,733.494011021062
97,733.5179625488637
98,733.5410181296074
99,733.5631287152837
100,733.5842476208793
101,733.604331073416
102,733.6233387631883
103,733.6412343896077
104,733.6579861927723
105,733.6735674605504
106,733.687957000393
107,733.7011395654582
108,733.71310622577
109,733.7238546769298
110,733.733389481048
111,733.7417222362966
112,733.7488716720554
113,733.7548636662428
114,733.75973118123
115,733.763514115651
116,733.7662590713754
117,733.7680190373866
118,733.7688529949244
119,733.7688254504981
120,733.7680059046019
121,733.7664682640482
122,733.764290205331
123,733.7615524958218
124,733.7583382788926
125,733.7547323284717
126,733.7508202787039
127,733.7466878356602
128,733.7424199799435
129,733.7381001707688
130,733.7338095633718
131,733.7296262525177
132,733.7256245552995
133,733.7218743460716
134,733.7184404553051
135,733.7153821426376
136,733.7127526526282
137,733.7105988598009
138,733.7089610073602
139,733.7078725412447
140,733.7073600380082
141,733.7074432220264
142,733.7081350655503
143,733.7094419645415
144,733.7113639836552
145,733.7138951642729
146,733.7170238892209
147,733.7207332965751
148,733.7250017334759
149,733.729803240067
150,733.7351080539063
151,733.7408831262469
152,733.7470926429426
153,733.7536985438898
154,733.760661035567
155,733.7679390913831
156,733.7754909346182
157,733.7832744991583
158,733.7912478638564
159,733.7993696565696
160,733.8075994236177
161,733.8158979602351
162,733.8242275982145
163,733.8325524482768
164,733.8408385961953
165,733.8490542529356
166,733.8571698600526
167,733.8651581524912
168,733.8729941818265
169,733.8806553037455
170,733.8881211341405
171,733.8953734787107
172,733.9023962417203
173,733.9091753205047
174,733.9156984927571
175,733.9219553028004
176,733.9279369509995
177,733.9336361881578
178,733.9390472149537
179,733.9441655854366
180,733.9489881132379
181,733.9535127790651
182,733.9577386375961
183,733.961665721028
184,733.9652949360881
185,733.9686279518716
186,733.9716670772091
187,733.9744151278862
188,733.9768752857151
189,733.9790509529597
190,733.9809456066776
191,733.9825626581713
192,733.9839053230723
193,733.984976507402
194,733.9857787140992
195,733.9863139733027
196,733.9865837986279
197,733.9865891706912
198,733.9863305480014
199,733.9858079043761
200,733.9850207918926
201,733.983968428975
202,733.9826498137703
203,733.9810638627924
204,733.9792095739112
205,733.9770862114702
206,733.9746935097248
207,733.972031888791
208,733.9691026750978
209,733.9659083167094
210,733.962452583718
211,733.9587407453018
212,733.9547797170023
213,733.9505781733503
214,733.9461466222244
215,733.9414974389049
216,733.9366448596318
217,733.9316049359064
218,733.926395451605
219,733.921035805822
220,733.9155468655795
221,733.9099507937491
222,733.9042708582408
223,733.8985312285913
224,733.8927567656847
225,733.886972809711
226,733.8812049709701
227,733.8754789279495
228,733.8698202371557
229,733.8642541592359
230,733.858805505766
231,733.8534985105582
232,733.8483567285884
233,733.8434029649566
234,733.8386592357598
235,733.834146762239
236,733.8298859988975
237,733.8258966953057
238,733.8221979897063
239,733.8188085304603
240,733.8157466196467
241,733.8130303724462
242,733.8106778861594
243,733.8087074131569
244,733.8071375321597
245,733.8059873118277
246,733.8052764599768
247,733.8050254513328
248,733.8052556266653
249,733.8059892562806
250,733.8072495614592
251,733.8090606890061
252,733.811447636492
253,733.8144361281248
254,733.8180524427628
255,733.8223231965319
256,733.8272750835469
257,733.8329345796202
258,733.8393276149653
259,733.8464792222413
260,733.8544131664092
261,733.8631515636527
262,733.8727144980063
263,733.8831196454772
264,733.8943819156337
265,733.9065131197322
266,733.9195216725003
267,733.9334123318494
268,733.948185977535
269,733.9638394269535
270,733.9803652845254
271,733.9977518207747
272,734.0159828779565
273,734.0350378002486
274,734.054891387705
275,734.0755138743733
276,734.0968709321404
277,734.118923702527
278,734.1416288583564
279,734.1649386961702
280,734.1888012595031
281,734.2131604936533
282,734.2379564342685
283,734.2631254335716
284,734.2886004281138
285,734.3143112503566
286,734.3401849838866
287,734.3661463594475
288,734.3921181865339
289,734.4180218130712
290,734.4437776040052
291,734.4693054289819
292,734.49452514977
293,734.5193570991262
294,734.5437225439309
295,734.5675441266711
296,734.5907462808663
297,734.6132556176732
298,734.6350012825419
299,734.6559152824673
300,734.6759327859803
301,734.6949923990246
302,734.7130364197952
303,734.7300110745408
304,734.7458667348316
305,734.760558115511
306,734.7740444517908
307,734.7862896536534
308,734.7972624357174
309,734.8069364210171
310,734.8152902179341
311,734.8223074706999
312,734.8279768848327
313,734.8322922288202
314,734.8352523123317
315,734.8368609402115
316,734.8371268413637
317,734.8360635721632
318,734.8336893942488
319,734.8300271259799
320,734.8251039659897
321,734.8189512869474
322,734.8116043981145
323,734.8031022762414
324,734.7934872652812
325,734.7828047460259
326,734.7711027771657
327,734.7584317097061
328,734.7448437773409
329,734.7303926662711
330,734.7151330690353
331,734.6991202282242
332,734.6824094775588
333,734.6650557892871
334,734.6471133373642
335,734.6286350850778
336,734.6096724042302
337,734.5902747314798
338,734.5704892660925
339,734.5503607119642
340,734.5299310653782
341,734.5092394487873
342,734.4883219898726
343,734.4672117439991
344,734.4459386571738
345,734.424529566302
346,734.4030082341658
347,734.3813954176865
348,734.3597089690351
349,734.3379639695438
350,734.3161728960473
351,734.2943458184494
352,734.2724906261925
353,734.2506132802034
354,734.2287180863638
355,734.2068079869437
356,734.184884867141
357,734.1629498737306
358,734.1410037413665
359,734.1190471200006
360,734.0970808953457
361,734.0751064940532
362,734.0531261663707
363,734.0311432411715
364,734.0091623507617
365,733.987189625054
366,733.965232856219
367,733.9433016357954
368,733.9214074665962
369,733.8995638517056
370,733.8777863626337
371,733.8560926885771
372,733.8345026688914
373,733.8130383112888
374,733.7917237985586
375,733.7705854862721
376,733.7496518925766
377,733.7289536791167
378,733.7085236202586
379,733.6883965568949
380,733.6686093311779
381,733.6492006990399
382,733.6302112179864
383,733.6116831084574
384,733.593660088219
385,733.576187180683
386,733.5593104994423
387,733.5430770124364
388,733.5275342898747
389,733.5127302402005
390,733.498712838052
391,733.4855298477635
392,733.4732285456167
393,733.4618554436457
394,733.4514560172767
395,733.4420744389404
396,733.4337533207084
397,733.4265334709122
398,733.4204536712206
399,733.4155504801269
400,733.4118580661235
401,733.4094080705887
402,733.408229498163
403,733.4083486314584
404,733.4097889665956
405,733.4125711655747
406,733.4167130206966
407,733.4222294254595
408,733.4291323459679
409,733.4374307871368
410,733.4471307487636
411,733.4582351675406
412,733.4707438418387
413,733.4846533364695
414,733.4999568648257
415,733.5166441461683
416,733.5347012365455
417,733.5541103330125
418,733.5748495525854
419,733.5968926896679
420,733.6202089581767
421,733.6447627267285
422,733.6705132567824
423,733.6974144544978
424,733.7254146470708
425,733.7544563933943
426,733.7844763375575
427,733.8154051126004
428,733.8471673009022
429,733.879681456056
430,733.9128601890136
431,733.9466103190194
432,733.9808330875827
433,734.0154244315883
434,734.0502753098008
435,734.0852720758243
436,734.1202968903385
437,734.1552281661901
438,734.1899410413689
439,734.2243078766296
440,734.258198776103
441,734.2914821303406
442,734.3240251816275
443,734.3556946110089
444,734.3863571455003
445,734.4158801829614
446,734.4441324317028
447,734.4709845619196
448,734.4963098657324
449,734.5199849215694
450,734.5418902572889
451,734.5619110054062
452,734.579937543018
453,734.595866108052
454,734.6095993824803
455,734.6210470331824
456,734.6301262029165
457,734.6367619466985
458,734.6408876116326
459,734.642445160401
460,734.6413854404248
461,734.6376684023786
462,734.6312632731864
463,734.6221486895007
464,734.6103127978068
465,734.5957533267092
466,734.5784776357436
467,734.5585027432861
468,734.5358553338747
469,734.5105717426809
470,734.4826979123636
471,734.4522893157701
472,734.4194108374788
473,734.3841366079918
474,734.3465497858826
475,734.3067422847562
476,734.2648144434798
477,734.2208746402104
478,734.1750388531807
479,734.1274301733482
480,734.0781782753221
481,734.0274188534717
482,733.9752930298763
483,733.9219467399378
484,733.8675301004287
485,733.8121967639789
486,733.7561032635782
487,733.6994083501806
488,733.6422723257344
489,733.5848563733199
490,733.527321886025
491,733.4698297967192
492,733.4125399117914
493,733.3556102530544
494,733.2991964132319
495,733.2434509314255
496,733.1885226953705
497,733.1345563771023
498,733.0816919079438
499,733.0300639975912
500,732.979801700804
501,732.9310280344107
502,732.8838596473677
503,732.8384065468115
504,732.7947718824051
505,732.753051789671
506,732.7133352912107
507,732.6757042531076
508,732.6402333918152
509,732.6069903239763
510,732.5760356484478
511,732.5474230476711
512,732.521199395492
513,732.4974048606764
514,732.4760729990674
515,732.4572308316611
516,732.4408989096842
517,732.4270913696482
518,732.4158159806691
519,732.4070741839724
520,732.4008611226028
521,732.3971656593861
522,732.3959703828995
523,732.3972516031291
524,732.4009793396011
525,732.4071173051274
526,732.4156228886171
527,732.4264471409451
528,732.4395347683054
529,732.4548241374558
530,732.4722472968926
531,732.4917300175656
532,732.51319185642
533,732.5365462459761
534,732.5617006135235
535,732.5885565342361
536,732.6170099231447
537,732.646951271008
538,732.6782659285489
539,732.7108344422678
540,732.7445329432302
541,732.7792335883223
542,732.8148050519562
543,732.8511130648964
544,732.8880209954486
545,732.9253904670487
546,732.96308200587
547,733.0009557121839
548,733.0388719491353
549,733.0766920421488
550,733.114278981713
551,733.1514981221527
552,733.1882178693108
553,733.2243103508077
554,733.2596520634942
555,733.2941244936006
556,733.3276147056855
557,733.360015896583
558,733.3912279099716
559,733.4211577062113
560,733.4497197813108
561,733.4768365285488
562,733.5024385363682
563,733.5264648167916
564,733.5488629599475
565,733.5695892125018
566,733.5886084806979
567,733.6058942614554
568,733.6214285063592
569,733.6352014232892
570,733.6472112201174
571,733.6574637952988
572,733.6659723809449
573,733.6727571440646
574,733.677844750892
575,733.6812678981445
576,733.6830648142842
577,733.683278733649
578,733.6819573466282
579,733.6791522297189
580,733.6749182603191
581,733.6693130225383
582,733.6623962117834
583,733.6542290468503
584,733.644873698535
585,733.6343927436435
586,733.6228486527529
587,733.6103033190362
588,733.5968176341186
589,733.5824511155529
590,733.5672615890231
591,733.5513049265135
592,733.5346348393246
593,733.5173027220635
594,733.4993575409521
595,733.4808457576214
596,733.4618112786831
597,733.44229542224
598,733.4223368948578
599,733.4019717753539
600,733.3812335039677
601,733.360152876695
602,733.3387580451644
603,733.3170745229035
604,733.295125199409
605,733.2729303639519
606,733.2505077411678
607,733.22787254013
608,733.205037518181
609,733.1820130606268
610,733.1588072772832
611,733.1354261165764
612,733.1118734976367
613,733.0881514610601
614,733.0642603398073
615,733.0401989525756
616,733.0159648220503
617,732.9915544192056
618,732.9669634326489
619,732.9421870600094
620,732.9172203172956
621,732.8920583615857
622,732.8666968216597
623,732.8411321303093
624,732.8153618516842
625,732.7893849973475
626,732.7632023253918
627,732.7368166177066
628,732.7102329312567
629,732.6834588200402
630,732.6565045249761
631,732.6293831288976
632,732.6021106731893
633,732.5747062323279
634,732.5471919436288
635,732.5195929916464
636,732.491937548734
637,732.4642566742202
638,732.436584174603
639,732.4089564268718
640,732.381412167271
641,732.353992248762
642,732.3267393718826
643,732.2996977950429
644,732.2729130307191
645,732.2464315329601
646,732.2203003794586
647,732.1945669495135
648,732.1692785986424
649,732.1444823312589
650,732.1202244736535
651,732.0965503498022
652,732.0735039624093
653,732.0511276816877
654,732.0294619449744
655,732.0085449711161
656,731.9884124943086
657,731.9690975225175
658,731.9506301256059
659,731.9330372578199
660,731.9163426185015
661,731.900566553972
662,731.8857260024532
663,731.8718344826697
664,731.8589021255658
665,731.8469357476348
666,731.8359389637673
667,731.8259123370906
668,731.816853562703
669,731.8087576812339
670,731.8016173165613
671,731.795422930041
672,731.790163082117
673,731.7858246919712
674,731.7823932867861
675,731.779853233439
676,731.778187946593
677,731.7773800684369
678,731.7774116168617
679,731.7782641003606
680,731.779918599059
681,731.7823558119211
682,731.7855560704038
683,731.7894993190902
684,731.7941650646159
685,731.7995322954707
686,731.8055793765556
687,731.8122839236019
688,731.8196226640007
689,731.827571292098
690,731.836104327795
691,731.8451949868377
692,731.8548150699912
693,731.8649348772803
694,731.8755231527913
695,731.8865470645284
696,731.8979722220868
697,731.9097627329473
698,731.9218812967348
699,731.9342893358091
700,731.9469471595926
701,731.9598141589355
702,731.9728490260178
703,731.9860099951696
704,731.999255100555
705,732.0125424474118
706,732.0258304938179
707,732.0390783395164
708,732.0522460177536
709,732.065294786136
710,732.0781874130442
711,732.0908884563465
712,732.10336453068
713,732.115584558999
714,732.1275200039103
715,732.1391450744308
716,732.150436904041
717,732.161375696523
718,732.1719448372376
719,732.1821309688925
720,732.1919240319113
721,732.2013172699149
722,732.2103072006946
723,732.2188935530387
724,732.2270791705446
725,732.2348698851167
726,732.2422743646318
727,732.2493039409268
728,732.25597242565
729,732.2622959220172
730,732.2682926394045
731,732.2739827151559
732,732.2793880450216
733,732.2845321214792
734,732.289439878235
735,732.2941375391479
736,732.2986524701056
737,732.3030130327883
738,732.3072484396083
739,732.3113886092984
740,732.3154640225735
741,732.3195055774077
742,732.3235444443194
743,732.3276119235774
744,732.3317393073485
745,732.3359577495033
746,732.3402981442464
747,732.3447910129602
748,732.3494663975371
749,732.3543537582926
750,732.3594818749742
751,732.3648787498355
752,732.370571511849
753,732.3765863207062
754,732.3829482683199
755,732.389681274544
756,732.3968079736113
757,732.4043495889159
758,732.4123257959666
759,732.420754575666
760,732.4296520616825
761,732.4390323862423
762,732.4489075284968
763,732.4592871692662
764,732.4701785557077
765,732.4815863792212
766,732.4935126695735
767,732.5059567078524
768,732.5189149605487
769,732.5323810368216
770,732.5463456706082
771,732.560796728389
772,732.5757192422869
773,732.5910954673462
774,732.60690496139
775,732.6231246853357
776,732.6397291211857
777,732.656690404483
778,732.6739784680228
779,732.6915611938127
780,732.7094045704778
781,732.7274728536755
782,732.7457287279115
783,732.7641334692149
784,732.7826471087196
785,732.8012285968288
786,732.8198359667913
787,732.8384264960575
788,732.8569568640413
789,732.8753833054951
790,732.8936617592317
791,732.9117480124684
792,732.9295978418959
793,732.9471671535855
794,732.9644121245373
795,732.9812893487244
796,732.9977559901944
797,733.01376994537
798,733.0292900158549
799,733.0442760915217
800,733.0586893418528
801,733.0724924120631
802,733.0856496198122
803,733.0981271485084
804,733.1098932345286
805,733.1209183477874
806,733.1311753668427
807,733.1406397500778
808,733.1492897035298
809,733.157106344472
810,733.1640738585128
811,733.1701796468685
812,733.1754144594968
813,733.1797725088977
814,733.1832515589019
815,733.1858529831424
816,733.1875817890503
817,733.1884466042443
818,733.1884596226054
819,733.187636507743
820,733.1859962526229
821,733.1835609956269
822,733.1803557946047
823,733.1764083613784
824,733.171748759758
825,733.1664090703155
826,733.1604230250324
827,733.1538256150918
828,733.1466526762533
829,733.1389404583762
830,733.1307251878098
831,733.1220426325958
832,733.1129276805983
833,733.1034139404101
834,733.0935333744228
835,733.0833159724008
836,733.0727894719802
837,733.0619791302232
838,733.0509075482672
839,733.0395945493256
840,733.0280571087216
841,733.0163093332831
842,733.0043624864338
843,732.9922250550381
844,732.979902854816
845,732.967399172405
846,732.9547149425845
847,732.941848958196
848,732.9287981087291
849,732.9155576425151
850,732.9021214471367
851,732.8884823427176
852,732.874632383329
853,732.8605631630187
854,732.8462661243055
855,732.8317328674809
856,732.8169554586557
857,732.8019267337085
858,732.7866405942897
859,732.7710922905909
860,732.7552786839312
861,732.7391984812923
862,732.7228524344966
863,732.7062434984306
864,732.6893769446186
865,732.6722604280468
866,732.6549040065271
867,732.6373201134221
868,732.6195234865347
869,732.601531058503
870,732.5833618167115
871,732.565036642654
872,732.5465781409627
873,732.5280104667447
874,732.5093591573185
875,732.4906509722862
876,732.4719137448667
877,732.453176247268
878,732.4344680729107
879,732.4158195380481
880,732.3972616047242
881,732.3788258262988
882,732.3605443160956
883,732.3424497391707
884,732.3245753267198
885,732.3069549120014
886,732.2896229854653
887,732.2726147649977
888,732.2559662752872
889,732.2397144290286
890,732.2238971024739
891,732.2085531985184
892,732.1937226915718
893,732.179446649754
894,732.1657672314971
895,732.1527276549115
896,732.140372138752
897,732.1287458138526
898,732.1178946043932
899,732.1078650795715
900,732.098704277566
901,732.0904595044676
902,732.0831781111397
903,732.0769072510276
904,732.0716936218143
905,732.0675831934515
906,732.0646209248486
907,732.0628504717158
908,732.0623138884816
909,732.0630513271046
910,732.0651007345497
911,732.0684975492721
912,732.0732743965073
913,732.0794607831359
914,732.0870827946571
915,732.0961627980444
916,732.1067191545142
917,732.1187659460905
