acceleration,velocity,displacement
-0.03667800315565995,0.0,0.0
-0.036505348904903374,-1.829583801514083e-05,-4.573959503785208e-09
-0.03631961351442075,-3.650207861997186e-05,-1.827343866256338e-08
-0.036121330143426514,-5.461231453443367e-05,-4.105203695116477e-08
-0.035911025469810585,-7.262040343774295e-05,-7.286021644420893e-08
-0.03568921992833987,-9.052046478728057e-05,-1.136454335004648e-07
-0.035456428228483404,-0.0001083068768264864,-1.6335226890390654e-07
-0.035213160033026464,-0.00012597427389186386,-2.219225565834941e-07
-0.03495992067948554,-0.00014351754406999187,-2.8929551107395804e-07
-0.034697211846302506,-0.0001609318272014389,-3.654078538918157e-07
-0.03442553208920844,-0.00017821251318531664,-4.5019393898850463e-07
-0.034145377187918054,-0.00019535524050459825,-5.435858774109833e-07
-0.033857240251392175,-0.00021235589486442581,-6.455136612532394e-07
-0.03356161153875181,-0.00022921060781196182,-7.559052869223362e-07
-0.033258977964790944,-0.0002459157551878475,-8.746868776722886e-07
-0.0329498222698315,-0.0002624679552465031,-1.0017828052808762e-06
-0.03263462184202045,-0.0002788640662744661,-1.1371158106611186e-06
-0.032313847191430545,-0.00029510118353282883,-1.2806071231129423e-06
-0.03198796009274154,-0.00031117663535387187,-1.4321765778346174e-06
-0.03165741143004639,-0.00032708797823456886,-1.5917427312317275e-06
-0.03132263878659853,-0.0003428329907887301,-1.7592229734875522e-06
-0.030984063827982123,-0.00035840966644237526,-1.9345336377953286e-06
-0.03064208953589939,-0.0003738162047833456,-2.1175901056017587e-06
-0.03029709736234716,-0.00038905100150790726,-2.308306907174572e-06
-0.029949444390137126,-0.00040411263694602835,-2.5065978167880557e-06
-0.029599460609681754,-0.0004189998631959831,-2.7123759418235586e-06
-0.029247446451701,-0.0004337115899613288,-2.9255538051128866e-06
-0.02889367073457896,-0.0004482468692578988,-3.1460434199176934e-06
-0.028538369175414344,-0.00046260487923539714,-3.3737563570410173e-06
-0.028181743575474105,-0.00047678490742311924,-3.6086038037056466e-06
-0.0278239617385547,-0.0004907863337516265,-3.850496613999333e-06
-0.027465158123537097,-0.0005046086137171494,-4.099345350866527e-06
-0.027105435172041132,-0.000518251262041044,-4.355060319806075e-06
-0.02674486520094278,-0.00053171383713429,-4.6175515945999086e-06
-0.02638349272652182,-0.0005449959266161561,-4.88672903553752e-06
-0.026021337097259636,-0.0005580971340721015,-5.1625023007095845e-06
-0.02565839534255409,-0.000571017067182055,-5.444780851023124e-06
-0.025294645175016086,-0.0005837553273114475,-5.7334739496465e-06
-0.024930048099814847,-0.0005963115006301553,-6.028490656631901e-06
-0.024564552583724038,-0.0006086851508010399,-6.3297398194897e-06
-0.024198097229056865,-0.0006208758132542351,-6.6371300605035185e-06
-0.02383061389368608,-0.0006328829910349209,-6.950569761575808e-06
-0.023462030696390076,-0.0006447061521824399,-7.269967047380148e-06
-0.023092274840771927,-0.0006563447285667304,-7.595229767567441e-06
-0.022721275183509963,-0.0006677981160728008,-7.926265478727323e-06
-0.022348964473330745,-0.000679065675987011,-8.262981426742275e-06
-0.02197528119803008,-0.0006901467374048513,-8.60528453009024e-06
-0.02160017099103893,-0.0007010406004521185,-8.953081364554483e-06
-0.021223587560879362,-0.000711746540090098,-9.306278149690038e-06
-0.02084549311933656,-0.0007222638102601521,-9.6647807372776e-06
-0.020465858304325926,-0.0007325916481160676,-1.0028494601871655e-05
-0.020084661623766743,-0.0007427292780980908,-1.0397324833425195e-05
-0.019701888480557005,-0.0007526759156241717,-1.0771176131855761e-05
-0.01931752986388493,-0.0007624307702102822,-1.1149952803314374e-05
-0.018931580800739672,-0.0007719930478764384,-1.1533558757836054e-05
-0.01854403865735203,-0.0007813619527409613,-1.1921897507990404e-05
-0.018154901376051375,-0.0007905366877493121,-1.2314872168112972e-05
-0.017764165738856665,-0.0007995164545280391,-1.271238545368231e-05
-0.01737182576429989,-0.0008083004524038282,-1.3114339680415277e-05
-0.01697787135671193,-0.0008168878766840812,-1.3520636762687255e-05
-0.016582287324160422,-0.0008252779163542993,-1.393117821094685e-05
-0.016185052858361054,-0.0008334697513999297,-1.4345865127885407e-05
-0.015786141536749572,-0.0008414625499987073,-1.4764598203235066e-05
-0.015385521877562217,-0.0008492554658522853,-1.5187277707197814e-05
-0.014983158456784275,-0.0008568476359358719,-1.5613803482644853e-05
-0.01457901357306911,-0.0008642381789433352,-1.6044074936364654e-05
-0.014173049416932936,-0.0008714261946908357,-1.6477991029773197e-05
-0.013765230667934577,-0.0008784107647120526,-1.691545026962392e-05
-0.01335552742060533,-0.0008851909542341875,-1.735635069936048e-05
-0.01294391833881615,-0.0008917658156740429,-1.7800589891837538e-05
-0.01253039395690089,-0.0008981343937479722,-1.824806494419304e-05
-0.012114960065444977,-0.0009042957322535587,-1.8698672475693423e-05
-0.011697641125130701,-0.0009102488825512027,-1.9152308629394613e-05
-0.011278483648432001,-0.0009159929137445934,-1.9608869078468563e-05
-0.01085755949008119,-0.0009215269245292216,-2.0068249038037017e-05
-0.010434968997626548,-0.0009268500566511485,-2.053034328333211e-05
-0.010010843994319117,-0.0009319615098991349,-2.0995046174969682e-05
-0.00958535060318073,-0.0009368605585485098,-2.1462251692081594e-05
-0.009158691964132819,-0.0009415465691903382,-2.1931853474016304e-05
-0.00873111091271609,-0.0009460190199095504,-2.2403744871291277e-05
-0.008302892657054405,-0.000950277520801993,-2.287781900646916e-05
-0.007874367429303785,-0.0009543218358235826,-2.3353968845625554e-05
-0.007445913037652157,-0.0009581519059403215,-2.383208728106653e-05
-0.007017957219212274,-0.0009617678735045377,-2.4312067225927746e-05
-0.00659097968042148,-0.0009651701077294461,-2.479380172123624e-05
-0.006165513699292466,-0.0009683592310743746,-2.5277184055937197e-05
-0.005742147154216657,-0.0009713361462877519,-2.5762107900277727e-05
-0.005321522839028035,-0.0009741020637860631,-2.624846745279618e-05
-0.004904337925532563,-0.0009766585289772032,-2.6736157600987e-05
-0.004491342448762572,-0.000979007449070777,-2.7225074095498994e-05
-0.004083336720678509,-0.0009811511188631372,-2.7715113737482474e-05
-0.003681167622656495,-0.000983092244948971,-2.82061745784355e-05
-0.0032857237792076935,-0.000984833967799437,-2.86981561316226e-05
-0.0028979296618278894,-0.000986379881159696,-2.9190959593862382e-05
-0.002518738697407274,-0.0009877340482495047,-2.9684488076214684e-05
-0.002149125455790053,-0.0009889010142878042,-3.017864684184901e-05
-0.0017900769781108387,-0.0009898858148962794,-3.0673343549145033e-05
-0.0014425833018842326,-0.0009906939799662782,-3.1168488497860676e-05
-0.0011076272541216852,-0.0009913315326052798,-3.1663994876003565e-05
-0.0007861736152814848,-0.0009918049828226306,-3.2159779004860545e-05
-0.00047915778639955764,-0.0009921213156730507,-3.265576057948446e-05
-0.00018747410651893937,-0.0009922879736462805,-3.3151862901814294e-05
8.803602629074883e-05,-0.0009923128331663375,-3.364801310351745e-05
0.00034659606143685226,-0.0009922041751444057,-3.4144142355595137e-05
0.000587506029593955,-0.000991970649621648,-3.464018606178665e-05
0.000810153871187331,-0.0009916212346464527,-3.513608403285368e-05
0.001014026112214993,-0.000991165189650602,-3.563178063892794e-05
0.0011987176474981276,-0.0009906120037106738,-3.612722493726826e-05
0.0013639404169934447,-0.000989971339194551,-3.662237077299457e-05
0.0015095308016834274,-0.0009892529713898819,-3.711717685064068e-05
0.001635455614773555,-0.0009884667247857676,-3.76116067746846e-05
0.0017418166032635216,-0.0009876224067312583,-3.8105629057563853e-05
0.001828853386979597,-0.0009867297392336975,-3.8599217094055095e-05
0.0018969447516386261,-0.000985798289699043,-3.909234910128828e-05
0.0019466082065063505,-0.0009848374014595066,-3.958500802407792e-05
0.0019784977372610153,-0.0009838561249735647,-4.0077181405686184e-05
0.0019933997292846924,-0.0009828631506069282,-4.056886122458131e-05
0.001992227093548002,-0.00098186674390122,-4.1060043698208345e-05
0.0019760116875522427,-0.000980874684205945,-4.1550729055235135e-05
0.0019458951754900056,-0.0009798942074901844,-4.2040921278159166e-05
0.0019031184995592174,-0.000978931954071422,-4.253062781854957e-05
0.0018490101352290251,-0.0009779939219127251,-4.301985928754561e-05
0.001784973290536507,-0.0009770854260562837,-4.3508629124537856e-05
0.0017124721942745774,-0.0009762110646850809,-4.39969532472232e-05
0.001633017600645384,-0.0009753746922363509,-4.448484968645356e-05
0.0015481516235147346,-0.0009745793999303109,-4.497233820949522e-05
0.0014594320169557691,-0.0009738275040201933,-4.5459439935482845e-05
0.0013684160485718934,-0.0009731205420038115,-4.5946176946988844e-05
0.0012766441567582311,-0.0009724592769524789,-4.643257190172792e-05
0.001185623623956988,-0.0009718437100073001,-4.691864764846786e-05
0.0010968125283081468,-0.0009712731009692339,-4.7404426851212e-05
0.0010116042580119514,-0.0009707459967726539,-4.788993162564747e-05
0.0009313128831420743,-0.0009702602674873654,-4.8375183191712474e-05
0.0008571596722571842,-0.0009698131493485156,-4.886020154592144e-05
0.0007902610169678635,-0.0009694012941762093,-4.934500515680262e-05
0.0007316179928977438,-0.0009690208244237428,-4.9829610686452606e-05
0.0006821077450543606,-0.0009686673929892548,-5.0314032740805855e-05
0.0006424768413253987,-0.0009683362468426599,-5.079828365076383e-05
0.0006133366872772945,-0.0009680222934605092,-5.1282373285839625e-05
0.0005951610326903906,-0.0009677201690305173,-5.1766308901462384e-05
0.0005882855268107995,-0.000967424307390642,-5.225009502056768e-05
0.0005929092102916604,-0.0009671290087063663,-5.273373334959193e-05
0.000609097786665084,-0.0009668285069571271,-5.32172227285078e-05
0.000636788503802625,-0.0009665170353845102,-5.370055911409321e-05
0.0006757964874667618,-0.0009661888891366929,-5.418373559522351e-05
0.0007258223831389113,-0.0009658384844190415,-5.466674243861245e-05
0.0007864611574661694,-0.0009654604135338902,-5.514956716310068e-05
0.0008572118829376838,-0.0009650494952737893,-5.56321946403026e-05
0.0009374882959269879,-0.0009646008202290731,-5.611460721917831e-05
0.0010266299004397694,-0.0009641097906799813,-5.659678487190558e-05
0.0011239133965847401,-0.0009635721548557252,-5.70787053582895e-05
0.0012285642385768047,-0.0009629840354469348,-5.7560344405865166e-05
0.0013397681600698392,-0.0009623419523472732,-5.804167590281372e-05
0.0014566825327535743,-0.0009616428396740673,-5.852267210081906e-05
0.0015784474401794755,-0.000960884057180834,-5.9003303825032784e-05
0.001704196353040085,-0.0009600633962325291,-5.9483540688386126e-05
0.0018330662942879976,-0.0009591790805706971,-5.996335130758693e-05
0.001964207392831612,-0.0009582297621489172,-6.044270351826684e-05
0.0020967917395901168,-0.0009572145123658117,-6.092156458689552e-05
0.0022300214651126845,-0.0009561328090646361,-6.139990141725314e-05
0.0023631359507626645,-0.0009549845197106673,-6.187768074944696e-05
0.0024954180813813076,-0.0009537698812026313,-6.235486934967528e-05
0.0026261994618739922,-0.0009524894768168175,-6.283143418918014e-05
0.00275486455143679,-0.0009511442108134898,-6.330734261108772e-05
0.0028808537039064154,-0.000949735281249654,-6.37825624841035e-05
0.003003665131349367,-0.0009482641515408401,-6.425706234230113e-05
0.0031228558305170457,-0.0009467325213003735,-6.473081151051143e-05
0.0032380415325062007,-0.0009451422969596176,-6.520378021507643e-05
0.003348895756249477,-0.0009434955626374288,-6.567593967997569e-05
0.0034551480637727366,-0.0009417945516824232,-6.614726220855565e-05
0.0035565816277643002,-0.0009400416192595389,-6.661772125129114e-05
0.003653030233547071,-0.0009382392162942111,-6.708729146017958e-05
0.003744374854490071,-0.0009363898650222018,-6.755594873050868e-05
0.0038305399611390373,-0.0009344961363182945,-6.80236702308438e-05
0.003911489734024777,-0.0009325606288945036,-6.849043442214701e-05
0.003987224329588465,-0.0009305859503786003,-6.895622106696528e-05
0.004057776299649102,-0.0009285747002212909,-6.942101122961526e-05
0.004123207209480692,-0.0009265294543440085,-6.988478726825658e-05
0.004183604456698831,-0.0009244527514274636,-7.034753281969945e-05
0.004239078267916735,-0.0009223470807463097,-7.080923277774289e-05
0.004289758840856023,-0.0009202148714691165,-7.126987326579675e-05
0.004335793596864298,-0.0009180584833596864,-7.172944160450395e-05
0.004377344497453992,-0.0009158801988361069,-7.21879262750529e-05
0.004414585357692892,-0.0009136822163723201,-7.2645316878855e-05
0.00444769907806691,-0.0009114666452633802,-7.310160409426393e-05
0.0044768747292599645,-0.0009092355018115485,-7.355677963103266e-05
0.004502304455292512,-0.0009069907070154104,-7.401083618323941e-05
0.0045241801983221,-0.0009047340858520067,-7.446376738145627e-05
0.004542690287671232,-0.0009024673682305084,-7.49155677449769e-05
0.004558015970791611,-0.0009001921916658926,-7.5366232634951e-05
0.004570327988690876,-0.000897910105676022,-7.581575820928647e-05
0.004579783313200222,-0.0008956225778505492,-7.626414138016811e-05
0.0045865221711215345,-0.0008933310014794688,-7.671137977500062e-05
0.004590665476226129,-0.0008910367045676319,-7.71574717015124e-05
0.0045923127699073595,-0.0008887409600060985,-7.760241611765583e-05
0.004591540743298073,-0.0008864449966277972,-7.80462126068143e-05
0.004588402388963875,-0.0008841500108447318,-7.848886135868244e-05
0.004582926807463577,-0.0008818571785456249,-7.893036315603003e-05
0.004575119667492302,-0.0008795676669268859,-7.937071936739816e-05
0.0045649642961157165,-0.0008772826459359839,-7.980993194561388e-05
0.004552423372314258,-0.0008750032990188765,-8.02480034318526e-05
0.004537441211434088,-0.0008727308328729394,-8.068493696482555e-05
0.00451994664152685,-0.0008704664859096992,-8.112073629452121e-05
0.004499856468805384,-0.0008682115351321161,-8.155540579978166e-05
0.004477079508619027,-0.00086596730113776,-8.198895050884913e-05
0.004451521128317736,-0.0008637351509785257,-8.24213761218782e-05
0.004423088211228435,-0.0008615164986436392,-8.285268903428374e-05
0.00439169440427744,-0.0008593128029897627,-8.32828963596921e-05
0.004357265460364747,-0.0008571255630236022,-8.371200595119544e-05
0.004319744448688611,-0.0008549563105463388,-8.414002641958793e-05
0.004279096602739037,-0.0008528066002834819,-8.456696714729539e-05
0.0042353136087460485,-0.0008506779977306106,-8.499283829679891e-05
0.0041884171839805815,-0.0008485720650324289,-8.541765081248967e-05
0.004138461831631101,-0.000846490345278526,-8.58414164150674e-05
0.004085536688856834,-0.000844434345648404,-8.626414758779915e-05
0.0040297664220364324,-0.0008424055198706807,-8.668585755417891e-05
0.003971311167027569,-0.0008404052504734147,-8.710656024676494e-05
0.003910365546036125,-0.0008384348312951488,-8.752627026720708e-05
0.0038471568125472825,-0.000836495450705503,-8.794500283770724e-05
0.0037819421958191304,-0.0008345881759534114,-8.836277374437196e-05
0.0037150055452971173,-0.0008327139390181324,-8.877959927311485e-05
0.0036466534039556694,-0.0008308735242808192,-8.919549613893959e-05
0.003577210656249765,-0.0008290675582657678,-8.961048140957623e-05
0.0035070158983324614,-0.0008272965016271223,-9.002457242454946e-05
0.003436416668712956,-0.000825560643485361,-9.043778671082757e-05
0.003365764662773272,-0.0008238600981524894,-9.085014189623704e-05
0.0032954110427908484,-0.0008221948042260984,-9.126165562183169e-05
0.0032257019508456068,-0.0008205645259776893,-9.167234545438264e-05
0.003156974333058771,-0.0008189688569067132,-9.208222880010374e-05
0.003089552184883108,-0.0008174072252772278,-9.249132282064973e-05
0.0030237433231676907,-0.0008158789014002151,-9.28996443523191e-05
0.0029598367782562272,-0.0008143830063748591,-9.330720982926286e-05
0.002898100881441322,-0.0008129185219599347,-9.371403521134655e-05
0.0028387821066181446,-0.0008114843012129199,-9.412013591713977e-05
0.0027821047121977306,-0.0008100790795082159,-9.452552676232005e-05
0.00272827121677121,-0.0008087014855259737,-9.49302219035786e-05
0.0026774637261257153,-0.0008073500517902495,-9.533423478790765e-05
0.0026298461056300185,-0.0008060232243323105,-9.573757810693829e-05
0.0025855669539317765,-0.0008047193710674201,-9.614026375578823e-05
0.0025447632846677913,-0.0008034367885077703,-9.654230279568203e-05
0.0025075647817113353,-0.0008021737064911756,-9.694370541943177e-05
0.002474098476965245,-0.0008009282906765064,-9.734448091872369e-05
0.0024444937044068764,-0.0007996986426311634,-9.77446376520506e-05
0.002418887194084736,-0.0007984827974065405,-9.814418301206003e-05
0.002397428171657726,-0.0007972787185651049,-9.854312339105294e-05
0.002380283318581664,-0.0007960842906925451,-9.894146414336736e-05
0.0023676414320659943,-0.0007948973095048831,-9.933920954341672e-05
0.0023597176136608057,-0.0007937154697434515,-9.97363627382288e-05
0.0023567568132105707,-0.0007925363511367336,-0.00010013292569344885
0.002359036557639751,-0.000791357402794021,-0.00010052889913193154
0.0023668687077916194,-0.0007901759264776632,-0.00010092428246424947
0.002380600123267901,-0.0007889890592698983,-0.00010131907371068636
0.002400612171590014,-0.0007877937561961838,-0.00010171326941455288
0.00242731907308524,-0.0007865867733850149,-0.00010210686454694818
0.002461165109628936,-0.0007853646523393364,-0.00010249985240337927
0.0025026207473482207,-0.0007841237058750921,-0.00010289222449293287
0.0025521777475316734,-0.0007828600062513721,-0.00010328397042096449
0.002610343372390891,-0.0007815693759713915,-0.00010367507776652018
0.0026776338184806912,-0.0007802473816736735,-0.00010406553195593144
0.0027545670185535826,-0.000778889331464415,-0.00010445531613421596
0.0028416549554501533,-0.000777490275970914,-0.00010484441103607479
0.002939395650056289,-0.0007760450133195374,-0.0001052327948583974
0.0030482650182671917,-0.0007745480981524566,-0.0001056204431362654
0.0031687088188921625,-0.0007729938546931667,-0.00010600732862447681
0.003301134919230337,-0.0007713763937586361,-0.00010639342118658977
0.0034459060840141813,-0.0007696896335078249,-0.00010677868769340638
0.0036033334479213686,-0.0007679273236248411,-0.00010716309193268955
0.0037736707652090027,-0.0007660830725715584,-0.00010754659453173865
0.003957109454122629,-0.0007641503775167256,-0.00010792915289426072
0.004153774387491742,-0.000762122656556322,-0.00010831072115277898
0.004363720340868025,-0.000759993282874232,-0.00010869125013763662
0.004586929002213957,-0.0007577556205384615,-0.00010907068736348979
0.004823306465505711,-0.0007554030616715316,-0.00010944897703404228
0.005072681158967332,-0.0007529290647654134,-0.00010982606006565151
0.005334802187357394,-0.0007503271939288322,-0.00011020187413032507
0.005609338097143449,-0.000747591158857707,-0.00011057635371852171
0.0058958761017420605,-0.0007447148553079856,-0.00011094943022206313
0.006193921820526598,-0.0007416924058274185,-0.00011132103203734698
0.006502899579347406,-0.00073851820047745,-0.00011169108468892319
0.0068221532966654145,-0.0007351869372584468,-0.00011205951097335716
0.00715094796238328,-0.0007316936619436847,-0.00011242623112315769
0.007488471729993913,-0.0007280338070205904,-0.00011279116299039876
0.007833838683206635,-0.0007242032294172903,-0.00011315422224950823
0.00818609237473531,-0.0007201982466528048,-0.00011351532261852575
0.00854421023727692,-0.0007160156709998017,-0.0001138743760979389
0.008907108930276172,-0.0007116528412079134,-0.00011423129322599082
0.00927365062804763,-0.0007071076513183325,-0.00011458598334912239
0.00964265019390987,-0.0007023785761128431,-0.00011493835490598018
0.010012883128193302,-0.0006974646927823174,-0.00011528831572320397
0.010383094126251395,-0.0006923656984687062,-0.00011563577332101672
0.010752006043146878,-0.0006870819234263566,-0.00011598063522649048
0.011118329046833818,-0.0006816143396538614,-0.00011632280929226053
0.011480769753241863,-0.0006759645649538425,-0.00011666220401841245
0.011838040161510289,-0.0006701348624751545,-0.0001169987288752697
0.012188866234283667,-0.0006641281358762061,-0.00011733229462485755
