frame_number,force
0,730.8944926640046
1,730.9074045521975
2,730.9212947088904
3,730.9361232619568
4,730.9518508239732
5,730.9684384744057
6,730.9858477208842
7,731.0040404484528
8,731.0229788656196
9,731.0426254545357
10,731.0629429308829
11,731.0838942179463
12,731.1054424387426
13,731.1275509294128
14,731.1501832762025
15,731.1733033775436
16,731.196875532129
17,731.2208645530258
18,731.2452359065743
19,731.2699558735643
20,731.2949917294841
21,731.3203119402195
22,731.345886368924
23,731.3716864888421
24,731.3976855956599
25,731.4238590111594
26,731.4501842677336
27,731.4766412618933
28,731.5032123656176
29,731.5298824872696
30,731.5566390777009
31,731.5834720814516
32,731.6103738374619
33,731.63733893754
34,731.6643640525518
35,731.6914477355285
36,731.7185902086259
37,731.7457931385986
38,731.7730594042698
39,731.8003928595342
40,731.8277980959962
41,731.8552802096401
42,731.8828445760771
43,731.9104966393598
44,731.9382417199163
45,731.9660848471086
46,731.9940306211046
47,732.0220831076884
48,732.050245768752
49,732.0785214302736
50,732.1069122880862
51,732.1354199494672
52,732.1640455060561
53,732.192789631724
54,732.2216526983766
55,732.2506349029798
56,732.2797363994166
57,732.3089574283434
58,732.3382984370829
59,732.367760180637
60,732.3973437951302
61,732.4270508367035
62,732.45688328136
63,732.4868434834527
64,732.5169340921552
65,732.54715792695
66,732.577517815406
67,732.6080163989502
68,732.6386559140525
69,732.6694379563276
70,732.7003632336623
71,732.7314313130098
72,732.7626403650872
73,732.7939869114759
74,732.8254655785456
75,732.8570688618403
76,732.8887869030041
77,732.9206072785845
78,732.9525147968332
79,732.9844912973782
80,733.0165154510289
81,733.0485625614873
82,733.0806043744983
83,733.1126089018893
84,733.1445402689795
85,733.1763585947564
86,733.208019914937
87,733.2394761584069
88,733.2706751874138
89,733.301560910848
90,733.3320734776571
91,733.3621495541112
92,733.3917226847341
93,733.4207237332455
94,733.4490813979465
95,733.4767227959694
96,733.503574111785
97,733.5295613057812
98,733.5546108775801
99,733.5786506764094
100,733.6016107486271
101,733.623424211398
102,733.6440281410594
103,733.663364463545
104,733.681380831892
105,733.6980314734379
106,733.7132779882077
107,733.7270900805511
108,733.7394462079976
109,733.7503341343562
110,733.7597513777639
111,733.7677055473349
112,733.7742145629553
113,733.7793067519842
114,733.7830208161729
115,733.7854056636132
116,733.786520103863
117,733.7864324086522
118,733.7852197450859
119,733.7829674921245
120,733.7797684531995
121,733.7757219778881
122,733.7709330046164
123,733.7655110352268
124,733.7595690509488
125,733.7532223782327
126,733.7465875131766
127,733.7397809154983
128,733.7329177863494
129,733.7261108473249
130,733.7194691402932
131,733.7130968693076
132,733.7070923066426
133,733.7015467844434
134,733.6965437916695
135,733.6921581934145
136,733.6884555866637
137,733.6854918032383
138,733.6833125668915
139,733.6819533068367
140,733.681439124487
141,733.6817849050292
142,733.6829955620799
143,733.6850664027438
144,733.6879836012653
145,733.6917247705201
146,733.696259620229
147,733.7015506887014
148,733.7075541324153
149,733.7142205564066
150,733.721495868944
151,733.729322145889
152,733.7376384926152
153,733.7463818934573
154,733.7554880398617
155,733.7648921287343
156,733.774529622636
157,733.7843369642517
158,733.7942522386876
159,733.804215777553
160,733.8141706982459
161,733.8240633715569
162,733.8338438117898
163,733.8434659859388
164,733.8528880410588
165,733.8620724511129
166,733.870986086256
167,733.8796002090705
168,733.8878904037822
169,733.8958364457804
170,733.9034221197091
171,733.9106349952607
172,733.9174661710696
173,733.9239099986926
174,733.9299637993838
175,733.9356275848431
176,733.9409037894475
177,733.9457970173344
178,733.9503138045039
179,733.9544623942152
180,733.95825252326
181,733.9616952164926
182,733.9648025861487
183,733.9675876309278
184,733.970064028979
185,733.9722459198879
186,733.9741476730787
187,733.9757836428796
188,733.9771679134338
189,733.9783140392701
190,733.9792347891964
191,733.9799419022974
192,733.980445865386
193,733.9807557209565
194,733.9808789131779
195,733.9808211773708
196,733.9805864765663
197,733.9801769870395
198,733.9795931327221
199,733.9788336667349
200,733.9778957980387
201,733.9767753622764
202,733.9754670368787
203,733.9739646002275
204,733.9722612331103
205,733.970349858457
206,733.9682235125697
207,733.9658757375639
208,733.9633009808964
209,733.9604949850171
210,733.9574551499253
211,733.954180853879
212,733.9506737209974
213,733.9469378272834
214,733.9429798388288
215,733.9388090787658
216,733.934437522799
217,733.9298797256835
218,733.9251526824925
219,733.9202756300273
220,733.9152697958704
221,733.9101581047316
222,733.9049648529822
223,733.8997153624174
224,733.8944356235835
225,733.8891519378972
226,733.8838905669068
227,733.8786773967263
228,733.8735376257534
229,733.8684954838749
230,733.8635739910661
231,733.8587947623605
232,733.8541778648197
233,733.8497417309071
234,733.8455031317094
235,733.8414772125083
236,733.8376775920209
237,733.8341165248611
238,733.8308051239266
239,733.8277536357335
240,733.8249717586443
241,733.8224689926946
242,733.8202550100793
243,733.8183400361071
244,733.8167352305665
245,733.8154530586722
246,733.8145076395583
247,733.8139150595193
248,733.8136936370448
249,733.8138641268897
250,733.814449851459
251,733.8154767505284
252,733.8169733445367
253,733.818970610808
254,733.8215017748095
255,733.8246020201877
256,733.8283081231416
257,733.832658019101
258,733.8376903116474
259,733.8434437342032
260,733.8499565752282
261,733.857266079043
262,733.865407836854
263,733.8744151845809
264,733.8843186244396
265,733.8951452856663
266,733.9069184363613
267,733.9196570534497
268,733.93337545208
269,733.9480829708245
270,733.9637837060544
271,733.9804762883101
272,733.9981536948619
273,734.0168030947738
274,734.0364057249317
275,734.0569367976972
276,734.0783654429674
277,734.1006546886578
278,734.1237614831758
279,734.1476367616904
280,734.1722255567256
281,734.1974671546216
282,734.2232953024351
283,734.2496384725872
284,734.2764201927364
285,734.3035594456344
286,734.3309711393812
287,734.3585666439403
288,734.3862543855282
289,734.4139404866215
290,734.4415294363782
291,734.4689247751553
292,734.4960297776731
293,734.5227481212336
294,734.5489845273945
295,734.5746453677101
296,734.5996392268089
297,734.6238774189637
298,734.6472744571597
299,734.6697484765934
300,734.6912216173047
301,734.7116203723682
302,734.7308759079006
303,734.7489243591804
304,734.7657071044769
305,734.7811710158472
306,734.7952686847509
307,734.8079586197327
308,734.819205413324
309,734.8289798757428
310,734.837259134274
311,734.8440266991972
312,734.849272498702
313,734.8529928850419
314,734.8551906122792
315,734.8558747840619
316,734.8550607695322
317,734.8527700863037
318,734.849030249751
319,734.8438745867591
320,734.8373420105153
321,734.8294767522825
322,734.8203280468706
323,734.809949770148
324,734.798400028529
325,734.7857407014313
326,734.7720369383618
327,734.7573566130202
328,734.7417697379582
329,734.725347844896
330,734.7081633376815
331,734.6902888271898
332,734.6717964603021
333,734.6527572577241
334,734.6332404763344
335,734.6133130103669
336,734.5930388430608
337,734.5724785577884
338,734.5516889153615
339,734.5307225018262
340,734.5096274486683
341,734.4884472253576
342,734.4672205024102
343,734.4459810812383
344,734.4247578853536
345,734.4035750070369
346,734.3824518047758
347,734.3614030488757
348,734.3404391144958
349,734.3195662221399
350,734.298786725149
351,734.2780994423551
352,734.2575000321744
353,734.2369814025427
354,734.2165341502524
355,734.1961470240018
356,734.1758074067715
357,734.1555018129602
358,734.1352163931872
359,734.114937436048
360,734.0946518534508
361,734.074347635732
362,734.054014264704
363,734.0336430765569
364,734.0132275709683
365,733.992763666631
366,733.9722499060792
367,733.9516876142228
368,733.9310810156063
369,733.910437315308
370,733.8897667479722
371,733.8690825992127
372,733.848401203871
373,733.8277419262762
374,733.8071271281134
375,733.7865821288517
376,733.7661351612388
377,733.7458173206651
378,733.7256625038498
379,733.7057073306594
380,733.6859910429162
381,733.6665553748853
382,733.6474443911617
383,733.6287042890268
384,733.6103831643335
385,733.5925307424268
386,733.5751980779872
387,733.5584372295915
388,733.5423009159786
389,733.5268421612049
390,733.5121139352344
391,733.4981687957142
392,733.4850585360377
393,733.472833844022
394,733.4615439745455
395,733.4512364391888
396,733.441956717479
397,733.4337479976541
398,733.4266509574896
399,733.4207035947685
400,733.4159411122316
401,733.4123958560807
402,733.4100973031276
403,733.40907209001
404,733.4093440772639
405,733.4109344401705
406,733.4138617768971
407,733.4181422230515
408,733.4237895610913
409,733.430815313463
410,733.4392288097624
411,733.4490372199712
412,733.4602455471941
413,733.472856574008
414,733.4868707569119
415,733.5022860640465
416,733.5190977526679
417,733.537298084994
418,733.5568759842016
419,733.5778166364823
420,733.6001010495064
421,733.6237055814826
422,733.6486014577765
423,733.6747542936541
424,733.7021236418143
425,733.730662581839
426,733.7603173664456
427,733.7910271375832
428,733.8227237236852
429,733.8553315268039
430,733.888767504816
431,733.9229412499903
432,733.9577551613266
433,733.9931047043812
434,734.0288787491554
435,734.0649599746159
436,734.1012253280915
437,734.1375465292188
438,734.1737906107595
439,734.2098204917424
440,734.2454955812586
441,734.2806724132475
442,734.3152053133659
443,734.3489470984176
444,734.3817498071444
445,734.4134654594894
446,734.4439468407529
447,734.4730483071343
448,734.5006266086227
449,734.5265417233638
450,734.5506576952772
451,734.5728434648729
452,734.5929736818302
453,734.610929486182
454,734.6265992431634
455,734.6398792168194
456,734.6506741705387
457,734.6588978876158
458,734.66447360971
459,734.6673343948004
460,734.667423399328
461,734.6646940920645
462,734.6591104096909
463,734.6506468655093
464,734.6392886228417
465,734.6250315435276
466,734.6078822196741
467,734.5878579935709
468,734.5649869665858
469,734.5393079931921
470,734.5108706517336
471,734.4797351803056
472,734.4459723651686
473,734.4096633704293
474,734.3708995002366
475,734.3297818873613
476,734.286421104735
477,734.2409367000548
478,734.1934566577538
479,734.1441167963086
480,734.0930601110753
481,734.0404360736197
482,733.9863998980011
483,733.9311117829149
484,733.8747361367004
485,733.8174407907994
486,733.7593962064542
487,733.7007746785356
488,733.6417495390086
489,733.5824943614012
490,733.5231821675261
491,733.4639846386407
492,733.405071334824
493,733.3466089283605
494,733.2887604590824
495,733.2316846213632
496,733.1755350932293
497,733.1204599177449
498,733.0666009456315
499,733.0140933461317
500,732.9630651909409
501,732.9136371146927
502,732.8659220555938
503,732.8200250802262
504,732.7760432954826
505,732.7340658478415
506,732.6941740071017
507,732.6564413289526
508,732.6209338873296
509,732.5877105625389
510,732.5568233656418
511,732.5283177759065
512,732.5022330681523
513,732.4786026106726
514,732.4574541210156
515,732.4388098746209
516,732.4226868680836
517,732.4090969422487
518,732.3980468691893
519,732.3895384030476
520,732.3835682914242
521,732.3801282441545
522,732.379204859372
523,732.3807795102377
524,732.3848281977299
525,732.3913213755893
526,732.4002237541341
527,732.4114940906768
528,732.4250849751171
529,732.4409426193139
530,732.4590066582525
531,732.4792099703394
532,732.5014785236428
533,732.525731254824
534,732.5518799882062
535,732.5798294037652
536,732.6094770639859
537,732.6407135097596
538,732.6734224345246
539,732.7074809436828
540,732.7427599031541
541,732.7791243776104
542,732.8164341562795
543,732.8545443619245
544,732.8933061360837
545,732.9325673915366
546,732.9721736222251
547,733.0119687610352
548,733.0517960757032
549,733.0914990922911
550,733.130922534813
551,733.1699132692993
552,733.2083212410886
553,733.2460003953817
554,733.2828095726969
555,733.3186133723442
556,733.353282978011
557,733.3866969396332
558,733.4187419046028
559,733.4493132895466
560,733.4783158824177
561,733.5056643639318
562,733.5312837374308
563,733.5551096572475
564,733.5770886478854
565,733.5971782100875
566,733.6153468148752
567,733.6315737913527
568,733.6458491163846
569,733.6581731140019
570,733.668556071694
571,733.6770177813597
572,733.6835870139081
573,733.6883009365888
574,733.691204480686
575,733.6923496652277
576,733.691794880938
577,733.6896041382277
578,733.6858462835004
579,733.6805941891756
580,733.6739239245877
581,733.6659139173997
582,733.6566441177636
583,733.6461951791543
584,733.6346476703225
585,733.622081332576
586,733.6085743957021
587,733.5942029640439
588,733.5790404819182
589,733.5631572851854
590,733.5466202432283
591,733.5294924923801
592,733.51183325776
593,733.493697755703
594,733.4751371641592
595,733.4561986446945
596,733.4369253982778
597,733.4173567386703
598,733.3975281714982
599,733.377471472184
600,733.3572147599081
601,733.3367825670207
602,733.3161959044847
603,733.2954723248577
604,733.2746259854192
605,733.2536677150646
606,733.2326050888867
607,733.2114425138408
608,733.1901813282298
609,733.1688199175268
610,733.1473538489288
611,733.1257760265909
612,733.1040768691032
613,733.082244511229
614,733.060265033384
615,733.0381227238934
616,733.0158003792288
617,732.9932796452706
618,732.9705413988243
619,732.9475661651195
620,732.9243345651219
621,732.9008277854981
622,732.8770280627264
623,732.8529191712803
624,732.8284869051274
625,732.8037195422932
626,732.7786082833946
627,732.7531476563043
628,732.7273358803998
629,732.7011751852201
630,732.674672079309
631,732.6478375648263
632,732.6206872923117
633,732.5932416494236
634,732.5655257792251
635,732.5375695273059
636,732.509407320562
637,732.481077982061
638,732.4526244862392
639,732.4240936580925
640,732.3955358203057
641,732.3670043938515
642,732.3385554600725
643,732.3102472945437
644,732.2821398837087
645,732.254294433375
646,732.2267728742993
647,732.1996373666526
648,732.1729498041221
649,732.1467713195185
650,732.1211617951916
651,732.0961793820335
652,732.0718800306249
653,732.0483170382435
654,732.0255406164915
655,732.0035974857849
656,731.9825305042584
657,731.9623783394512
658,731.9431751911362
659,731.9249505728463
660,731.9077291583033
661,731.8915306973435
662,731.8763700040747
663,731.8622570178767
664,731.8491969357634
665,731.8371904130113
666,731.8262338279615
667,731.8163196061726
668,731.8074365981452
669,731.7995705031647
670,731.7927043290339
671,731.7868188740225
672,731.7818932147883
673,731.7779051836852
674,731.7748318205325
675,731.7726497861411
676,731.7713357269549
677,731.7708665824622
678,731.7712198297688
679,731.772373662398
680,731.7743071023867
681,731.7770000458964
682,731.7804332429861
683,731.7845882126725
684,731.7894470958122
685,731.794992450589
686,731.8012069977066
687,731.8080733245636
688,731.8155735602464
689,731.8236890358562
690,731.8323999460799
691,731.8416850271335
692,731.8515212641299
693,731.8618836391521
694,731.8727449301202
695,731.8840755687918
696,731.8958435631939
697,731.9080144863611
698,731.9205515306757
699,731.9334156254116
700,731.9465656133873
701,731.959958480703
702,731.9735496321224
703,731.9872932044623
704,732.0011424113441
705,732.0150499139803
706,732.0289682131526
707,732.0428500567591
708,732.0566488562905
709,732.0703191056622
710,732.0838167967665
711,732.0970998264416
712,732.1101283887106
713,732.1228653451111
714,732.1352765656021
715,732.1473312327063
716,732.1590021019432
717,732.1702657126557
718,732.1811025453572
719,732.1914971241504
720,732.2014380645994
721,732.2109180681047
722,732.2199338635583
723,732.2284860969868
724,732.2365791712092
725,732.2442210402519
726,732.251422966366
727,732.2581992503962
728,732.2645669486561
729,732.2705455902991
730,732.2761569071897
731,732.2814245837334
732,732.2863740288802
733,732.2910321686578
734,732.295427255886
735,732.299588693585
736,732.3035468690782
737,732.3073329964633
738,732.3109789657365
739,732.3145171971439
740,732.317980499238
741,732.3214019292998
742,732.3248146562696
743,732.3282518290004
744,732.3317464545797
745,732.3353312909302
746,732.3390387551569
747,732.342900845981
748,732.3469490766294
749,732.3512144142381
750,732.3557272225747
751,732.3605172056912
752,732.3656133503165
753,732.3710438640608
754,732.3768361048739
755,732.3830164954618
756,732.3896104160006
757,732.396642070505
758,732.4041343260986
759,732.4121085285734
760,732.4205843004868
761,732.4295793290752
762,732.4391091509855
763,732.4491869402425
764,732.4598233054664
765,732.4710261019754
766,732.4828002638661
767,732.4951476605592
768,732.5080669817883
769,732.5215536546241
770,732.5355997954816
771,732.5501941986064
772,732.5653223605811
773,732.5809665389825
774,732.5971058425647
775,732.6137163494866
776,732.6307712489693
777,732.6482410010667
778,732.6660935092724
779,732.6842943010803
780,732.702806712016
781,732.7215920693402
782,732.7406098731127
783,732.75981797422
784,732.7791727500277
785,732.7986292777032
786,732.8181415037693
787,732.8376624076611
788,732.8571441575328
789,732.8765382575893
790,732.8957956871508
791,732.9148670326243
792,732.9337026150056
793,732.9522526173108
794,732.9704672175471
795,732.9882967329061
796,733.0056917803265
797,733.022603457824
798,733.0389835494691
799,733.05478475419
800,733.0699609353466
801,733.0844673854521
802,733.098261099105
803,733.1113010474947
804,733.1235484501187
805,733.134967043019
806,733.1455233458806
807,733.1551869309026
808,733.1639306945791
809,733.1717311308994
810,733.1785686020407
811,733.1844276006215
812,733.1892969958075
813,733.1931702539581
814,733.1960456235696
815,733.1979262748875
816,733.1988203865092
817,733.1987411730537
818,733.1977068486735
819,733.1957405218491
820,733.1928700187455
821,733.1891276350034
822,733.1845498180719
823,733.1791767837433
824,733.1730520715706
825,733.1662220441642
826,733.1587353351053
827,733.1506422504842
828,733.1419941311186
829,733.1328426862545
830,733.123239313358
831,733.1132344207701
832,733.1028767703311
833,733.0922128566206
834,733.0812863386926
835,733.0701375383678
836,733.0588030158127
837,733.0473152291427
838,733.0357022811572
839,733.0239877532333
840,733.0121906236799
841,733.0003252655406
842,732.9884015171442
843,732.9764248182802
844,732.96439640628
845,732.9523135685735
846,732.9401699491299
847,732.9279559045284
848,732.9156589027169
849,732.9032639557718
850,732.8907540774394
851,732.8781107564035
852,732.8653144372832
853,732.8523450036573
854,732.8391822598097
855,732.8258064088205
856,732.8121985239491
857,732.7983410089151
858,732.7842180409522
859,732.7698159879831
860,732.7551237883705
861,732.740133280088
862,732.7248394671605
863,732.7092407142337
864,732.6933388634915
865,732.6771392709376
866,732.6606507615071
867,732.6438855051491
868,732.6268588195047
869,732.6095889092511
870,732.5920965568613
871,732.5744047828921
872,732.5565384943751
873,732.5385241370763
874,732.5203893628625
875,732.5021627195828
876,732.4838733690362
877,732.4655508383049
878,732.4472248097399
879,732.4289249543638
880,732.4106808123513
881,732.3925217229274
882,732.3744768047926
883,732.3565749871401
884,732.3388450904314
885,732.3213159549047
886,732.3040166126469
887,732.2869764958572
888,732.2702256705172
889,732.253795082353
890,732.2377168015422
891,732.2220242537626
892,732.2067524269796
893,732.1919380455887
894,732.1776197061845
895,732.1638379714196
896,732.1506354192016
897,732.1380566444845
898,732.1261482117302
899,732.1149585581982
900,732.1045378504969
901,732.0949377981784
902,732.0862114286241
903,732.0784128275483
904,732.0715968491971
905,732.0658187996625
906,732.0611340962787
907,732.0575979064375
908,732.0552647699111
909,732.0541882085996
910,732.0544203257848
911,732.0560113944839
912,732.0590094335639
913,732.0634597720276
914,732.0694046050334
915,732.0768825474541
916,732.085928191288
917,732.0965716730445
