acceleration,velocity,displacement
-0.0367140863748187,0.0,0.0
-0.03656498368723208,-1.8319767515512695e-05,-4.579941878878174e-09
-0.03640161370848744,-3.6561416864442574e-05,-1.830023797386699e-08
-0.03622447186703017,-5.471793825832197e-05,-4.112007675455812e-08
-0.03603406111152345,-7.278257150296038e-05,-7.299520419487871e-08
-0.03583089037904172,-9.074880937560168e-05,-1.1387804941451922e-07
-0.03561547317000759,-0.00010861040026286401,-1.6371785182413566e-07
-0.03538832619668328,-0.00012636135010453674,-2.2246078941598585e-07
-0.035149968072082496,-0.0001439959236717282,-2.900501078600521e-07
-0.0349009180126979,-0.0001615086451929233,-3.66426250076215e-07
-0.0346416945361678,-0.00017889429833013972,-4.515269859569808e-07
-0.03437281413974881,-0.0001961479254991189,-5.452875419142954e-07
-0.03409478994786033,-0.00021326482652102118,-6.476407299193304e-07
-0.033808130319658417,-0.00023024055658790087,-7.585170756965608e-07
-0.03351333741130946,-0.00024707092352064283,-8.778449457236968e-07
-0.03321090569090074,-0.0002637519842961954,-1.0055506726779063e-06
-0.03290132040641035,-0.00028028004082052317,-1.1415586789570859e-06
-0.032585056010572086,-0.0002966516349247688,-1.2857915978934088e-06
-0.03226257455199815,-0.00031286354256541136,-1.4381703922659537e-06
-0.031934324047232426,-0.000328912767215219,-1.5986144697111114e-06
-0.031600736851128616,-0.0003447965324398092,-1.7670417946248685e-06
-0.03126222804441259,-0.0003605122736636945,-1.9433689961507444e-06
-0.03091919385986678,-0.0003760576291397644,-2.1275114718516092e-06
-0.03057201017235362,-0.0003914304301478195,-2.3193834866735053e-06
-0.030221031083024104,-0.00040662869046166394,-2.518898266825876e-06
-0.02986658763571475,-0.00042165059514134867,-2.7259680882266293e-06
-0.02950898671327176,-0.0004364944887285953,-2.9405043591941153e-06
-0.029148510167548602,-0.00045115886294880037,-3.162417697113464e-06
-0.028785414233129653,-0.0004656423440489699,-3.3916179988629065e-06
-0.0284199292613008,-0.00047994367992257753,-3.6280145048557933e-06
-0.028052259792667605,-0.0004940617271860697,-3.871515856632955e-06
-0.027682584966887032,-0.0005079954383759584,-4.122030148023462e-06
-0.0273110592470231,-0.0005217438494294359,-4.379464969974811e-06
-0.026937813418260983,-0.0005353060675957569,-4.643727449231109e-06
-0.026562955812488482,-0.0005486812599034443,-4.914724281105909e-06
-0.026186573713411168,-0.0005618686422849192,-5.192361756653e-06
-0.025808734906818637,-0.0005748674694399766,-5.476545784584224e-06
-0.02542948935064206,-0.0005876770255043418,-5.7671819083203034e-06
-0.02504887094452818,-0.0006002966155781343,-6.064175318590922e-06
-0.02466689937809852,-0.0006127255581587909,-6.367430862025154e-06
-0.024283582034251794,-0.0006249631785118785,-6.676853046192822e-06
-0.023898915922287944,-0.0006370088030010134,-6.992346041571045e-06
-0.023512889614753597,-0.0006488617543852738,-7.313813680917616e-06
-0.023125485159655877,-0.0006605213480788761,-7.641159456533654e-06
-0.02273667993698839,-0.0006719868893530371,-7.974286515891631e-06
-0.022346448428616904,-0.0006832576714444385,-8.313097656091001e-06
-0.021954763874142805,-0.0006943329745201284,-8.657495317582143e-06
-0.02156159979009511,-0.0007052120654361879,-9.007381577571222e-06
-0.02116693133381793,-0.0007158941982171662,-9.36265814348456e-06
-0.0207707364975751,-0.0007263786151750145,-9.723226346832605e-06
-0.02037299712529379,-0.0007366645485807318,-1.0088987137771543e-05
-0.019973699754674352,-0.0007467512228007238,-1.0459841080616906e-05
-0.01957283629894098,-0.0007566378568141276,-1.0835688350520618e-05
-0.019170404591160786,-0.000766323667036653,-1.1216428731483313e-05
-0.018766408817062742,-0.0007758078703887089,-1.1601961615839653e-05
-0.018360859861014017,-0.0007850896875582281,-1.1992186005326387e-05
-0.017953775588493266,-0.0007941683464206049,-1.2387000513821096e-05
-0.017545181090604697,-0.0008030430855903794,-1.2786303371823842e-05
-0.0171351089214928,-0.0008117131580934038,-1.3189992432744788e-05
-0.016723599364085913,-0.0008201778351647984,-1.3597965181059339e-05
-0.016310700758859407,-0.0008284364101955348,-1.4010118742399422e-05
-0.015896469922734226,-0.0008364882028659332,-1.4426349895664788e-05
-0.01548097267430078,-0.0008443325635151919,-1.484655508726007e-05
-0.015064284471868621,-0.0008519688778017342,-1.52706304475893e-05
-0.014646491163741365,-0.0008593965717106367,-1.569847180996739e-05
-0.014227689842681145,-0.0008666151169622424,-1.612997473213561e-05
-0.013807989786882722,-0.0008736240368696334,-1.656503452059358e-05
-0.013387513459012934,-0.0008804229126811073,-1.7003546257981265e-05
-0.01296639752756961,-0.0008870113904277529,-1.744540483375848e-05
-0.012544793874864329,-0.0008933891882783614,-1.7890504978435007e-05
-0.01212287056282736,-0.0008995561043877844,-1.8338741301601544e-05
-0.011700812734953865,-0.0009055120252122297,-1.8790008334001547e-05
-0.011278823435116752,-0.0009112569342547473,-1.9244200573868292e-05
-0.0108571243232952,-0.0009167909211943503,-1.9701212537730565e-05
-0.010435956269173857,-0.0009221141913424676,-2.016093881586477e-05
-0.010015579808701117,-0.0009272270753619364,-2.062327413254087e-05
-0.009596275456355172,-0.0009321300391782005,-2.1088113411175906e-05
-0.009178343878931048,-0.000936823694012022,-2.155535184447346e-05
-0.00876210595182426,-0.0009413088064697109,-2.2024884969593894e-05
-0.008347902725045353,-0.0009455863086389282,-2.2496608748371054e-05
-0.007936095315955037,-0.0009496573081491783,-2.297041965256808e-05
-0.007527064725598927,-0.0009535230981595668,-2.3446214754145265e-05
-0.007121211559026851,-0.0009571851672307232,-2.392389182049284e-05
-0.006718955621739162,-0.0009606452090259147,-2.4403349414556998e-05
-0.006320735360209815,-0.000963905131771402,-2.4884486999756325e-05
-0.005927007110696285,-0.0009669670673891285,-2.5367205049546457e-05
-0.005538244117696034,-0.0009698333801962265,-2.5851405161442797e-05
-0.005154935282130769,-0.0009725066750461833,-2.63369901752534e-05
-0.004777583600154534,-0.0009749898047667546,-2.6823864295206633e-05
-0.004406704258598677,-0.000977285876731443,-2.7311933215581183e-05
-0.004042822363663972,-0.0009793982583870087,-2.7801104249360796e-05
-0.003686470294895619,-0.0009813305815516485,-2.829128645934546e-05
-0.003338184694305649,-0.0009830867452989488,-2.8782390791058107e-05
-0.0029985031164313056,-0.0009846709172516331,-2.9274330206695752e-05
-0.0026679603738256345,-0.0009860875331241974,-2.976701981928971e-05
-0.002347084612470451,-0.0009873412943707716,-3.0260377026163455e-05
-0.0020363931470640463,-0.0009884371638106551,-3.075432164070881e-05
-0.001736388084053364,-0.0009893803591184344,-3.124877602144108e-05
-0.001447551765205772,-0.0009901763440807493,-3.1743665197240875e-05
-0.0011703420749213055,-0.000990830817540781,-3.2238916987646255e-05
-0.0009051876641562007,-0.0009913496999755503,-3.273446211702534e-05
-0.000652483148372396,-0.0009917391176786825,-3.32302343214389e-05
-0.0004125843385178039,-0.000992005384550405,-3.372617044699617e-05
-0.0001858035687684395,-0.0009921549815272265,-3.422221053851558e-05
2.759480527012171e-05,-0.000992194533718101,-3.471829791732691e-05
0.00022739865386564134,-0.000992130785353317,-3.5214379247094766e-05
0.0004134519776705759,-0.000991970572695433,-3.5710404586606956e-05
0.0005856583844889048,-0.0009917207951048931,-3.620632742855704e-05
0.0007439840629074563,-0.0009913883844930441,-3.6702104723456525e-05
0.0008884601921572843,-0.000990980273429278,-3.7197696887937104e-05
0.0010191847453006626,-0.0009905033621949134,-3.769306779684315e-05
0.0011363236570789258,-0.0009899644850943185,-3.818818475866546e-05
0.0012401113328505504,-0.0009893703763468361,-3.868301847402575e-05
0.0013308504723718085,-0.0009887276358955305,-3.917754297708634e-05
0.001408911181024587,-0.0009880426954821814,-3.967173555993077e-05
0.0014747293488778235,-0.0009873217853497058,-4.016557668013874e-05
0.0015288042940572383,-0.000986570901938972,-4.065904985196091e-05
0.0015716956871029224,-0.000985795776943682,-4.1152141521681576e-05
0.0016040197943393926,-0.0009850018480733213,-4.164484092793583e-05
0.0016264450966725023,-0.0009841942318505683,-4.21371399479168e-05
0.0016396873503520962,-0.0009833776987388122,-4.262903293056415e-05
0.001644504157247172,-0.0009825566508619124,-4.3120516517964325e-05
0.0016416891083540007,-0.000981735102545512,-4.361158945631618e-05
0.0016320655596210498,-0.0009809166638785184,-4.410225239792219e-05
0.001616480093698831,-0.0009801045274651884,-4.459250769575812e-05
0.0015957957166393962,-0.0009793014585126039,-4.508235919225257e-05
0.001570884840003757,-0.0009785097883734432,-4.557181200397408e-05
0.0015426221091864997,-0.0009777314116361457,-4.606087230397648e-05
0.0015118771540128934,-0.0009769677868203459,-4.65495471035906e-05
0.001479507351558352,-0.000976219940693953,-4.703784403546917e-05
0.001446350701357348,-0.0009754884761807241,-4.752577113968784e-05
0.001413218920382181,-0.0009747735837752892,-4.801333665467684e-05
0.001380890868510358,-0.0009740750563280662,-4.850054881470268e-05
0.0013501064122212814,-0.0009733923070078832,-4.8987415655536666e-05
0.0013215608255735096,-0.0009727243901984346,-4.947394482983825e-05
0.001295899815209411,-0.0009720700250382389,-4.9960143433647415e-05
0.0012737152416997899,-0.0009714276212740116,-5.044601784522548e-05
0.0012555415938587421,-0.0009707953070651219,-5.093157357731026e-05
0.001241853254664467,-0.0009701709583529911,-5.1416815143664784e-05
0.0012330625753531077,-0.0009695522293954867,-5.19017459406019e-05
0.0012295187483698723,-0.0009689365840645559,-5.238636814396691e-05
0.0012315074455887525,-0.0009683213275160663,-5.287068262186207e-05
0.0012392511719506465,-0.0009677036378616814,-5.3354688863206506e-05
0.0012529102795709607,-0.000967080597498801,-5.3838384922046624e-05
0.0012725845904765598,-0.0009664492237812892,-5.4321767377366644e-05
0.0012983155800205958,-0.0009658064987386649,-5.4804831307996635e-05
0.001330089070526059,-0.0009651493975760282,-5.528757028207531e-05
0.0013678383744095944,-0.0009644749157147942,-5.5769976360398015e-05
0.0014114478138314744,-0.000963780094167734,-5.625204011286865e-05
0.0014607565370600402,-0.0009630620430800111,-5.6733750647180584e-05
0.0015155625532849513,-0.0009623179633074249,-5.7215095648777446e-05
0.001575626915705576,-0.0009615451659401772,-5.7696061431089346e-05
0.0016406779932634037,-0.000960741089712935,-5.8176632995002626e-05
0.00171041578043251,-0.000959903316269511,-5.8656794096498236e-05
0.001784516199395368,-0.0009590295832745541,-5.9136527321384256e-05
0.0018626353499163956,-0.0009581177953872262,-5.96158141660497e-05
0.0019444136625433354,-0.0009571660331341113,-6.009463512318003e-05
0.0020294799140213116,-0.0009561725597399701,-6.057296977139855e-05
0.002117455068620373,-0.0009551358259943097,-6.105079686783212e-05
0.0022079559107404272,-0.0009540544732494695,-6.152809444264306e-05
0.002300598431602024,-0.000952927334663884,-6.20048398946214e-05
0.002395000931367505,-0.0009517534348231415,-6.248101008699316e-05
0.002490786802991333,-0.0009505319878895519,-6.295658144267133e-05
0.0025875869748370876,-0.0009492623944450947,-6.343153003825498e-05
0.0026850420010397064,-0.0009479442372011255,-6.390583169616653e-05
0.002782803798498684,-0.000946577275751241,-6.437946207440462e-05
0.0028805370373598134,-0.0009451614405422763,-6.4852396753478e-05
0.002977920199095914,-0.0009436968262331623,-6.532461132017185e-05
0.003074646323578708,-0.0009421836846024937,-6.579608144788077e-05
0.0031704234727516147,-0.0009406224171534111,-6.626678297331974e-05
0.0032649749432075662,-0.0009390135675494213,-6.673669196949545e-05
0.0033580392643252533,-0.0009373578139975381,-6.72057848148822e-05
0.003449370024784607,-0.0009356559616752607,-6.76740382588004e-05
0.003538735578042932,-0.0009339089352745538,-6.814142948303785e-05
0.0036259186810030843,-0.0009321177717097923,-6.860793615978393e-05
0.0037107161136944265,-0.000930283613011118,-6.907353650596416e-05
0.0037929383114558572,-0.0009284076994048304,-6.953820933406814e-05
0.003872409022825318,-0.0009264913625712601,-7.000193409956217e-05
0.003948964992129409,-0.0009245360190675214,-7.046469094497186e-05
0.004022455657653471,-0.0009225431639050757,-7.092646074071501e-05
0.00409274285351486,-0.0009205143642772836,-7.13872251227606e-05
0.00415970050283311,-0.0009184512534381966,-7.184696652718948e-05
0.0042232142863444086,-0.0009163555247409022,-7.230566822173425e-05
0.004283181263818614,-0.0009142289258533614,-7.276331433438282e-05
0.004339509422231814,-0.0009120732531818489,-7.321988987914163e-05
0.004392117129249055,-0.0009098903465439786,-7.367538077907308e-05
0.004440932481401727,-0.0009076820841413159,-7.412977388674441e-05
0.0044858925494694404,-0.0009054503778835981,-7.458305700225063e-05
0.004526942537148533,-0.0009031971691119436,-7.503521888899951e-05
0.004564034881194631,-0.0009009244247573579,-7.548624928746684e-05
0.004597128329817325,-0.0008986341339546048,-7.593613892714483e-05
0.004626187041294934,-0.0008963283051118268,-7.638487953691143e-05
0.004651179747376895,-0.0008940089634146589,-7.683246385404305e-05
0.004672079024768892,-0.0008916781487216224,-7.727888563207712e-05
0.0046888607110789566,-0.0008893379137876605,-7.772413964770444e-05
0.004701503492057491,-0.0008869903227368763,-7.816822170683558e-05
0.004709988678510345,-0.0008846374496942344,-7.861112864994336e-05
0.0047143001834472655,-0.000882281377478745,-7.90528583567366e-05
0.004714424700850605,-0.0008799241962576706,-7.94934097501707e-05
0.004710352079769171,-0.0008775680020625156,-7.993278279975075e-05
0.004702075886209223,-0.000875214895071021,-8.037097852403414e-05
0.004689594150040641,-0.0008728669775619586,-8.08079989921924e-05
0.004672910298532744,-0.0008705263514498153,-8.124384732444534e-05
0.004652034276665665,-0.0008681951153060157,-8.16785276911343e-05
0.004626983847134721,-0.0008658753607750656,-8.211204531015457e-05
0.004597786052530576,-0.0008635691683001493,-8.254440644242338e-05
0.004564478809388611,-0.0008612786020846695,-8.297561838501958e-05
0.004527112587708163,-0.0008590057042353953,-8.34056894615996e-05
0.004485752111847189,-0.0008567524880605064,-8.383462900967357e-05
0.004440478005641034,-0.0008545209305311343,-8.426244736432148e-05
0.004391388303236402,-0.000852312963953915,-8.468915583794274e-05
0.0043385997582594425,-0.000850130466938541,-8.511476669566586e-05
0.004282248899617715,-0.0008479752547740718,-8.5539293126094e-05
0.0042224927948350975,-0.0008458490693504586,-8.596274920712513e-05
0.004159509491888512,-0.0008437535687787777,-8.638514986665745e-05
0.004093498123097972,-0.0008416903168750311,-8.68065108380709e-05
0.004024678669470697,-0.0008396607726768889,-8.722684861045888e-05
0.00395329139532584,-0.0008376662801606898,-8.764618037366827e-05
0.0038795959696893588,-0.000835708058319436,-8.80645239582883e-05
0.003803870297746886,-0.0008337871917525769,-8.84818977708063e-05
0.0037264090954248945,-0.000831904621904284,-8.889832072422051e-05
0.0036475222498860067,-0.0008300611390679563,-8.931381216446357e-05
0.003567533014420476,-0.0008282573752518796,-8.972839179304353e-05
0.003486776086899943,-0.0008264937979765495,-9.014207958635063e-05
0.0034055956177063587,-0.0008247707050503979,-9.055489571210736e-05
0.0033243431881220275,-0.0008230882203489408,-9.09668604434572e-05
0.0032433757962050773,-0.000821446290602859,-9.137799407119515e-05
0.0031630538857654713,-0.0008198446831823664,-9.178831681464147e-05
0.003083739454526389,-0.0008182829848472934,-9.219784873164888e-05
0.0030057942780787722,-0.000816760601414142,-9.260660962821424e-05
0.0029295782850009,-0.0008152767582733721,-9.301461896813612e-05
0.002855448114416424,-0.0008138305016735178,-9.342189578312283e-05
0.0027837558812853617,-0.0008124207006745924,-9.382845858370986e-05
0.002714848169286348,-0.0008110460496619494,-9.4234325271294e-05
0.0026490652669390147,-0.000809705071302893,-9.46395130515352e-05
0.0025867406585929386,-0.0008083961198215101,-9.50440383493163e-05
0.002528200776669497,-0.0008071173844626945,-9.544791672538734e-05
0.002473765013729167,-0.0008058668930150948,-9.585116279475679e-05
0.002423745980206702,-0.0008046425152666109,-9.625379014682721e-05
0.0023784499771807616,-0.000803441966277264,-9.665581126721319e-05
0.002338177639715365,-0.00080226280937304,-9.705723746112576e-05
0.0023032247010172312,-0.0008011024587878569,-9.745807877816598e-05
0.002273882829487925,-0.0007999581819052306,-9.785834393833926e-05
0.002250440494451425,-0.0007988271010742458,-9.825804025908413e-05
0.0022331838172559024,-0.0007977061949963189,-9.865717358310178e-05
0.002222397361177063,-0.0007965922997017107,-9.905574820677629e-05
0.002218364808377164,-0.0007954821091593221,-9.945376680899155e-05
0.002221369468989036,-0.0007943721755899806,-9.985123038017887e-05
0.0022316945669094757,-0.000793258909581006,-0.00010024813815147162
0.0022496232481435904,-0.0007921385801272428,-0.00010064448752389869
0.0022754382624169288,-0.0007910073147496026,-0.0001010402739976179
0.0023094212815479437,-0.0007898610998636114,-0.0001014354911012712
0.0023518518374725313,-0.0007886957815838563,-0.00010183013032163308
0.0024030058817737544,-0.0007875070671540447,-0.00010222418103381755
0.0024631539812330853,-0.000786290527188293,-0.00010261763043240314
0.0025325591715508753,-0.0007850415989000969,-0.00010301046346392523
0.002611474499697684,-0.0007837555904822848,-0.00010340266276127083
0.0027001402964692187,-0.0007824276867832432,-0.00010379420858058721
0.0027987812297867597,-0.0007810529564016792,-0.00010418507874138344
0.0029076031919240174,-0.0007796263602962514,-0.00010457524857055793
0.0030267900748401225,-0.0007781427619795604,-0.00010496469085112688
0.003156500493906595,-0.0007765969393373737,-0.00010535337577645611
0.003296864531437885,-0.0007749835980810375,-0.00010574127091081071
0.003447980580439162,-0.0007732973868030682,-0.00010612834115703174
0.0036099123703456277,-0.000771532913565372,-0.00010651454873212384
0.003782686249150117,-0.0007696847639104981,-0.0001068998531514928
0.003966288780457082,-0.0007677475201530963,-0.0001072842112225087
0.004160664690994453,-0.0007657157817852335,-0.00010766757704799329
0.004365715177836805,-0.0007635841868180257,-0.0001080499020401441
0.004581296561606377,-0.0007613474338831649,-0.0001084311349453194
0.004807219257806579,-0.0007590003049283116,-0.00010881122188002226
0.005043247035409793,-0.0007565376883550075,-0.0001091901063783431
0.005289096537512907,-0.0007539546024617768,-0.00010956772945104728
0.005544437048002766,-0.0007512462190653979,-0.00010994402965642908
0.0058088904972660215,-0.0007484078871790807,-0.0001103189431829902
0.006082031709436491,-0.0007454351566274051,-0.00011069240394394183
0.0063633889026848585,-0.0007423238014743747,-0.00011106434368346727
0.0066524444590037625,-0.0007390698431339526,-0.00011143469209461936
0.0069486359773144575,-0.000735669573024873,-0.00011180337694865907
0.007251357615005909,-0.0007321195746267929,-0.00011217032423557199
0.007559961716589865,-0.0007284167447938939,-0.00011253545831542716
0.007873760732151982,-0.0007245583141817085,-0.00011289870208017106
0.008192029441486564,-0.0007205418666382988,-0.00011325997712537606
0.008514007511640208,-0.0007163653574000171,-0.00011361920393138564
0.008838902415864797,-0.0007120271299181409,-0.00011397630205321517
0.00916589272904649,-0.0007075259311319131,-0.00011433119031847768
0.009494131794416206,-0.0007028609250010474,-0.00011468378703251093
0.009822751735266571,-0.0006980317041186267,-0.00011503401018979085
0.010150867765580003,-0.0006930382992434151,-0.00011538177769063136
0.010477582735595155,-0.0006878811866181213,-0.00011572700756209674
0.010801991834605486,-0.0006825612929755711,-0.00011606961818199517
0.011123187368017767,-0.0006770799981749154,-0.00011640952850478279
0.011440263529497327,-0.0006714391354505365,-0.00011674665828818915
0.011752321097345328,-0.0006656409892938259,-0.00011708092831937524
0.012058471993341046,-0.0006596882910211543,-0.00011741226063945398
