acceleration,velocity,displacement
-0.03671408632571177,0.0,0.0
-0.03656498363854013,-1.8319767491062977e-05,-4.579941872765744e-09
-0.03640161366041722,-3.6561416815802316e-05,-1.8300237949482066e-08
-0.036224471819786885,-5.4717938185853344e-05,-4.1120076699895984e-08
-0.03603406106529865,-7.278257140712472e-05,-7.299520409814049e-08
-0.0358308903340087,-9.074880925695156e-05,-1.1387804926415956e-07
-0.03561547312632141,-0.00010861040012203409,-1.6371785160890597e-07
-0.03538832615448531,-0.00012636134994223577,-2.2246078912497344e-07
-0.03514996803149739,-0.00014399592348873146,-2.9005010748271523e-07
-0.034900917973826,-0.0001615086449900623,-3.664262496024137e-07
-0.03464169449908358,-0.00017889429810828968,-4.5152698537700165e-07
-0.03437281410449788,-0.00019614792525918506,-5.452875412188704e-07
-0.03409478991446093,-0.00021326482626392475,-6.476407290996478e-07
-0.0338081302881075,-0.00023024055631456686,-7.585170747442707e-07
-0.03351333738158423,-0.0002470709232319898,-8.778449446309099e-07
-0.03321090566296166,-0.00026375198399312624,-1.005550671437189e-06
-0.03290132038019965,-0.00028028004050391657,-1.1415586775614496e-06
-0.03258505598601072,-0.00029665163459546915,-1.285791596336296e-06
-0.0322625745289873,-0.0003128635422242187,-1.438170390541218e-06
-0.03193432402565809,-0.00032891276686288005,-1.5986144678129927e-06
-0.03160073683086764,-0.0003447965320770115,-1.7670417925479657e-06
-0.0312622280253388,-0.00036051227329106307,-1.9433689938899843e-06
-0.03091919384184944,-0.00037605762875786013,-2.1275114694022152e-06
-0.030572010155263514,-0.00039143042975713836,-2.319383484030965e-06
-0.03022103106673201,-0.00040662869006263726,-2.518898263985909e-06
-0.02986658762009906,-0.00042165059473434503,-2.7259680851851546e-06
-0.02950898669821997,-0.0004364944883139248,-2.940504355947222e-06
-0.029148510152958863,-0.0004511588625267195,-3.1624176936573832e-06
-0.02878541421890315,-0.000465642343619685,-3.3916179951939845e-06
-0.028419929247349367,-0.0004799436794862481,-3.628014500970468e-06
-0.028052259778916743,-0.0004940617267428146,-3.871515852527733e-06
-0.027682584953272898,-0.000507995437925862,-4.122030143694903e-06
-0.027311059233498566,-0.0005217438489725549,-4.379464965419507e-06
-0.026937813404792604,-0.0005353060671321277,-4.6437274444456775e-06
-0.026562955799050415,-0.0005486812594330885,-4.914724276086982e-06
-0.02618657369998365,-0.000561868641807847,-5.1923617513972156e-06
-0.025808734893384942,-0.0005748674689561892,-5.4765457790882246e-06
-0.02542948933718091,-0.0005876770250138306,-5.767181902580729e-06
-0.02504887093101221,-0.0006002966150808789,-6.064175312604407e-06
-0.024666899364488206,-0.0006127255576547539,-6.367430855788315e-06
-0.02428358202050153,-0.0006249631780010014,-6.676853039702254e-06
-0.02389891590835364,-0.0006370088024832152,-6.992346034823308e-06
-0.02351288960058965,-0.000648861753860451,-7.313813673909225e-06
-0.023125485145215157,-0.0006605213475469021,-7.641159449261063e-06
-0.022736679922226815,-0.0006719868888137627,-7.974286508351229e-06
-0.022346448413496468,-0.0006832576708976935,-8.313097648279092e-06
-0.02195476385863006,-0.0006943329739657251,-8.657495309494947e-06
-0.02156159977416422,-0.0007052120648739237,-9.007381569204859e-06
-0.021166931317449126,-0.0007158941976468271,-9.362658134835048e-06
-0.020770736480754698,-0.0007263786145963781,-9.723226337895849e-06
-0.020372997108011152,-0.0007366645479935695,-1.0088987128543335e-05
-0.019973699736918836,-0.000746751222204802,-1.0459841071092929e-05
-0.019572836280708023,-0.0007566378562092087,-1.0835688340696432e-05
-0.01917040457245343,-0.0007663236664224991,-1.1216428721354359e-05
-0.01876640879789011,-0.0007758078697650849,-1.1601961605401254e-05
-0.018360859841386745,-0.0007850896869249041,-1.1992185994573751e-05
-0.0179537755684296,-0.0007941683457773582,-1.2387000502749316e-05
-0.017545181070128958,-0.0008030430849369978,-1.2786303360427906e-05
-0.01713510890062931,-0.0008117131574296874,-1.3189992421019577e-05
-0.016723599342863556,-0.0008201778344905606,-1.359796516899964e-05
-0.016310700737302508,-0.0008284364095106021,-1.401011872999993e-05
-0.015896469900865583,-0.000836488202170144,-1.4426349882920117e-05
-0.01548097265214472,-0.0008443325628083966,-1.4846555074164753e-05
-0.015064284449454025,-0.0008519688770837963,-1.52706304341378e-05
-0.014646491141097118,-0.000859396570981434,-1.5698471796154107e-05
-0.01422768981984373,-0.0008666151162216693,-1.6129974717954882e-05
-0.013807989763894704,-0.0008736240361176038,-1.65650345060397e-05
-0.013387513435921438,-0.0008804229119175579,-1.700354624304849e-05
-0.012966397504423285,-0.0008870113896526441,-1.744540481844104e-05
-0.01254479385171638,-0.0008933891874916789,-1.789050496272712e-05
-0.012122870539730993,-0.0008995561035895407,-1.8338741285497425e-05
-0.011700812711960768,-0.0009055120244024637,-1.8790008317495426e-05
-0.011278823412271011,-0.0009112569334335216,-1.9244200556954423e-05
-0.010857124300627217,-0.0009167909203617461,-1.970121252040324e-05
-0.010435956246700356,-0.000922114190498578,-2.0160938798118322e-05
-0.010015579786426657,-0.0009272270745068598,-2.062327411436968e-05
-0.009596275434285836,-0.0009321300383120379,-2.1088113392574405e-05
-0.009178343857075957,-0.0009368236931348783,-2.1555351825436134e-05
-0.008762105930189494,-0.0009413088055816946,-2.2024884950115277e-05
-0.008347902703641554,-0.0009455863077401524,-2.249660872844574e-05
-0.007936095294788288,-0.0009496573072397598,-2.2970419632190716e-05
-0.007527064704667708,-0.0009535230972396238,-2.3446214733310562e-05
-0.007121211538323562,-0.0009571851663003715,-2.392389179919556e-05
-0.006718955601259242,-0.0009606452080852672,-2.440334939279197e-05
-0.006320735339954786,-0.0009639051308205707,-2.488448697751843e-05
-0.0059270070906646275,-0.0009669670664282256,-2.536720502683063e-05
-0.005538244097889269,-0.000969833379225364,-2.5851405138244025e-05
-0.005154935262553459,-0.0009725066740654747,-2.6336990151566735e-05
-0.004777583580818843,-0.0009749898037763177,-2.6823864271027183e-05
-0.004406704239522848,-0.0009772858757314032,-2.731193319090411e-05
-0.00404282234487841,-0.0009793982573775035,-2.780110422418134e-05
-0.0036864702764428923,-0.0009813305805328337,-2.8291286433658924e-05
-0.0033381846762404865,-0.0009830867442710046,-2.8782390764859882e-05
-0.0029985030988160365,-0.0009846709162147688,-2.9274330179981325e-05
-0.00266796035672411,-0.0009860875320786538,-2.976701979205468e-05
-0.00234708459594044,-0.00098734129331682,-3.026037699840355e-05
-0.0020363931311617994,-0.0009884371627485954,-3.07543216124199e-05
-0.0017363880688320902,-0.0009893803580485938,-3.12487759926192e-05
-0.0014475517507186808,-0.0009901763430034815,-3.174366516788222e-05
-0.0011703420612246469,-0.0009908308164564674,-3.2238916957747205e-05
-0.000905187651306225,-0.0009913496988846,-3.2734462086582474e-05
-0.0006524831364253533,-0.000991739116581533,-3.3230234290449006e-05
-0.0004125843275390657,-0.0009920053834475242,-3.372617041545627e-05
-0.00018580355882793793,-0.000992154980419116,-3.4222210506422933e-05
2.7594814100934266e-05,-0.0009921945326052978,-3.4718297884679036e-05
0.00022739866152139319,-0.0009921307842363923,-3.521437921388946e-05
0.0004134519840874155,-0.00099197057157499,-3.5710404552842305e-05
0.0005856583896029806,-0.0009917207939815675,-3.620632739423144e-05
0.0007439840666473159,-0.000991388383367505,-3.670210468856871e-05
0.0008884601944453942,-0.0009909802723022318,-3.7197696852486146e-05
0.001019184746053409,-0.000990503361067107,-3.769306776082848e-05
0.0011363236562126947,-0.0009899644839665405,-3.81881847220869e-05
0.001240111330286288,-0.0009893703752199157,-3.868301843688351e-05
0.001330850468030462,-0.0009887276347703366,-3.917754293938108e-05
0.0014089111748255827,-0.0009880426943596225,-3.967173552166357e-05
0.001474729340746669,-0.0009873217842307294,-4.016557664131116e-05
0.0015288042839255223,-0.0009865709008245614,-4.065904981257498e-05
0.0015716956749052737,-0.0009857957758348536,-4.115214148173984e-05
0.0016040197800104398,-0.0009850018469711246,-4.164484088744133e-05
0.0016264450801423147,-0.0009841942307560864,-4.2137139906873135e-05
0.001639687331558343,-0.0009833776976531613,-4.2629032888975446e-05
0.001644504136130564,-0.000982556649786239,-4.31205164758353e-05
0.001641689084861329,-0.000981735101480991,-4.361158941365211e-05
0.0016320655337082274,-0.0009809166628263486,-4.410225235472894e-05
0.0016164800653308917,-0.0009801045264265888,-4.459250765204218e-05
0.001595795685776814,-0.000979301457488812,-4.508235914802103e-05
0.0015708848066024446,-0.0009785097873657171,-4.557181195923466e-05
0.0015426220732038915,-0.0009777314106457656,-4.606087225873753e-05
0.0015118771154125038,-0.0009769677858486115,-4.6549547057861126e-05
0.001479507310318898,-0.0009762199397421787,-4.703784398925882e-05
0.0014463506574712286,-0.0009754884752502311,-4.752577109300693e-05
0.001413218873864598,-0.0009747735828673972,-4.8013336607536335e-05
0.0013808908194023568,-0.0009740750554440805,-4.85005487671142e-05
0.0013501063605882307,-0.0009733923061490828,-4.898741560751249e-05
0.001321560771502061,-0.0009727243893660602,-4.9473944781391276e-05
0.0012958997588044586,-0.0009720700242334836,-4.9960143384791165e-05
0.0012737151830859905,-0.000971427620498011,-5.0446017795974036e-05
0.0012555415331789949,-0.0009707953063189448,-5.0931573527678275e-05
0.0012418531920799136,-0.0009701709576376301,-5.141681509366742e-05
0.0012330625110370515,-0.0009695522287118509,-5.190174589025479e-05
0.0012295186825123387,-0.0009689365834134636,-5.238636809328612e-05
0.001231507378396489,-0.0009683213268982364,-5.287068257086405e-05
0.0012392511036471235,-0.0009677036372777255,-5.3354688811908036e-05
0.0012529102103918093,-0.0009670805969492158,-5.383838487046477e-05
0.0012725845206650128,-0.0009664492232664516,-5.432176732551869e-05
0.0012983155098229256,-0.0009658064982588296,-5.480483125590001e-05
0.0013300890001839783,-0.0009651493971313279,-5.528757022974755e-05
0.0013678383041556942,-0.000964474915305243,-5.576997630785669e-05
0.0014114477438831438,-0.0009637800937932333,-5.625204006013131e-05
0.0014607564676149061,-0.0009630620427403588,-5.673375059426471e-05
0.0015155624845178371,-0.0009623179630023255,-5.7215095595700376e-05
0.001575626847766982,-0.0009615451656692543,-5.7696061377868274e-05
0.001640677926284068,-0.0009607410894757416,-5.8176632941654526e-05
0.0017104157145264483,-0.000959903316065539,-5.8656794043039846e-05
0.001784516134661394,-0.000959029583103242,-5.913652726783204e-05
0.0018626352864350804,-0.0009581177952479679,-5.9615814112419843e-05
0.0019444136003861291,-0.0009571660330262627,-6.00946350694884e-05
0.002029479853250543,-0.0009561725596628535,-6.057296971766068e-05
0.0021174550092877297,-0.000955135825947219,-6.10507968140632e-05
0.0022079558528823938,-0.0009540544732316765,-6.152809438885792e-05
0.002300598375241404,-0.0009529273346746455,-6.20048398408345e-05
0.0023950008765179806,-0.0009517534348617057,-6.248101003321859e-05
0.0024907867496620265,-0.0009505319879551607,-6.29565813889228e-05
0.0025875869230340795,-0.0009492623945369867,-6.343152998454584e-05
0.0026850419507599564,-0.0009479442373185382,-6.390583164250972e-05
0.002782803749731551,-0.0009465772758934154,-6.437946202081271e-05
0.0028805369900824942,-0.0009451614407084619,-6.485239669996318e-05
0.0029779201532734436,-0.000943696826422623,-6.532461126674596e-05
0.003074646279167002,-0.0009421836848145129,-6.579608139455524e-05
0.0031704234297020256,-0.0009406224173872956,-6.626678292010569e-05
0.003264974901472968,-0.0009390135678045019,-6.673669191640364e-05
0.0033580392238569995,-0.0009373578142731694,-6.720578476192305e-05
0.003449369985546212,-0.0009356559619708186,-6.767403820598405e-05
0.003538735540005512,-0.0009339089355894307,-6.814142943037411e-05
0.003625918644152957,-0.0009321177720433911,-6.860793610728232e-05
0.0037107160780239907,-0.0009302836133628469,-6.907353645363388e-05
0.0037929382769681524,-0.0009284076997740988,-6.953820928191811e-05
0.003872408989538586,-0.0009264913629574721,-7.0001934047601e-05
0.003948964960075573,-0.0009245360194700686,-7.046469089320789e-05
0.0040224556268750955,-0.0009225431643233309,-7.092646068915623e-05
0.0040927428240605905,-0.000920514364710597,-7.138722507141471e-05
0.004159700474757673,-0.0009184512538858925,-7.184696647606383e-05
0.004223214259696449,-0.0009163555252022789,-7.230566817083587e-05
0.004283181238648297,-0.0009142289263276927,-7.276331428371836e-05
0.004339509398586266,-0.000912073253668384,-7.321988982871737e-05
0.0043921171071754,-0.0009098903470419436,-7.367538072889496e-05
0.00444093246094709,-0.000907682084649913,-7.412977383681793e-05
0.004485892530674866,-0.0009054503784020075,-7.45830569525809e-05
0.004526942520045945,-0.0009031971696393272,-7.503521883959124e-05
0.004564034865805311,-0.0009009244252928644,-7.548624923832429e-05
0.004597128316157993,-0.0008986341344973736,-7.593613887827185e-05
0.0046261870293807916,-0.0008963283056609889,-7.638487948831145e-05
0.004651179737229224,-0.0008940089639693364,-7.683246380571904e-05
0.004672079016410494,-0.0008916781492809264,-7.72788855840316e-05
0.004688860704526553,-0.0008893379143506922,-7.772413959993951e-05
0.0047015034873171616,-0.0008869903233027313,-7.816822165935286e-05
0.00470998867558665,-0.0008846374502620054,-7.861112860274405e-05
0.004714300182352364,-0.0008822813780475206,-7.905285830982144e-05
0.004714424701602739,-0.0008799241968265319,-7.949340970353995e-05
0.004710352082389623,-0.0008775680026305338,-7.993278275340421e-05
0.004702075890717753,-0.000875214895637257,-8.037097847797116e-05
0.004689594156458532,-0.0008728669781254629,-8.080799894641185e-05
0.0046729103068736755,-0.0008705263520096298,-8.124384727894562e-05
0.004652034286931157,-0.0008681951158611786,-8.167852764591332e-05
0.0046269838593080495,-0.0008658753613246188,-8.211204526520977e-05
0.004597786066581336,-0.0008635691688431464,-8.254440639775172e-05
0.004564478825280318,-0.000861278602620181,-8.297561834061754e-05
0.00452711260539825,-0.0008590057047625114,-8.340568941746321e-05
0.0044857521312794075,-0.000856752488578342,-8.383462896579843e-05
0.004440478026746976,-0.0008545209310388353,-8.426244732070272e-05
0.004391388325941575,-0.0008523129644506631,-8.468915579457509e-05
0.004338599782477196,-0.0008501304674235585,-8.511476665254365e-05
0.0042822489252461945,-0.0008479752552466276,-8.55392930832112e-05
0.004222492821760288,-0.000845849069809876,-8.596274916447533e-05
0.004159509519978155,-0.0008437535692244414,-8.63851498242339e-05
0.004093498152198527,-0.0008416903173063972,-8.680651079586662e-05
0.004024678699410382,-0.0008396607730934949,-8.722684856846659e-05
0.003953291425919192,-0.0008376662805621625,-8.76461803318805e-05
0.003879596000744831,-0.0008357080587054965,-8.806452391669741e-05
0.0038038703290698937,-0.0008337871921230428,-8.848189772940455e-05
0.0037264091268208524,-0.0008319046222590702,-8.889832068300008e-05
0.0036475222811633698,-0.0008300611394070741,-8.931381212341662e-05
0.0035675330453922606,-0.0008282573755754352,-8.972839175216224e-05
0.0034867761173746044,-0.0008264937982847435,-9.014207954562728e-05
0.003405595647486272,-0.0008247707053435283,-9.055489567153435e-05
0.003324343217011087,-0.000823088220627404,-9.096686040302709e-05
0.0032433758240071786,-0.0008214462908671494,-9.137799403090073e-05
0.003163053912281469,-0.0008198446834330772,-9.178831677447579e-05
0.0030837394795571378,-0.0008182829850851176,-9.219784869160534e-05
0.003005794301426647,-0.0008167606016398716,-9.260660958828659e-05
0.002929578306478918,-0.0008152767584878953,-9.301461892831852e-05
0.0028554481338558435,-0.0008138305018778116,-9.342189574340995e-05
0.002783755898537205,-0.0008124207008697134,-9.382845854409683e-05
0.0027148481842168386,-0.0008110460498490249,-9.423432523177651e-05
0.0026490652794356586,-0.0008097050714831118,-9.463951301210955e-05
0.0025867406685706057,-0.0008083961199961102,-9.504403830997935e-05
0.0025282007840704214,-0.0008071173846329499,-9.544791668613662e-05
0.0024737650185199054,-0.0008058668931823023,-9.585116275559043e-05
0.0024237459823766142,-0.0008046425154320783,-9.625379010774403e-05
0.002378449976735929,-0.0008034419664423001,-9.665581122821262e-05
0.0023381776366801126,-0.0008022628095389461,-9.705723742220793e-05
0.002303224695434125,-0.0008011024589559175,-9.745807873933164e-05
0.002273882821422335,-0.0007999581820767034,-9.785834389958979e-05
0.0022504404839884837,-0.0007988271012503507,-9.825804022042155e-05
0.0022331838044959444,-0.0007977061951782295,-9.86571735445287e-05
0.0022223973462280233,-0.0007965922998905485,-9.905574816829589e-05
0.0022183647913545787,-0.0007954821093561528,-9.945376677060756e-05
0.0022213694500069214,-0.0007943721757958125,-9.985123034189556e-05
0.0022316945460864094,-0.0007932589097967891,-0.0001002481381132937
0.0022496232256027093,-0.0007921385803538669,-0.00010064448748583137
0.0022754382382874513,-0.0007910073149878944,-0.00010104027395966681
0.002309421255957569,-0.0007898611001143332,-0.00010143549106344237
0.0023518518105474367,-0.0007886957818477069,-0.00010183013028393289
0.002403005853640118,-0.00078750706743166,-0.00010222418099625272
0.0024631539520186064,-0.0007862905274802453,-0.0001026176303949807
0.0025325591413878122,-0.0007850415992068936,-0.00010301046342665249
0.0026114744687274175,-0.0007837555908043649,-0.0001034026627241553
0.002700140264851371,-0.0007824276871209702,-0.00010379420854363663
0.0027987811976900754,-0.0007810529567553349,-0.0001041850787046057
0.002907603159529402,-0.00077962636066603,-0.00010457524853396105
0.0030267900423300016,-0.0007781427623655651,-0.00010496469081471895
0.003156500461458834,-0.0007765969397396179,-0.00010535337574024525
0.0032968644992318694,-0.0007749835984994452,-0.00010574127087480502
0.003447980548655797,-0.0007732973872374734,-0.00010612834112123926
0.00360991233916734,-0.0007715329140155176,-0.00010651454869655251
0.0037826862187547716,-0.000769684764376037,-0.0001068998531161504
0.003966288751021023,-0.0007677475206335931,-0.00010728421118740281
0.004160664662692507,-0.0007657157822801647,-0.00010766757701313124
0.004365715150840757,-0.0007635841873267815,-0.00010804990200553298
0.004581296536088009,-0.0007613474344050493,-0.00010843113491096594
0.004807219233934636,-0.0007590003054625436,-0.00010881122184593283
0.00504324701334694,-0.0007565376889007232,-0.00010919010634452364
0.005289096517420285,-0.0007539546030180314,-0.00010956772941750333
0.005544437030033917,-0.0007512462196311679,-0.00010994402962316563
0.005808890481560806,-0.0007484078877532692,-0.00011031894315001174
0.006082031696122608,-0.0007454351572088484,-0.00011069240391125227
0.0063633888918778435,-0.0007423238020618483,-0.00011106434365106994
0.0066524444508054715,-0.0007390698437261774,-0.00011143469206251694
0.006948635971813063,-0.0007356695736205228,-0.00011180337691685362
0.0072513576122667815,-0.0007321195752245028,-0.00011217032420406487
0.007559961716657091,-0.0007284167453922718,-0.00011253545828421906
0.007873760735046845,-0.0007245583147793459,-0.00011289870204926198
0.008192029447206026,-0.0007205418672337826,-0.00011325997709476525
0.008514007520162986,-0.0007163653579919404,-0.00011361920390107168
0.008838902427155928,-0.0007120271305051107,-0.00011397630202319594
0.009165892743046687,-0.00070752593171256,-0.00011433119028875036
0.009494131811044899,-0.0007028609255740371,-0.000114683787003072
0.009822751754415826,-0.0006980317046826719,-0.00011503401016063618
0.010150867787109961,-0.0006930382997972905,-0.00011538177766175617
0.010477582759332516,-0.0006878811871606799,-0.00011572700753349566
0.010801991860349582,-0.0006825612935057593,-0.00011606961815366227
0.011123187395546649,-0.0006770799986917853,-0.00011640952847671165
0.011440263558563203,-0.0006714391359532579,-0.00011674665826037291
0.011752321127676081,-0.0006656409897816981,-0.00011708092829180665
0.0120584720246524,-0.000659688291493616,-0.00011741226061212547
