frame_number,force
0,730.8896870864505
1,730.9008376470334
2,730.9130551789566
3,730.9263026318825
4,730.9405423930785
5,730.9557364019719
6,730.9718462567224
7,730.9888333152944
8,731.0066587935055
9,731.0252838620424
10,731.0446697438555
11,731.0647778129879
12,731.0855696957188
13,731.1070073746948
14,731.1290532964496
15,731.1516704824654
16,731.1748226437454
17,731.1984742986089
18,731.2225908930103
19,731.2471389222846
20,731.2720860530175
21,731.2974012436302
22,731.3230548620774
23,731.3490187987687
24,731.375266572449
25,731.4017734261913
26,731.4285164099346
27,731.4554744455465
28,731.4826283706681
29,731.5099609586078
30,731.5374569129118
31,731.5651028367215
32,731.5928871786036
33,731.6208001578617
34,731.6488336729565
35,731.6769811964251
36,731.7052376589455
37,731.7335993244419
38,731.7620636577483
39,731.7906291863874
40,731.8192953582333
41,731.8480623969438
42,731.8769311571145
43,731.9059029812753
44,731.9349795610505
45,731.9641628047993
46,731.9934547137833
47,732.0228572685538
48,732.0523723269549
49,732.0820015348228
50,732.1117462499491
51,732.1416074791043
52,732.1715858270535
53,732.2016814558494
54,732.2318940524648
55,732.2622228029182
56,732.2926663711501
57,732.3232228807361
58,732.3538898971331
59,732.3846644078047
60,732.4155427976359
61,732.4465208176051
62,732.4775935455061
63,732.5087553382317
64,732.5399997756648
65,732.5713195967778
66,732.6027066292625
67,732.6341517148171
68,732.6656446327651
69,732.6971740246731
70,732.7287273221244
71,732.7602906792669
72,732.7918489115787
73,732.823385442343
74,732.8548822582561
75,732.8863198752837
76,732.9176773153083
77,732.948932093133
78,732.9800602122717
79,733.0110361674915
80,733.0418329528337
81,733.0724220753496
82,733.1027735760158
83,733.1328560599144
84,733.1626367380725
85,733.1920814836399
86,733.2211549052931
87,733.249820440852
88,733.2780404740321
89,733.3057764768762
90,733.3329891796126
91,733.3596387685366
92,733.3856851111773
93,733.4110880068212
94,733.4358074598124
95,733.459803973051
96,733.4830388594482
97,733.5054745692562
98,733.5270750308172
99,733.547806001504
100,733.5676354248961
101,733.5865337898983
102,733.6044744873891
103,733.6214341596328
104,733.6373930369443
105,733.652335255321
106,733.6662491484393
107,733.6791275076632
108,733.6909678044252
109,733.7017723704465
110,733.7115485325875
111,733.7203087001843
112,733.7280704031099
113,733.7348562785951
114,733.7406940047626
115,733.745616179406
116,733.7496601437504
117,733.752867752442
118,733.7552850926111
119,733.7569621562261
120,733.7579524707154
121,733.7583126929084
122,733.7581021710611
123,733.7573824793848
124,733.7562169290866
125,733.7546700595884
126,733.7528071136979
127,733.7506935012788
128,733.748394257108
129,733.7459734996477
130,733.7434938982215
131,733.7410161566263
132,733.7385985214598
133,733.7362963232204
134,733.7341615575871
135,733.7322425133679
136,733.7305834525224
137,733.7292243464959
138,733.7282006717525
139,733.7275432657472
140,733.7272782426405
141,733.7274269662429
142,733.728006076461
143,733.7290275651377
144,733.730498897407
145,733.7324231749798
146,733.7347993375865
147,733.7376223980339
148,733.7408837054196
149,733.7445712305375
150,733.7486698676186
151,733.7531617471607
152,733.758026555388
153,733.7632418565562
154,733.768783414688
155,733.7746255113977
156,733.7807412564864
157,733.7871028882317
158,733.79368206066
159,733.8004501152082
160,733.8073783339958
161,733.8144381718153
162,733.8216014643207
163,733.8288406106974
164,733.8361287299887
165,733.8434397909957
166,733.8507487162641
167,733.8580314612117
168,733.865265069998
169,733.8724277101999
170,733.8794986887086
171,733.886458451591
172,733.8932885711151
173,733.8999717237247
174,733.9064916630168
175,733.9128331913005
176,733.9189821320891
177,733.9249253045164
178,733.9306504995985
179,733.9361464576625
180,733.9414028460506
181,733.9464102361741
182,733.9511600787313
183,733.955644675395
184,733.959857145023
185,733.963791382787
186,733.9674420114267
187,733.9708043248156
188,733.9738742250431
189,733.9766481551187
190,733.9791230300505
191,733.9812961694354
192,733.983165234895
193,733.9847281755935
194,733.9859831845603
195,733.986928667821
196,733.9875632277148
197,733.9878856611851
198,733.9878949731491
199,733.9875904044734
200,733.9869714739955
201,733.9860380343803
202,733.9847903419342
203,733.9832291403869
204,733.9813557581117
205,733.9791722174734
206,733.9766813540389
207,733.9738869421785
208,733.9707938222671
209,733.9674080237127
210,733.9637368779438
211,733.9597891163147
212,733.9555749490629
213,733.9511061223948
214,733.9463959515281
215,733.9414593284613
216,733.9363127043503
217,733.9309740472269
218,733.9254627762931
219,733.9197996745319
220,733.9140067821079
221,733.9081072737582
222,733.9021253237983
223,733.89608596242
224,733.890014926716
225,733.8839385094948
226,733.8778834086551
227,733.8718765797844
228,733.8659450946788
229,733.8601160085221
230,733.8544162383707
231,733.8488724552807
232,733.8435109919711
233,733.8383577675074
234,733.833438230175
235,733.8287773194133
236,733.8243994472873
237,733.8203284993898
238,733.8165878541163
239,733.8132004180205
240,733.8101886739266
241,733.807574738076
242,733.805380422726
243,733.8036273008926
244,733.8023367699998
245,733.8015301109521
246,733.8012285387603
247,733.8014532406132
248,733.8022253972507
249,733.8035661835873
250,733.8054967449023
251,733.8080381458639
252,733.8112112911107
253,733.8150368175266
254,733.819534959296
255,733.8247253873958
256,733.8306270258013
257,733.8372578475157
258,733.8446346542032
259,733.8527728434016
260,733.8616861673675
261,733.8713864880622
262,733.8818835336184
263,733.8931846623017
264,733.9052946400819
265,733.918215437379
266,733.9319460493596
267,733.9464823424431
268,733.9618169277085
269,733.9779390601742
270,733.9948345618704
271,734.0124857663927
272,734.0308714830545
273,734.0499669794374
274,734.0697439818181
275,734.0901706936587
276,734.1112118330207
277,734.1328286901326
278,734.1549792061462
279,734.1776180734629
280,734.2006968575314
281,734.2241641403183
282,734.2479656866386
283,734.2720446354203
284,734.2963417179966
285,734.3207955045525
286,734.345342678338
287,734.3699183356821
288,734.3944563083602
289,734.4188895035323
290,734.443150255439
291,734.4671706826509
292,734.490883044951
293,734.5142200945506
294,734.5371154170198
295,734.5595037580674
296,734.5813213332175
297,734.6025061184231
298,734.6229981206494
299,734.6427396284707
300,734.6616754437008
301,734.6797530956909
302,734.6969230399063
303,734.7131388417669
304,734.7283573458574
305,734.7425388298664
306,734.755647142179
307,734.7676498218998
308,734.7785182000981
309,734.7882274812738
310,734.7967568045366
311,734.8040892847329
312,734.810212034343
313,734.8151161669683
314,734.8187967826407
315,734.8212529345906
316,734.822487577053
317,734.8225074940289
318,734.8213232090766
319,734.8189488758866
320,734.8154021489012
321,734.8107040330741
322,734.804878712162
323,734.7979533555342
324,734.7899579040586
325,734.7809248360078
326,734.7708889141826
327,734.7598869157111
328,734.7479573463879
329,734.7351401419561
330,734.7214763593774
331,734.7070078619231
332,734.6917770028678
333,734.6758263134572
334,734.6591982011115
335,734.641934663331
336,734.6240770218338
337,734.6056656805312
338,734.5867399101155
339,734.567337661191
340,734.5474954070082
341,734.5272480161461
342,734.506628654835
343,734.4856687179114
344,734.4643977867606
345,734.4428436123947
346,734.4210321221593
347,734.3989874492254
348,734.3767319845848
349,734.3542864514883
350,734.3316700020368
351,734.3089003351137
352,734.2859938341475
353,734.2629657225166
354,734.2398302340599
355,734.2166007963795
356,734.1932902250192
357,734.1699109265026
358,734.1464751073229
359,734.1229949847153
360,734.0994829941095
361,734.0759519879942
362,734.0524154215775
363,734.0288875218915
364,734.0053834385
365,733.9819193752708
366,733.9585127035909
367,733.9351820579276
368,733.9119474148557
369,733.8888301566564
370,733.8658531204642
371,733.8430406338788
372,733.8204185380674
373,733.798014199642
374,733.775856512788
375,733.7539758929316
376,733.7324042624446
377,733.7111750276651
378,733.6903230454203
379,733.6698845767206
380,733.6498972253644
381,733.6303998595223
382,733.611432514775
383,733.593036277585
384,733.5752531489187
385,733.5581258886126
386,733.5416978419489
387,733.5260127505999
388,733.5111145505615
389,733.4970471598094
390,733.483854258245
391,733.4715790622735
392,733.4602640961833
393,733.449950962269
394,733.4406801113539
395,733.4324906153016
396,733.4254199436679
397,733.4195037478112
398,733.4147756567024
399,733.4112670883741
400,733.4090070793593
401,733.4080221325281
402,733.4083360823893
403,733.4099699763739
404,733.41294197041
405,733.4172672368069
406,733.422957881993
407,733.4300228711778
408,733.4384679567657
409,733.4482956074953
410,733.4595049357378
411,733.4720916209795
412,733.486047827955
413,733.5013621181047
414,733.5180193531322
415,733.5360005896321
416,733.5552829641708
417,733.5758395688895
418,733.5976393187253
419,733.6206468127082
420,733.6448221932455
421,733.6701210085644
422,733.6964940843599
423,733.7238874111846
424,733.752242054085
425,733.7814940903951
426,733.8115745807737
427,733.8424095778638
428,733.8739201762947
429,733.9060226067963
430,733.9386283759128
431,733.9716444514045
432,734.004973492029
433,734.038514119063
434,734.0721612257869
435,734.1058063203957
436,734.13933789763
437,734.1726418348312
438,734.2056018089728
439,734.2380997322201
440,734.270016204501
441,734.3012309821981
442,734.3316234622881
443,734.361073180999
444,734.3894603254563
445,734.4166662561776
446,734.4425740380223
447,734.4670689772041
448,734.4900391617889
449,734.5113760024674
450,734.5309747695937
451,734.5487351218665
452,734.5645616215759
453,734.5783642307758
454,734.590058782159
455,734.5995674184609
456,734.6068189953086
457,734.611749444152
458,734.6143020935968
459,734.6144279487819
460,734.6120859295597
461,734.6072430692831
462,734.599874676897
463,734.589964465607
464,734.5775046515174
465,734.5624960253272
466,734.5449479994885
467,734.5248786322185
468,734.5023146284477
469,734.477291316292
470,734.4498525961775
471,734.420050858739
472,734.3879468673819
473,734.3536096019261
474,734.3171160607042
475,734.2785510194559
476,734.238006746375
477,734.1955826739387
478,734.1513850296642
479,734.1055264292526
480,734.0581254364121
481,734.0093060939802
482,733.9591974308503
483,733.9079329487411
484,733.8556500922421
485,733.8024897051401
486,733.7485954757913
487,733.6941133740361
488,733.6391910817104
489,733.5839774184378
490,733.5286217643658
491,733.4732734818334
492,733.4180813385104
493,733.3631929352248
494,733.3087541424258
495,733.2549085498116
496,733.2017969338903
497,733.149556748118
498,733.0983216398203
499,733.0482209974027
500,732.9993795305811
501,732.9519168858576
502,732.9059472994625
503,732.8615792900798
504,732.8189153932573
505,732.7780519384117
506,732.7390788682334
507,732.7020795992926
508,732.6671309214279
509,732.6343029317402
510,732.6036589970805
511,732.5752557376019
512,732.5491430238825
513,732.5253639813752
514,732.5039549981145
515,732.4849457341719
516,732.4683591335911
517,732.4542114406297
518,732.4425122216804
519,732.433264392786
520,732.4264642514814
521,732.4221015116748
522,732.4201593412632
523,732.4206144032984
524,732.4234369021376
525,732.4285906362004
526,732.4360330590952
527,732.4457153511739
528,732.4575825038015
529,732.4715734185819
530,732.4876210235337
531,732.5056524079226
532,732.525588977238
533,732.5473466297312
534,732.5708359561306
535,732.595962464565
536,732.6226268330896
537,732.650725192251
538,732.6801494397753
539,732.7107875886967
540,732.742524149149
541,732.7752405428954
542,732.8088155487617
543,732.8431257763528
544,732.8780461645784
545,732.9134505007943
546,732.94921195613
547,732.9852036326464
548,733.021299117945
549,733.0573730425932
550,733.0933016354778
551,733.1289632721302
552,733.1642390112861
553,733.1990131154135
554,733.2331735515475
555,733.2666124693254
556,733.2992266535206
557,733.3309179484603
558,733.3615936514103
559,733.3911668714601
560,733.4195568500136
561,733.4466892388307
562,733.4724963316639
563,733.4969172459568
564,733.5198980519142
565,733.5413918476274
566,733.5613587807184
567,733.5797660186597
568,733.5965876708007
569,733.6118046651158
570,733.6254045825415
571,733.6373814520451
572,733.647735510058
573,733.6564729280025
574,733.6636055112082
575,733.6691503719044
576,733.6731295785326
577,733.6755697835271
578,733.6765018319161
579,733.6759603535098
580,733.6739833420688
581,733.6706117257078
582,733.6658889336912
583,733.6598604653556
584,733.6525734670721
585,733.6440763230811
586,733.6344182657008
587,733.6236490097887
588,733.6118184155137
589,733.5989761826578
590,733.5851715787571
591,733.5704532022555
592,733.5548687804086
593,733.5384649999978
594,733.5212873672223
595,733.5033800918014
596,733.4847859897673
597,733.4655463999163
598,733.4457011102767
599,733.4252882926094
600,733.4043444442578
601,733.3829043373548
602,733.36100097572
603,733.3386655600286
604,733.3159274621396
605,733.2928142097458
606,733.269351482552
607,733.2455631209406
608,733.221471147803
609,733.1970958040833
610,733.1724555984871
611,733.1475673716022
612,733.1224463745092
613,733.0971063620657
614,733.0715597015183
615,733.0458174975855
616,733.0198897351928
617,732.9937854402795
618,732.9675128577836
619,732.9410796447087
620,732.9144930755224
621,732.8877602568015
622,732.8608883475812
623,732.8338847813449
624,732.8067574853684
625,732.7795150933275
626,732.752167147493
627,732.7247242872911
628,732.6971984214821
629,732.6696028817039
630,732.6419525555001
631,732.6142639969191
632,732.5865555124104
633,732.5588472195939
634,732.5311610771249
635,732.5035208851916
636,732.4759522574296
637,732.448482565638
638,732.421140858669
639,732.393957756712
640,732.3669653223355
641,732.340196910244
642,732.3136869985901
643,732.2874710055081
644,732.2615850948104
645,732.23606597418
646,732.2109506879137
647,732.1862764051335
648,732.16208020406
649,732.1383988533503
650,732.1152685920097
651,732.0927249095697
652,732.0708023281659
653,732.0495341882144
654,732.0289524397506
655,732.0090874420022
656,731.9899677742185
657,731.9716200610516
658,731.9540688157782
659,731.9373363043718
660,731.9214424329585
661,731.9064046606359
662,731.8922379389787
663,731.8789546788207
664,731.8665647441643
665,731.8550754725024
666,731.8444917204728
667,731.8348159334935
668,731.8260482376774
669,731.8181865517274
670,731.811226715543
671,731.8051626310694
672,731.7999864100194
673,731.7956885229531
674,731.7922579447403
675,731.7896822921589
676,731.7879479500607
677,731.787040183289
678,731.7869432324422
679,731.7876403924605
680,731.789114073672
681,731.7913458453014
682,731.7943164615692
683,731.7980058706486
684,731.8023932072057
685,731.8074567699942
686,731.8131739867426
687,731.8195213692948
688,731.8264744628173
689,731.8340077937809
690,731.8420948218804
691,731.8507079007738
692,731.8598182518016
693,731.8693959542259
694,731.879409955112
695,731.8898281013641
696,731.9006171953819
697,731.9117430746256
698,731.9231707144922
699,731.9348643533184
700,731.9467876377435
701,731.9589037860011
702,731.9711757662249
703,731.9835664867834
704,731.9960389959955
705,732.00855668903
706,732.0210835199616
707,732.0335842166937
708,732.0460244961187
709,732.0583712769226
710,732.0705928877684
711,732.0826592687187
712,732.0945421634897
713,732.1062152997908
714,732.1176545549112
715,732.1288381037936
716,732.1397465469947
717,732.1503630163094
718,732.1606732565537
719,732.1706656828518
720,732.1803314134226
721,732.1896642781185
722,732.1986608029077
723,732.2073201704937
724,732.2156441577482
725,732.2236370515878
726,732.2313055460133
727,732.238658624047
728,732.2457074291566
729,732.2524651310622
730,732.2589467901823
731,732.265169223452
732,732.2711508724891
733,732.2769116737992
734,732.282472930149
735,732.2878571822206
736,732.2930880798431
737,732.2981902523483
738,732.3031891778255
739,732.3081110511642
740,732.3129826507562
741,732.3178312038046
742,732.3226842507054
743,732.3275695098775
744,732.3325147450959
745,732.3375476371896
746,732.3426956610499
747,732.3479859678195
748,732.3534452714679
749,732.3590997388472
750,732.3649748825701
751,732.3710954563212
752,732.3774853522699
753,732.3841674999891
754,732.3911637657185
755,732.3984948502024
756,732.4061801831907
757,732.4142378133618
758,732.4226842937252
759,732.4315345639532
760,732.4408018320385
761,732.4504974580013
762,732.4606308422475
763,732.4712093209519
764,732.4822380706761
765,732.4937200242682
766,732.5056557998777
767,732.518043644682
768,732.5308793947127
769,732.5441564520065
770,732.5578657800544
771,732.5719959179925
772,732.5865330132854
773,732.6014608721302
774,732.6167610265306
775,732.6324128166588
776,732.6483934867139
777,732.6646782922107
778,732.6812406166207
779,732.6980520953948
780,732.7150827455075
781,732.7323010988688
782,732.7496743384385
783,732.7671684365081
784,732.7847482949568
785,732.8023778870643
786,732.8200203999439
787,732.837638376381
788,732.8551938550148
789,732.8726485081463
790,732.8899637767717
791,732.9071010027662
792,732.9240215586415
793,732.9406869759111
794,732.9570590735173
795,732.973100087809
796,732.9887728053943
797,733.0040406999476
798,733.0188680735607
799,733.0332202023233
800,733.0470634847479
801,733.0603655908027
802,733.0730956088967
803,733.0852241882989
804,733.0967236752792
805,733.1075682425405
806,733.1177340125843
807,733.1271991758807
808,733.1359441041525
809,733.143951458222
810,733.1512062890858
811,733.1576961302369
812,733.1634110786914
813,733.1683438616689
814,733.1724898855999
815,733.1758472643812
816,733.1784168244989
817,733.1802020852778
818,733.1812092127807
819,733.1814469461433
820,733.1809264957866
821,733.1796614138564
822,733.1776674380228
823,733.1749623103265
824,733.1715655731173
825,733.1674983442567
826,733.1627830736737
827,733.1574432834648
828,733.151503294427
829,733.1449879431852
830,733.1379222953649
831,733.1303313609919
832,733.1222398183961
833,733.1136717527246
834,733.1046504148873
835,733.0951980061128
836,733.0853354921336
837,733.0750824496255
838,733.0644569462598
839,733.0534754546409
840,733.0421527994336
841,733.0305021361629
842,733.0185349595461
843,733.0062611390329
844,732.9936889796677
845,732.9808253071179
846,732.9676755759583
847,732.9542439996904
848,732.9405337000215
849,732.926546872288
850,732.9122849636907
851,732.8977488610268
852,732.8829390849266
853,732.8678559883515
854,732.8524999578937
855,732.8368716167082
856,732.8209720276496
857,732.8048028947073
858,732.7883667602239
859,732.7716671945091
860,732.7547089734597
861,732.7374982392391
862,732.7200426394061
863,732.7023514409071
864,732.6844356164868
865,732.6663079020288
866,732.6479828241821
867,732.6294766985441
868,732.6108075998754
869,732.5919953073483
870,732.5730612294396
871,732.5540283142503
872,732.5349209512063
873,732.5157648691736
874,732.4965870345005
875,732.4774155512271
876,732.4582795651079
877,732.439209173028
878,732.4202353394289
879,732.4013898212191
880,732.3827051023045
881,732.3642143384656
882,732.3459513129236
883,732.327950402626
884,732.3102465550138
885,732.2928752746712
886,732.2758726185667
887,732.259275197546
888,732.2431201806203
889,732.2274452978367
890,732.2122888374132
891,732.1976896332524
892,732.1836870395944
893,732.1703208903698
894,732.1576314417475
895,732.1456592971605
896,732.1344453143861
897,732.1240304942972
898,732.1144558512051
899,732.1057622654492
900,732.0979903196908
901,732.0911801208429
902,732.0853711097462
903,732.0806018607395
904,732.0769098731992
905,732.0743313569022
906,732.0729010129156
907,732.0726518118352
908,732.0736147714476
909,732.0758187358173
910,732.0792901571568
911,732.0840528809746
912,732.0901279346423
913,732.0975333200972
914,732.106283812425
915,732.1163907667941
916,732.1278619363409
917,732.1407013034892
