frame_number,force
0,617.053710000013
1,616.9266573312104
2,616.7976071185656
3,616.6651250222079
4,616.5288266072608
5,616.3897081589256
6,616.250256054393
7,616.1143068207055
8,615.9866742011498
9,615.8725925521169
10,615.7770499529282
11,615.7041078429174
12,615.6563195242411
13,615.6343527270475
14,615.636890503771
15,615.6608406766018
16,615.7018328892053
17,615.7549247780338
18,615.8153860684702
19,615.8794053178059
20,615.9445830429347
21,616.0101260881903
22,616.0767177345219
23,616.146092758685
24,616.2203978761695
25,616.3014676425585
26,616.3901801563418
27,616.4860492057865
28,616.587147239019
29,616.690361470071
30,616.7919094983781
31,616.8880035519062
32,616.9755390064751
33,617.0526768141592
34,617.119201804864
35,617.1765881281476
36,617.227780856467
37,617.2767707704837
38,617.3280635615612
39,617.3861290619386
40,617.4548940215569
41,617.5373313858196
42,617.6351848197341
43,617.7488386762525
44,617.8773220922716
45,618.0184402428351
46,618.1690352535309
47,618.3253609832985
48,618.4835122600642
49,618.6398157873423
50,618.7910979680964
51,618.9347938075113
52,619.0689186890536
53,619.1919550340101
54,619.3027017457971
55,619.40011751438
56,619.4831789990903
57,619.5507742622731
58,619.6016568744847
59,619.6344900849001
60,619.6480000655307
61,619.641228393529
62,619.6138450294271
63,619.5664728471842
64,619.5009770949837
65,619.4206690278529
66,619.3303588295726
67,619.2361877618945
68,619.1451952319104
69,619.0646362066642
70,619.0011408363432
71,618.959871461393
72,618.9438465624456
73,618.9535500328528
74,618.9868572928802
75,619.0392425233928
76,619.1042111900119
77,619.1739108206209
78,619.2398777227885
79,619.2938645928076
80,619.3286724522584
81,619.3388931009167
82,619.3214641215596
83,619.2759530351158
84,619.2045210634556
85,619.1115666165465
86,619.0031079366065
87,618.8860169396166
88,618.7672381465833
89,618.653108993427
90,618.5488575043213
91,618.4583125172121
92,618.3838286600898
93,618.326401441026
94,618.28592669434
95,618.2615453292228
96,618.2520120500337
97,618.2560378105023
98,618.272574924766
99,618.3010299065184
100,618.341396342877
101,618.3942984334427
102,618.460929252377
103,618.5428693198784
104,618.6417937471441
105,618.759113078722
106,618.8956214755607
107,619.0512334620448
108,619.2248790225233
109,619.4145966249596
110,619.6178141885042
111,619.8317527311368
112,620.0538499518534
113,620.2820956174437
114,620.5151974232747
115,620.7525458583515
116,620.9940004817449
117,621.2395577763733
118,621.488979346973
119,621.7414663034506
120,621.9954585410111
121,622.2486089002674
122,622.4979385982582
123,622.7401394760299
124,622.9719617409762
125,623.1906127081568
126,623.3940903263555
127,623.5813862974251
128,623.7525166751242
129,623.9083703604314
130,624.0504083973794
131,624.1802941922995
132,624.2995663041539
133,624.4094581472136
134,624.5109167551406
135,624.6047946509776
136,624.6921229767538
137,624.7743541371588
138,624.8534889769807
139,624.9320456062621
140,625.0128584142085
141,625.0987225056506
142,625.1919369422226
143,625.2938413702127
144,625.4044566965647
145,625.5223165789296
146,625.6445259232459
147,625.7670290912756
148,625.8850276221935
149,625.9934606259192
150,626.0874564164486
151,626.1626839855223
152,626.2155733056119
153,626.2434190681968
154,626.2444080602348
155,626.2176049553733
156,626.1629161044557
157,626.0810511629254
158,625.9735123181927
159,625.8426358997726
160,625.6916820450197
161,625.5249282566276
162,625.3476925087238
163,625.1662104062032
164,624.9873338496337
165,624.8180954839346
166,624.6652454544408
167,624.5348658550519
168,624.4321063911947
169,624.3610133626282
170,624.324393977842
171,624.3236809797604
172,624.3588095870491
173,624.4281504046137
174,624.5285429526004
175,624.6554572272363
176,624.8032883063281
177,624.9657601737948
178,625.136380771185
179,625.3088673528798
180,625.4774667707196
181,625.6371310885784
182,625.7835617956845
183,625.9131831839734
184,626.0231239929245
185,626.1112673231564
186,626.176385470612
187,626.2183349705366
188,626.2382632248931
189,626.2387669813221
190,626.2239417275484
191,626.1992799426054
192,626.1714156511617
193,626.1477523237672
194,626.1360275878914
195,626.1438521312333
196,626.178224447651
197,626.2450021129351
198,626.3483309451432
199,626.4900831704317
200,626.6693988815409
201,626.882440931746
202,627.1224584488708
203,627.3802088174266
204,627.6447245288387
205,627.9043518373073
206,628.1479396023068
207,628.3660125042134
208,628.5517350260429
209,628.701493135695
210,628.8150018735338
211,628.8949591534464
212,628.9463599636881
213,628.975629571771
214,628.9897277159407
215,628.9953360094984
216,628.9981954048494
217,629.0026316096713
218,629.0112907457421
219,629.0250869516999
220,629.0433372631117
221,629.0640448894212
222,629.0842951811785
223,629.1007317650827
224,629.1100686977461
225,629.1095771397881
226,629.0974838271435
227,629.0732399653785
228,629.0376484877846
229,628.9928608132278
230,628.9422670953056
231,628.8903010973935
232,628.8421601462999
233,628.8034202596345
234,628.7795334604434
235,628.7752327775025
236,628.7939181733476
237,628.837127052487
238,628.904188620842
239,628.9921195448458
240,629.0957599330955
241,629.2081085784888
242,629.3208114188408
243,629.424770167498
244,629.5108422710989
245,629.5705919184836
246,629.5970337400457
247,629.5852950761667
248,629.5331205334359
249,629.4411621319945
250,629.3130268914316
251,629.1550711610248
252,628.9759414183634
253,628.7858856145298
254,628.5959001260184
255,628.4168116239796
256,628.2584007941808
257,628.1286593003773
258,628.0332420659272
259,627.9751354537245
260,627.9545214642018
261,627.9688073064013
262,628.0128155412325
263,628.0791600694282
264,628.1588301908046
265,628.2419624630404
266,628.318722427447
267,628.3801778788225
268,628.4190397703073
269,628.4301704229058
270,628.4107978015587
271,628.3604261297191
272,628.2804960637305
273,628.173900712507
274,628.0444725851373
275,627.8965115068604
276,627.7343600639546
277,627.5620046156237
278,627.382705808805
279,627.1987066529216
280,627.0110775162685
281,626.819724902169
282,626.6235438774235
283,626.4206645348248
284,626.208743115705
285,625.9852698078132
286,625.7478896546331
287,625.49474676395
288,625.2248546678223
289,624.9384624318003
290,624.637346422454
291,624.3249454133635
292,624.0062807872501
293,623.6876444449744
294,623.3760781821925
295,623.07870527246
296,622.8020039115295
297,622.5511289554597
298,622.3293894816517
299,622.1379656112206
300,621.9758917288349
301,621.8402630320529
302,621.7265787802778
303,621.6291426792086
304,621.5414815882364
305,621.4567817546664
306,621.3683547121369
307,621.2701338319329
308,621.1571797767305
309,621.0261473250036
310,620.8756386967679
311,620.7063475565565
312,620.5209078987598
313,620.323425901843
314,620.1187748145603
315,619.9118155649371
316,619.7067216611194
317,619.5065398900668
318,619.3130409561302
319,619.1268328918379
320,618.9476476367377
321,618.7746905188715
322,618.6069644421714
323,618.4435178587572
324,618.2835912286816
325,618.12665038115
326,617.9723147897804
327,617.8202212261447
328,617.6698892892537
329,617.5206482957644
330,617.3716465295473
331,617.2219268581435
332,617.0705422371525
333,616.916692938061
334,616.7598751888389
335,616.600032121208
336,616.4376951988056
337,616.2740965392142
338,616.1112169318949
339,615.9517198939853
340,615.7987315063132
341,615.655470734572
342,615.5247914157709
343,615.4087254756004
344,615.3081086367351
345,615.2223477817909
346,615.1493653197314
347,615.0857236664449
348,615.026896452343
349,614.9676334267277
350,614.9023782352842
351,614.8257327486023
352,614.732985353756
353,614.6207005338085
354,614.4873035230595
355,614.3335301580211
356,614.1626000144676
357,613.9800237052683
358,613.7930429168237
359,613.6097869734931
360,613.4382907620812
361,613.285546701885
362,613.1567551474772
363,613.0548933892851
364,612.9806479020237
365,612.9326652938025
366,612.9080079415139
367,612.9026807860355
368,612.9121274877718
369,612.9316473347243
370,612.9567234426695
371,612.983265802108
372,613.0077736521204
373,613.0274241311503
374,613.040098428845
375,613.0443638763873
376,613.0394406663519
377,613.0251802714196
378,613.0020564530942
379,612.9711340889468
380,612.9339686200398
381,612.8924174883308
382,612.8483974322522
383,612.8036585952315
384,612.7596419939838
385,612.7174475768646
386,612.6778913504148
387,612.6415968236201
388,612.6090633222819
389,612.5806779779266
390,612.5566697474728
391,612.537028584156
392,612.5214322124486
393,612.5092348979987
394,612.4995612383696
395,612.491505974952
396,612.4843883838619
397,612.4779773402092
398,612.4726037652702
399,612.4691046726884
400,612.4685885273616
401,612.4720701637972
402,612.4800828078174
403,612.4924076077054
404,612.5080400718712
405,612.5254367343485
406,612.5429890118043
407,612.5596014552239
408,612.5752316909213
409,612.5912715438259
410,612.6106933164424
411,612.6379314822971
412,612.6785034764948
413,612.738400067104
414,612.8233161776315
415,612.9378451597677
416,613.0847907632955
417,613.2647339538552
418,613.4759323783792
419,613.7145580785669
420,613.9752186518234
421,614.2516657130011
422,614.5375715805433
423,614.827249914877
424,615.1162077109719
425,615.4014479468754
426,615.6814973734021
427,615.9561981271572
428,616.2263469045861
429,616.4932752541831
430,616.7584456215548
431,617.0231067587931
432,617.2880255229937
433,617.553301052514
434,617.8182677592412
435,618.0814909715324
436,618.3408505212496
437,618.5937014808425
438,618.837096751098
439,619.068049317479
440,619.2838110244753
441,619.4821527279076
442,619.661632457298
443,619.8218254258628
444,619.9634772630142
445,620.0885456480946
446,620.2001122199538
447,620.3021641679936
448,620.3992599133705
449,620.4961087557949
450,620.5971086451159
451,620.7058950209309
452,620.82495662838
453,620.9553702221741
454,621.0966919174904
455,621.2470219825082
456,621.4032376391762
457,621.561363946753
458,621.7170268480296
459,621.8659149206571
460,622.0041795951704
461,622.1287313528147
462,622.237428392058
463,622.3291789344535
464,622.4039738402607
465,622.4628452689242
466,622.5077381580472
467,622.5412984350688
468,622.5666128121725
469,622.5869578370088
470,622.6056150028267
471,622.6257782259474
472,622.650530353459
473,622.682823131867
474,622.7253848269783
475,622.7805092849873
476,622.8497368566764
477,622.933494409596
478,623.0307981620376
479,623.1391314153307
480,623.254580019235
481,623.3722372775959
482,623.4867996678415
483,623.5932108246461
484,623.6872122179005
485,623.7657226941117
486,623.8270480539568
487,623.8709655690797
488,623.8987240545256
489,623.9129661666751
490,623.9175433538356
491,623.9171841054113
492,623.9170088753317
493,623.9219437207822
494,623.9361282407655
495,623.9624143943644
496,624.0020230779193
497,624.0543951469508
498,624.1172530224819
499,624.1868687919562
500,624.2585121105075
501,624.3270312786311
502,624.3875043218715
503,624.4358832394038
504,624.46954759729
505,624.4876907450786
506,624.4914883236065
507,624.4840354405331
508,624.4700667888318
509,624.4554861264329
510,624.4467383177177
511,624.4500705762072
512,624.4707534528811
513,624.5123603152157
514,624.5762204846429
515,624.6611507667947
516,624.7635321595299
517,624.8777398729666
518,624.9968609059365
519,625.1135641095921
520,625.220959559411
521,625.3133126847988
522,625.3865361387257
523,625.4384297837271
524,625.4686660781721
525,625.4785407562059
526,625.4705381190245
527,625.4477874340511
528,625.413500292158
529,625.3704788241639
530,625.3207735398822
531,625.2655450267451
532,625.205147065619
533,625.1394029097494
534,625.0679974579829
535,624.9908772395725
536,624.9085614626758
537,624.8223129541574
538,624.7341607783776
539,624.6467829886992
540,624.5632592964765
541,624.486713169709
542,624.4198869831173
543,624.3647177069115
544,624.3219895971401
545,624.2911319737576
546,624.2702073862968
547,624.2561006828445
548,624.2448804149151
549,624.2322749488555
550,624.2141949292132
551,624.1872367160133
552,624.1491096276293
553,624.0989406112877
554,624.037426083355
555,623.9668212465367
556,623.8907718676508
557,623.8139944714262
558,623.7418090467128
559,623.6795439080948
560,623.6318673925336
561,623.6021344674463
562,623.5918490547381
563,623.6003350769399
564,623.6246888870636
565,623.6600535482247
566,623.7002078885109
567,623.7384045204267
568,623.7683355967753
569,623.7850699271453
570,623.7858019880917
571,623.7702857893382
572,623.7408870021758
573,623.702258811916
574,623.6607139139716
575,623.623414507366
576,623.5975253478523
577,623.5894661735065
578,623.604356327636
579,623.6456766388842
580,623.7151163809922
581,623.8125619219636
582,623.936212092959
583,624.0828285793941
584,624.2481159949056
585,624.4271868978727
586,624.6150338369205
587,624.8069233278821
588,624.9986448982233
589,625.1865806343103
590,625.3675980691075
591,625.5388109143103
592,625.6972924462577
593,625.8398436554584
594,625.9628953132184
595,626.0625736733556
596,626.1349155713917
597,626.1761965150727
598,626.1833293788052
599,626.1542907208899
600,626.0885289084563
601,625.9872991724114
602,625.8538589643368
603,625.6934549149454
604,625.5130540457844
605,625.3208207875934
606,625.1254043651229
607,624.9351497449182
608,624.7573550954131
609,624.5976706546351
610,624.4596939789913
611,624.3447905688336
612,624.2521577998582
613,624.1791315047726
614,624.1216927050115
615,624.0750836798272
616,624.0344226409896
617,623.9952284812414
618,623.9538108401623
619,623.907516964398
620,623.8548452818212
621,623.7954425432531
622,623.7300010685896
623,623.6600654513768
624,623.5877512192038
625,623.5153821626417
626,623.4450709399385
627,623.378291993871
628,623.3155153600833
629,623.2559744581923
630,623.1976263477366
631,623.1373311572659
632,623.071231858999
633,622.9952634658781
634,622.9056835576695
635,622.7995225299632
636,622.6749061352708
637,622.5312691245069
638,622.369508402242
639,622.1920955483773
640,622.0031094045096
641,621.8081173326607
642,621.6138614722959
643,621.4277711567682
644,621.2573767405103
645,621.1097143142024
646,620.9907867091448
647,620.905106425109
648,620.8553186586732
649,620.8419026763371
650,620.8629724950475
651,620.9142256767417
652,620.9891009412025
653,621.0791852908485
654,621.1748584327679
655,621.2660948737313
656,621.3432972941788
657,621.3980419449748
658,621.4236729283498
659,621.4157377495476
660,621.3722685971727
661,621.293890160667
662,621.1837146628477
663,621.0469972296885
664,620.8905720721851
665,620.7221498776255
666,620.5495940497882
667,620.3802854881448
668,620.2206418786168
669,620.0758057910052
670,619.949475652021
671,619.8438333108855
672,619.7595280109484
673,619.6957039938936
674,619.6500838614917
675,619.6191224521499
676,619.598230166201
677,619.5820472834242
678,619.5647468008683
679,619.540357978976
680,619.5031233009519
681,619.4479033979121
682,619.3706166500522
683,619.2686583520336
684,619.1412168795724
685,618.9894085287092
686,618.8161847389392
687,618.6260100638215
688,618.4243529421653
689,618.2170645318756
690,618.0097384288267
691,617.807146212927
692,617.6128315788059
693,617.4289171157417
694,617.2561323660163
695,617.0940213805189
696,616.9412530740434
697,616.7959498972847
698,616.6559656253605
699,616.5190708855864
700,616.3830363177321
701,616.245632851048
702,616.1045924900917
703,615.9575822930834
704,615.802232617691
705,615.6362395443
706,615.4575483717485
707,615.2646162900729
708,615.056728149667
709,614.8343021681158
710,614.5991040815685
711,614.354306858881
712,614.1043668783626
713,613.8547098359401
714,613.6112389600767
715,613.3797163553469
716,613.1651163878022
717,612.9710724513376
718,612.7995168841568
719,612.6505624648953
720,612.5226157482878
721,612.4126648967552
722,612.3166648111326
723,612.2299577992587
724,612.1476985024037
725,612.0652641365696
726,611.9786177192093
727,611.8845763062767
728,611.7809404463544
729,611.6664674247078
730,611.5407102169772
731,611.4037829917133
732,611.2561371017345
733,611.0984252821914
734,610.9314903703072
735,610.7564512368392
736,610.5748075440362
737,610.3884785744677
738,610.1997303553875
739,610.011001737376
740,609.8246823884208
741,609.6429063968648
742,609.4674068987208
743,609.2994461209964
744,609.1398066782347
745,608.9888126801504
746,608.8463475536505
747,608.711847187629
748,608.584267396928
749,608.46205232646
750,608.3431575022759
751,608.2251868970159
752,608.1056697355954
753,607.9824391869955
754,607.8540219152554
755,607.7199433562264
756,607.5808942604829
757,607.4387491039474
758,607.2964494879433
759,607.157772467655
760,607.0270085766037
761,606.9085791268354
762,606.8066263122089
763,606.7246145485179
764,606.6649858833031
765,606.6289095180615
766,606.6161511841439
767,606.6250691904316
768,606.6527339605523
769,606.6951703269094
770,606.7477214785097
771,606.8055079526863
772,606.8639045153253
773,606.918923378054
774,606.9674215517716
775,607.0071333667255
776,607.0366000985376
777,607.0550813844205
778,607.0625026747043
779,607.0594541759838
780,607.0472240177053
781,607.0278229827534
782,607.003947832523
783,606.9788488437408
784,606.9561107199919
785,606.939388960308
786,606.932134155749
787,606.9373039637312
788,606.957060432646
789,606.9924963201369
790,607.04348155128
791,607.1087142370351
792,607.1859956777924
793,607.2726698520997
794,607.3661216294294
795,607.4642275769905
796,607.5656797721017
797,607.6701353566702
798,607.7781790906241
799,607.8911232261532
800,608.0106976294217
801,608.1386927058355
802,608.2766130951377
803,608.4253923221285
804,608.5852090580054
805,608.7554287292279
806,608.9346716104077
807,609.1209910236119
808,609.312138031381
809,609.5058833604819
810,609.7003516197358
811,609.8943010578356
812,610.0872766497522
813,610.2795934167403
814,610.4721613499045
815,610.666213768447
816,610.8630220882648
817,611.0636658213776
818,611.2688936293865
819,611.4790838446443
820,611.6942963056443
821,611.9143868994865
822,612.1391296768456
823,612.3682795191953
824,612.6015265504582
825,612.8383354654891
826,613.0777113098551
827,613.3179690267399
828,613.556591321198
829,613.7902359402046
830,614.0149160968642
831,614.2263470166286
832,614.4204310083528
833,614.5938290496006
834,614.7445302591946
835,614.8723013674711
836,614.9789094178419
837,615.0680653809637
838,615.1450991764513
839,615.2164194968842
840,615.2888390444124
841,615.3688686018384
842,615.4620943996196
843,615.5727336311263
844,615.7034060767071
845,615.8550887000955
846,616.0271777908649
847,616.217595882738
848,616.4229318892976
849,616.6386495502489
850,616.8594092830085
851,617.0795191384934
852,617.2934796175124
853,617.4965405235664
854,617.6851685163468
855,617.8573365130778
856,618.012578405193
857,618.1517951545873
858,618.2768496984733
859,618.3900389401223
860,618.4935620853684
861,618.5891027671419
862,618.6776075557228
863,618.7592853117661
864,618.8337920557105
865,618.9005293193479
866,618.9589776434834
867,619.0089980925248
868,619.0510493106651
869,619.0862856093944
870,619.1165300088293
871,619.1441512676
872,619.1718990186803
873,619.2027534201574
874,619.2398250170377
875,619.2863046832933
876,619.3454259544
877,619.4203784163509
878,619.5141132723606
879,619.6290165252618
880,619.766484278617
881,619.9264941399966
882,620.1072988081902
883,620.3053591702744
884,620.5155872120337
885,620.73189739408
886,620.947989486367
887,621.1582262383234
888,621.3584400327217
889,621.5465112619455
890,621.7226044541806
891,621.8890138122933
892,622.0496445081426
893,622.2092257032467
894,622.3723971291142
895,622.5428208145951
896,622.7224512598463
897,622.9110701661837
898,623.1061629755135
899,623.3031747549819
900,623.4961231047089
901,623.6784703545451
902,623.844090022493
903,623.9881416766202
904,624.1077152982431
905,624.2021899228574
906,624.2733122177757
907,624.3250144699638
908,624.3629853324618
909,624.394018658305
910,624.4252070840023
911,624.4630959046114
912,624.5129354585457
913,624.5781502896506
914,624.6600898612068
915,624.7580589725612
916,624.869568651929
917,624.9907229813223
918,625.1166722723151
