frame_number,force
0,543.7752428203265
1,543.7829958758028
2,543.790703495834
3,543.7982853002985
4,543.8056641998588
5,543.8127666973279
6,543.8195231579458
7,543.8258680545943
8,543.831740192048
9,543.8370829123503
10,543.8418442823847
11,543.845977264263
12,543.8494398681513
13,543.8521952854022
14,543.8542119982137
15,543.8554638613405
16,543.8559301518153
17,543.8555955840094
18,543.8544502894878
19,543.8524897638024
20,543.8497147850045
21,543.8461313103147
22,543.8417503576001
23,543.836587877504
24,543.8306646209131
25,543.8240060048762
26,543.8166419777878
27,543.8086068818998
28,543.7999393088775
29,543.7906819429106
30,543.7808813860639
31,543.7705879616649
32,543.7598554928755
33,543.7487410548898
34,543.737304700717
35,543.7256091624284
36,543.7137195315968
37,543.7017029235649
38,543.6896281298535
39,543.6775652622472
40,543.6655853917899
41,543.6537601860535
42,543.6421615480815
43,543.6308612602572
44,543.6199306362114
45,543.6094401836159
46,543.599459279863
47,543.5900558611411
48,543.5812961238772
49,543.5732442365368
50,543.565962059467
51,543.559508870706
52,543.5539410964343
53,543.5493120459419
54,543.545671652271
55,543.5430662207145
56,543.5415381880708
57,543.54112589588
58,543.5418633805555
59,543.5437801824919
60,543.546901175421
61,543.5512464168761
62,543.5568310203713
63,543.5636650493776
64,543.5717534324009
65,543.581095897859
66,543.5916869273145
67,543.6035157258639
68,543.6165662089062
69,543.6308170050422
70,543.6462414754606
71,543.662807750809
72,543.680478787168
73,543.6992124432547
74,543.7189615812744
75,543.7396741939484
76,543.7612935602069
77,543.7837584315624
78,543.8070032499636
79,543.8309583962194
80,543.8555504666357
81,543.8807025748902
82,543.9063346765071
83,543.9323639143537
84,543.9587049850555
85,543.9852705278191
86,544.0119715384908
87,544.0387178121128
88,544.0654184161339
89,544.0919821939768
90,544.1183182959958
91,544.1443367330156
92,544.1699489468164
93,544.195068391649
94,544.2196111207423
95,544.243496371638
96,544.2666471440753
97,544.2889907640056
98,544.3104594271637
99,544.3309907157943
100,544.3505280828737
101,544.3690212988542
102,544.3864268556241
103,544.4027083209094
104,544.4178366346075
105,544.4317903375261
106,544.444555723405
107,544.4561269069914
108,544.4665058035137
109,544.4757020170671
110,544.4837326367626
111,544.4906219404354
112,544.4964010069325
113,544.5011072398376
114,544.5047838077242
115,544.5074790081692
116,544.5092455645732
117,544.510139866547
118,544.5102211664154
119,544.5095507460597
120,544.5081910693453
121,544.5062049353187
122,544.5036546463423
123,544.5006012040675
124,544.497103545138
125,544.4932178274515
126,544.4889967760122
127,544.4844890948876
128,544.479738949494
129,544.474785522419
130,544.4696626463748
131,544.4643985188005
132,544.4590155031469
133,544.4535300215178
134,544.4479525420775
135,544.4422876626202
136,544.4365342890882
137,544.4306859048783
138,544.4247309240859
139,544.4186531200377
140,544.4124321196481
141,544.4060439537689
142,544.399461653257
143,544.3926558799565
144,544.3855955814157
145,544.3782486581147
146,544.3705826323319
147,544.3625653086771
148,544.3541654177424
149,544.3453532359856
150,544.3361011763427
151,544.3263843448201
152,544.3161810585661
153,544.3054733210993
154,544.2942472507699
155,544.2824934591243
156,544.2702073765382
157,544.257389523339
158,544.2440457256446
159,544.2301872760562
160,544.2158310398515
161,544.2009995076307
162,544.1857207960306
163,544.1700285992009
164,544.1539620945073
165,544.1375658055293
166,544.1208894238696
167,544.1039875896555
168,544.0869196301038
169,544.0697492563695
170,544.0525442203362
171,544.0353759340392
172,544.0183190545924
173,544.0014510370138
174,543.9848516566816
175,543.9686025027885
176,543.9527864442755
177,543.9374870701608
178,543.9227881065152
179,543.9087728125453
180,543.8955233588059
181,543.8831201918133
182,543.8716413908952
183,543.861162024427
184,543.8517535135709
185,543.8434830123608
186,543.83641281339
187,543.8305997883849
188,543.8260948726682
189,543.822942601966
190,543.821180709251
191,543.8208397882034
192,543.8219430280342
193,543.8245060217434
194,543.8285366469216
195,543.8340350157116
196,543.8409934888562
197,543.8493967477411
198,543.8592219178026
199,543.8704387365259
200,543.8830097596567
201,543.8968906003655
202,543.9120301980306
203,543.9283711157738
204,543.9458498681358
205,543.964397281411
206,543.9839388887334
207,544.0043953603837
208,544.0256829677477
209,544.0477140775853
210,544.070397671934
211,544.0936398879584
212,544.1173445715496
213,544.1414138390074
214,544.1657486429739
215,544.1902493414569
216,544.214816271188
217,544.2393503275398
218,544.2637535524643
219,544.287929730177
220,544.3117849888442
221,544.335228405893
222,544.358172614201
223,544.3805344055027
224,544.4022353255823
225,544.4232022535313
226,544.4433679551111
227,544.46267159885
228,544.4810592234447
229,544.4984841460811
230,544.5149073025815
231,544.5302975113209
232,544.5446316539056
233,544.5578947671452
234,544.5700800427401
235,544.5811887329795
236,544.5912299626818
237,544.6002204499897
238,544.6081841413001
239,544.6151517678543
240,544.6211603327583
241,544.6262525373083
242,544.6304761547018
243,544.6338833580852
244,544.6365300093045
245,544.6384749154706
246,544.6397790624465
247,544.6405048363733
248,544.6407152450959
249,544.6404731506736
250,544.6398405229307
251,544.6388777227837
252,544.6376428229796
253,544.6361909728921
254,544.6345738132133
255,544.6328389456555
256,544.631029462229
257,544.6291835386286
258,544.6273340968673
259,544.6255085428714
260,544.6237285841887
261,544.6220101307252
262,544.6203632782509
263,544.6187923715474
264,544.6172961421262
265,544.6158679144261
266,544.6144958742243
267,544.6131633933633
268,544.6118494051119
269,544.6105288239446
270,544.6091730023362
271,544.6077502160125
272,544.6062261685811
273,544.6045645067251
274,544.6027273380205
275,544.6006757448099
276,544.598370289191
277,544.5957715055707
278,544.5928403779075
279,544.5895387986328
280,544.5858300057749
281,544.5816789948817
282,544.577052903356
283,544.5719213659368
284,544.5662568400913
285,544.5600348990424
286,544.5532344893556
287,544.5458381507045
288,544.5378321974518
289,544.5292068636548
290,544.5199564137306
291,544.5100792202763
292,544.4995778093436
293,544.4884588725345
294,544.4767332447846
295,544.4644158467274
296,544.451525591322
297,544.4380852556691
298,544.4241213198303
299,544.4096637747244
300,544.39474590151
301,544.3794040258105
302,544.3636772512115
303,544.3476071770313
304,544.3312376056497
305,544.314614245133
306,544.2977844131557
307,544.2807967474547
308,544.2637009260826
309,544.2465473981874
310,544.2293871237497
311,544.2122713192323
312,544.1952512057669
313,544.1783777572056
314,544.1617014465648
315,544.1452719904183
316,544.1291380913664
317,544.1133471790198
318,544.0979451501652
319,544.0829761088515
320,544.0684821070777
321,544.0545028868389
322,544.0410756246637
323,544.0282346803699
324,544.0160113526675
325,544.0044336456128
326,543.9935260516877
327,543.9833093586583
328,543.9738004873841
329,543.965012366194
330,543.9569538451095
331,543.9496296509454
332,543.9430403825595
333,543.9371825443903
334,543.93204861592
335,543.9276271547945
336,543.9239029319278
337,543.9208570977969
338,543.9184673799048
339,543.9167083115707
340,543.9155514914659
341,543.9149658718256
342,543.9149180716723
343,543.9153727103209
344,543.9162927560999
345,543.9176398852637
346,543.9193748460907
347,543.9214578231966
348,543.9238487975812
349,543.9265078991839
350,543.9293957506392
351,543.9324738029335
352,543.9357046648864
353,543.9390524280907
354,543.9424829874325
355,543.9459643557716
356,543.9494669708265
357,543.9529639928102
358,543.9564315921982
359,543.9598492277887
360,543.9631999159903
361,543.9664704928105
362,543.9696518695936
363,543.9727392818862
364,543.9757325284597
365,543.9786361954392
366,543.9814598591735
367,543.9842182607891
368,543.9869314449015
369,543.9896248545551
370,543.9923293743046
371,543.9950813137984
372,543.9979223257113
373,544.0008992544214
374,544.0040639147101
375,544.0074728019573
376,544.0111867366614
377,544.0152704475056
378,544.0197920990706
379,544.0248227720326
380,544.0304359047179
381,544.0367067054883
382,544.043711545842
383,544.0515273438352
384,544.0602309458912
385,544.0698985126949
386,544.0806049128373
387,544.0924231267543
388,544.1054236627537
389,544.1196739861165
390,544.1352379616844
391,544.1521753104487
392,544.1705410816238
393,544.1903851435903
394,544.211751699484
395,544.2346788350679
396,544.2591981071222
397,544.2853341800799
398,544.313104517513
399,544.3425191336173
400,544.3735804084698
401,544.4062829700788
402,544.4406136461213
403,544.4765514880954
404,544.5140678697189
405,544.5531266595433
406,544.5936844650697
407,544.6356909427102
408,544.6790891655105
409,544.7238160390539
410,544.769802755148
411,544.8169752723783
412,544.8652548123808
413,544.9145583610443
414,544.9647991648952
415,545.0158872144293
416,545.0677297076528
417,545.1202314883741
418,545.1732954552672
419,545.2268229400927
420,545.2807140565784
421,545.3348680243593
422,545.3891834741636
423,545.4435587407353
424,545.4978921486871
425,545.552082293756
426,545.6060283184737
427,545.6596301782536
428,545.7127888923823
429,545.7654067747357
430,545.8173876406303
431,545.8686369881011
432,545.9190621535332
433,545.9685724431225
434,546.0170792431485
435,546.0644961130117
436,546.1107388650387
437,546.1557256345725
438,546.1993769435742
439,546.241615760916
440,546.2823675621713
441,546.3215603906062
442,546.3591249194757
443,546.3949945141186
444,546.4291052912295
445,546.461396172405
446,546.4918089297073
447,546.5202882221195
448,546.546781622705
449,546.5712396366657
450,546.5936157106651
451,546.6138662343137
452,546.6319505357548
453,546.6478308745474
454,546.6614724360492
455,546.6728433317172
456,546.6819146089897
457,546.6886602731558
458,546.6930573226007
459,546.6950857981558
460,546.6947288465657
461,546.691972797161
462,546.6868072501501
463,546.6792251748615
464,546.6692230166116
465,546.6568008110338
466,546.6419623042536
467,546.6247150762848
468,546.6050706639721
469,546.5830446792289
470,546.558656918542
471,546.5319314609172
472,546.5028967534347
473,546.4715856855007
474,546.4380356536011
475,546.4022886176843
476,546.3643911491082
477,546.3243944690485
478,546.2823544751644
479,546.2383317530831
480,546.1923915687386
481,546.144603838549
482,546.0950430764015
483,546.0437883181123
484,545.9909230243123
485,545.9365349613511
486,545.8807160576437
487,545.8235622311918
488,545.7651731835423
489,545.7056521560392
490,545.6451056456001
491,545.5836430794237
492,545.5213764506746
493,545.4584199194684
494,545.3948893849281
495,545.3309020348958
496,545.2665758803704
497,545.2020292819279
498,545.1373804750697
499,545.0727471003132
500,545.0082457418814
501,544.9439914769088
502,544.8800974362476
503,544.8166743782459
504,544.7538302773279
505,544.6916699293246
506,544.6302945757908
507,544.5698015503247
508,544.5102839503381
509,544.4518303368912
510,544.3945244634391
511,544.3384450328471
512,544.2836654814085
513,544.2302537885791
514,544.1782723113528
515,544.1277776426733
516,544.0788204941288
517,544.0314456042792
518,543.9856916748881
519,543.9415913374502
520,543.899171151342
521,543.8584516327599
522,543.8194473108647
523,543.7821668051059
524,543.746612916416
525,543.7127827252276
526,543.6806676907556
527,543.6502537479688
528,543.6215214003842
529,543.5944458077694
530,543.5689968680489
531,543.5451392926511
532,543.5228326749362
533,543.5020315526796
534,543.4826854676356
535,543.464739027201
536,543.4481319744841
537,543.4327992735421
538,543.4186712163738
539,543.4056735576717
540,543.3937276824025
541,543.382750810064
542,543.3726562379569
543,543.3633536242473
544,543.3547493104118
545,543.3467466822723
546,543.3392465690498
547,543.3321476799597
548,543.3253470770862
549,543.3187406814666
550,543.312223807087
551,543.3056917156159
552,543.2990401835644
553,543.2921660731604
554,543.2849678984611
555,543.2773463790338
556,543.2692049748277
557,543.2604503976258
558,543.2509930966205
559,543.240747717605
560,543.229633536007
561,543.2175748633
562,543.2045014252411
563,543.1903487100063
564,543.1750582847837
565,543.15857808009
566,543.1408626413273
567,543.1218733468011
568,543.1015785910872
569,543.0799539327323
570,543.0569822058609
571,543.032653596236
572,543.0069656835207
573,542.979923452567
574,542.9515392771273
575,542.9218328793769
576,542.8908312682589
577,542.8585686590372
578,542.8250863756322
579,542.7904327363964
580,542.754662923112
581,542.7178388322468
582,542.6800289070231
583,542.6413079488282
584,542.6017569070013
585,542.5614626466821
586,542.5205176944877
587,542.4790199610525
588,542.4370724383343
589,542.394782868786
590,542.3522633833494
591,542.3096301054385
592,542.2670027180998
593,542.2245039913134
594,542.1822592663592
595,542.1403958947982
596,542.0990426311289
597,542.0583289802591
598,542.018384503039
599,541.9793380851174
600,541.9413171766274
601,541.9044470126523
602,541.8688498264812
603,541.8346440686586
604,541.8019436445651
605,541.7708571820231
606,541.7414873386374
607,541.7139301565162
608,541.688274469967
609,541.6646013703016
610,541.6429837313967
611,541.6234857998104
612,541.6061628532426
613,541.5910609305614
614,541.5782166358322
615,541.5676570182067
616,541.5593995290301
617,541.5534520567816
618,541.5498130394527
619,541.5484716527617
620,541.5494080712025
621,541.5525937975209
622,541.5579920549602
623,541.5655582354002
624,541.5752403951864
625,541.5869797892334
626,541.6007114332057
627,541.6163646832558
628,541.6338638228589
629,541.6531286467782
630,541.6740750333456
631,541.6966154981592
632,541.7206597247747
633,541.7461150703277
634,541.7728870456363
635,541.8008797702507
636,541.8299964038861
637,541.8601395572074
638,541.8912116865664
639,541.9231154778054
640,541.9557542230737
641,541.9890321924838
642,542.0228550004424
643,542.057129964966
644,542.0917664571198
645,542.1266762370454
646,542.161773773002
647,542.1969765402209
648,542.2322052970708
649,542.2673843373005
650,542.3024417188728
651,542.337309471409
652,542.3719237849604
653,542.4062251827039
654,542.4401586795151
655,542.4736739273942
656,542.5067253475465
657,542.5392722478506
658,542.5712789238988
659,542.6027147418343
660,542.6335542013029
661,542.6637769764053
662,542.6933679315706
663,542.7223171082571
664,542.7506196778314
665,542.7782758561409
666,542.80529077623
667,542.8316743173075
668,542.8574408904709
669,542.88260918461
670,542.9072018785866
671,542.931245327336
672,542.9547692297028
673,542.977806285053
674,543.0003918445292
675,543.0225635614524
676,543.0443610438268
677,543.0658255104657
678,543.0869994513877
679,543.1079262929818
680,543.1286500687871
681,543.1492150971661
682,543.1696656673577
683,543.190045735318
684,543.210398630689
685,543.2307667764403
686,543.2511914230957
687,543.2717123997039
688,543.2923678837822
689,543.3131941924592
690,543.3342255969118
691,543.3554941617592
692,543.3770296102606
693,543.3988592152099
694,543.4210077147615
695,543.4434972522397
696,543.4663473391277
697,543.489574840699
698,543.5131939841368
699,543.5372163894453
700,543.5616511237537
701,543.5865047793184
702,543.6117815744714
703,543.6374834754436
704,543.6636103361695
705,543.6901600528163
706,543.7171287291078
707,543.7445108473657
708,543.7722994394777
709,543.8004862526774
710,543.829061906922
711,543.8580160427925
712,543.8873374604095
713,543.9170142507456
714,543.947033921205
715,543.9773835175354
716,544.0080497437974
717,544.0390190809628
718,544.0702779030676
719,544.1018125887106
720,544.1336096258026
721,544.1656557086081
722,544.1979378274721
723,544.2304433525151
724,544.2631601126086
725,544.296076469933
726,544.3291813887222
727,544.3624644950528
728,544.3959161231902
729,544.4295273431961
730,544.4632899643402
731,544.4971965093056
732,544.5312401549783
733,544.5654146364735
734,544.5997141119221
735,544.6341329868494
736,544.6686656992963
737,544.7033064700635
738,544.7380490254797
739,544.7728863016556
740,544.8078101390141
741,544.8428109749203
742,544.8778775417182
743,544.9129965778387
744,544.9481525601706
745,544.9833274654602
746,545.0185005666867
747,545.0536482678461
748,545.0887439785719
749,545.1237580291602
750,545.1586576266023
751,545.1934068525803
752,545.2279667048465
753,545.2622951841789
754,545.2963474301721
755,545.330075909684
756,545.3634306605703
757,545.3963595901129
758,545.4288088236506
759,545.4607230961817
760,545.4920461787433
761,545.522721331385
762,545.5526917746364
763,545.5819011714017
764,545.6102941114809
765,545.6378165913841
766,545.6644164825082
767,545.6900439810755
768,545.7146520339512
769,545.7381967360336
770,545.7606376969453
771,545.7819383761515
772,545.8020663856181
773,545.8209937578962
774,545.8386971760671
775,545.8551581614327
776,545.8703632156551
777,545.8843039156376
778,545.8969769608539
779,545.9083841738576
780,545.9185324558083
781,545.9274337001824
782,545.9351046688612
783,545.9415668349625
784,545.9468461962775
785,545.9509730625589
786,545.9539818194762
787,545.9559106717746
788,545.9568013679407
789,545.9566989084489
790,545.9556512395791
791,545.9537089351766
792,545.9509248695415
793,545.9473538853073
794,545.9430524602008
795,545.9380783760378
796,545.9324903924665
797,545.9263479268961
798,545.9197107408711
799,545.9126386321742
800,545.9051911313002
801,545.8974272005738
802,545.8894049340911
803,545.881181256923
804,545.8728116228602
805,545.8643497117193
806,545.8558471298063
807,545.8473531195777
808,545.8389142856308
809,545.8305743434968
810,545.8223738961065
811,545.8143502414745
812,545.8065372147178
813,545.7989650675096
814,545.7916603876325
815,545.784646060193
816,545.7779412706299
817,545.7715615481321
818,545.7655188464591
819,545.7598216575656
820,545.7544751523877
821,545.7494813431363
822,545.7448392625338
823,545.7405451572301
824,545.7365926944583
825,545.7329731821345
826,545.7296758024559
827,545.7266878575125
828,545.7239950231277
829,545.7215816052799
830,545.7194307931684
831,545.7175249044535
832,545.7158456205173
833,545.714374211471
834,545.7130917512204
835,545.7119793221946
836,545.7110182081924
837,545.7101900732312
838,545.70947712465
839,545.7088622597023
840,545.7083291958676
841,545.7078625855747
842,545.7074481157596
843,545.7070725919816
844,545.7067240061409
845,545.7063915864559
846,545.7060658285202
847,545.7057385070133
848,545.7054026687505
849,545.7050526088211
850,545.7046838320583
851,545.7042930017581
852,545.703877876827
853,545.7034372381253
854,545.7029708050094
855,545.7024791438072
856,545.7019635707209
857,545.7014260519124
858,545.7008691030434
859,545.7002956897005
860,545.699709129403
861,545.699112995109
862,545.6985110188313
863,545.6979069921401
864,545.6973046587642
865,545.6967075940033
866,545.696119066146
867,545.6955418757778
868,545.6949781694095
869,545.6944292246546
870,545.6938952057687
871,545.6933748906869
872,545.6928653732039
873,545.6923617459855
874,545.6918567714439
875,545.6913405483823
876,545.6908001828905
877,545.6902194719969
878,545.6895786077419
879,545.6888539077589
880,545.6880175767174
881,545.6870375018119
882,545.6858770854324
883,545.6844951191963
884,545.6828457051009
885,545.6808782309093
886,545.6785374075897
887,545.675763376433
888,545.6724918921678
889,545.6686545859677
890,545.664179309204
891,545.6589905559198
892,545.653009959875
893,545.6461568607989
894,545.6383489339022
895,545.629502876261
896,545.6195351431967
897,545.6083627274376
898,545.595903973736
899,545.5820794214176
900,545.566812666626
901,545.5500312346653
902,545.5316674510989
903,545.5116592986857
904,545.4899512463811
905,545.4664950368162
906,545.4412504199454
907,545.4141858227366
908,545.3852789474279
909,545.3545172932902
910,545.3218985984925
911,545.2874311996187
912,545.2511343071386
913,545.2130381957425
914,545.1731843083337
915,545.1316252713398
916,545.0884248177434
917,545.0436576142487
