frame_number,force
0,543.9783262011829
1,543.9767051277028
2,543.9725038969656
3,543.9660942589995
4,543.9578699159047
5,543.9482306149345
6,543.9375672191964
7,543.9262487402764
8,543.9146119601176
9,543.9029539062885
10,543.8915272422691
11,543.8805385266118
12,543.870149107828
13,543.8604781244092
14,543.8516068044152
15,543.843583136811
16,543.8364260463502
17,543.8301284128157
18,543.8246586064864
19,543.8199606333189
20,543.8159534000772
21,543.8125298764462
22,543.8095569741289
23,543.806876850201
24,543.8043101733093
25,543.801661659792
26,543.7987278404042
27,543.795306602102
28,543.791207694022
29,543.7862632078261
30,543.7803370759518
31,543.7733328098346
32,543.7651989127137
33,543.75593160527
34,543.7455747385064
35,543.734217065501
36,543.7219873299192
37,543.7090477677488
38,543.695586564984
39,543.681809691312
40,543.6679324791097
41,543.65417133478
42,543.6407359736992
43,543.6278225445791
44,543.6156079870659
45,543.6042459250917
46,543.5938642666918
47,543.5845644508244
48,543.5764220439053
49,543.5694882379792
50,543.5637917572907
51,543.5593407184684
52,543.5561241083125
53,543.5541127309939
54,543.5532596762672
55,543.5535005195528
56,543.5547535756155
57,543.5569205758078
58,543.559888088029
59,543.5635298648942
60,543.567710175086
61,543.5722881030172
62,543.5771227558243
63,543.5820792281236
64,543.5870350465107
65,543.5918867138704
66,543.5965559444322
67,543.6009952118567
68,543.6051922933816
69,543.6091735711735
70,543.6130059451624
71,543.6167973127292
72,543.6206956717539
73,543.6248869913396
74,543.6295920529092
75,543.6350624989342
76,543.6415763433016
77,543.6494331522371
78,543.6589489488829
79,543.6704506688845
80,543.684269813703
81,543.7007349031793
82,543.7201624360541
83,543.7428462921073
84,543.7690458024539
85,543.7989730289312
86,543.832780070737
87,543.8705473540701
88,543.9122737589086
89,543.9578691246378
90,544.0071493267355
91,544.0598338930813
92,544.1155460553659
93,544.1738151374038
94,544.2340812028268
95,544.2957018961657
96,544.357961412737
97,544.4200815177517
98,544.481234505126
99,544.5405579930513
100,544.5971715337096
101,544.650195072412
102,544.6987691749571
103,544.7420766362908
104,544.7793647211656
105,544.8099670249766
106,544.8333238897765
107,544.8490004784142
108,544.8567018760507
109,544.8562847848083
110,544.8477654414105
111,544.8313233890779
112,544.8073007806593
113,544.7761970346683
114,544.7386588788961
115,544.6954660224452
116,544.6475128647369
117,544.5957868143811
118,544.5413439830384
119,544.4852832094471
120,544.4287194772589
121,544.3727577493047
122,544.3184680711313
123,544.266862608857
124,544.2188751594001
125,544.1753435547481
126,544.1369951716624
127,544.1044354532955
128,544.0781390960119
129,544.0584435150646
130,544.0455443924852
131,544.0394933953471
132,544.040198381445
133,544.0474265075652
134,544.0608106164775
135,544.0798591232029
136,544.1039693705923
137,544.1324441173753
138,544.1645105469274
139,544.1993410401893
140,544.2360749533052
141,544.2738406941312
142,544.3117774202376
143,544.3490556801333
144,544.3848963277427
145,544.4185870819996
146,544.449496192345
147,544.4770828267191
148,544.5009040216443
149,544.5206182776556
150,544.5359860698799
151,544.5468676188704
152,544.5532182511974
153,544.5550816429641
154,544.5525812273307
155,544.5459100573938
156,544.5353194369874
157,544.5211066714319
158,544.5036023512564
159,544.4831576251821
160,544.4601318989912
161,544.4348813465749
162,544.4077486249638
163,544.3790542587407
164,544.349090187465
165,544.3181158205787
166,544.2863566197625
167,544.2540048962696
168,544.2212223578866
169,544.1881440047779
170,544.1548831343542
171,544.1215373196444
172,544.0881952033292
173,544.0549438302442
174,544.021876100818
175,543.9890978375348
176,543.9567339490159
177,543.9249332228272
178,543.8938713170382
179,543.8637515450866
180,543.8348031341342
181,543.8072768361186
182,543.7814380247889
183,543.7575576328946
184,543.7359014565595
185,543.7167184953297
186,543.7002290940169
187,543.6866136958031
188,543.6760030147602
189,543.6684703986602
190,543.6640270848127
191,543.6626209325631
192,543.664138986907
193,543.6684138692926
194,543.6752335898481
195,543.6843540473009
196,543.6955132784104
197,543.708446419644
198,543.7229003169275
199,543.7386467537875
200,543.7554933837368
201,543.7732916800849
202,543.7919415671181
203,543.8113928295505
204,543.831643796122
205,543.8527380154222
206,543.8747596215371
207,543.8978278785328
208,543.9220911193449
209,543.9477200612637
210,543.9749003138161
211,544.0038237772869
212,544.0346785901476
213,544.0676374033686
214,544.1028440801098
215,544.1403993681146
216,544.1803464958988
217,544.2226578241256
218,544.2672235871634
219,544.3138435078896
220,544.3622218531126
221,544.4119664027562
222,544.4625917480066
223,544.5135271793954
224,544.5641291321787
225,544.6136977701948
226,544.6614969021326
227,544.7067761543385
228,544.7487942545145
229,544.7868423713558
230,544.8202665748097
231,544.8484885509434
232,544.8710237697363
233,544.8874964351536
234,544.8976507277695
235,544.9013580227974
236,544.8986199466655
237,544.8895673829617
238,544.8744558316401
239,544.8536577560568
240,544.8276526317095
241,544.7970153199942
242,544.7624031681185
243,544.7245419723897
244,544.6842107747739
245,544.6422255156739
246,544.5994218265207
247,544.5566375256028
248,544.5146954775014
249,544.4743873713879
250,544.4364587957577
251,544.4015958303648
252,544.3704132502409
253,544.3434443455067
254,544.3211323099198
255,544.3038231267983
256,544.2917598943997
257,544.2850786368545
258,544.2838058561999
259,544.2878582932975
260,544.2970454034072
261,544.3110748321279
262,544.3295608117894
263,544.3520350776771
264,544.3779597223445
265,544.406741363756
266,544.437746083565
267,544.4703147484629
268,544.5037784503135
269,544.537473795558
270,544.5707576561178
271,544.6030208675438
272,544.6337003205609
273,544.662288960056
274,544.6883433569698
275,544.7114887338636
276,544.7314215683605
277,544.7479100937833
278,544.7607930899616
279,544.7699772957727
280,544.775433653253
281,544.7771925488393
282,544.775338312828
283,544.7700033456333
284,544.7613621744462
285,544.7496255089618
286,544.7350341678467
287,544.7178527808147
288,544.698363413348
289,544.6768594964743
290,544.6536404737969
291,544.6290073987103
292,544.6032594688133
293,544.5766912847502
294,544.549590492058
295,544.5222354250403
296,544.49489245473
297,544.4678129033144
298,544.4412294977094
299,544.4153523534267
300,544.3903645155686
301,544.3664172191026
302,544.3436251906234
303,544.3220624001107
304,544.3017587162368
305,544.282697993575
306,544.2648181679191
307,544.2480138260981
308,544.2321414207865
309,544.2170269182515
310,544.2024753214265
311,544.1882812935781
312,544.174240067769
313,544.1601579478211
314,544.1458619028425
315,544.1312079263316
316,544.1160879277596
317,544.1004349795643
318,544.0842267845198
319,544.0674872452065
320,544.0502860131768
321,544.0327359130932
322,544.0149882000558
323,543.9972257082336
324,543.9796540949135
325,543.96249160732
326,543.9459580841626
327,543.9302641306148
328,543.9156014214084
329,543.9021348614297
330,543.8899969875663
331,543.8792846656353
332,543.8700578851506
333,543.8623403012359
334,543.8561211205694
335,543.8513579692296
336,543.8479804997229
337,543.8458946590936
338,543.8449876886036
339,543.8451339816706
340,543.8462018402929
341,543.8480609669933
342,543.8505903085259
343,543.8536857295591
344,543.8572669676008
345,543.8612833523789
346,543.8657178001422
347,543.8705886218208
348,543.8759487821849
349,543.8818824640701
350,543.8884991091616
351,543.8959254391292
352,543.9042961680899
353,543.9137440893735
354,543.9243899997103
355,543.9363326975343
356,543.949639220728
357,543.9643355757759
358,543.9803983469028
359,543.9977476974541
360,544.0162423963852
361,544.0356775807765
362,544.0557858903829
363,544.0762423353839
364,544.0966728734894
365,544.1166663224424
366,544.1357889973067
367,544.153601315098
368,544.1696754910945
369,544.1836133371373
370,544.1950630892392
371,544.203734199124
372,544.2094091866135
373,544.211951973934
374,544.2113124961112
375,544.2075276447504
376,544.2007187352425
377,544.1910858254973
378,544.178899429455
379,544.1644903646943
380,544.1482385640455
381,544.1305617093088
382,544.1119045502988
383,544.0927296770296
384,544.0735102305059
385,544.0547246341769
386,544.0368530873955
387,544.0203753721661
388,544.0057694039206
389,543.9935098364313
390,543.9840659586331
391,543.9778981638702
392,543.9754524597427
393,543.9771528290935
394,543.9833916811098
395,543.9945189851833
396,544.0108308455523
397,544.0325582755692
398,544.0598568400995
399,544.0927976977734
400,544.1313604531648
401,544.175428205395
402,544.2247852544879
403,544.279117993101
404,544.3380194619094
405,544.4009978430264
406,544.4674888290788
407,544.536871421041
408,544.6084863964061
409,544.6816565128397
410,544.7557074327524
411,544.8299883100651
412,544.9038909717874
413,544.9768666977421
414,545.0484397704952
415,545.1182171972303
416,545.1858942250951
417,545.2512554469971
418,545.314171494998
419,545.3745916480938
420,545.4325331222293
421,545.4880682127016
422,545.5413106849087
423,545.592402801566
424,545.6415041175226
425,545.6887826926636
426,545.7344087797403
427,545.7785505201239
428,545.8213708920981
429,545.8630251564973
430,545.9036582444335
431,545.9434017790373
432,545.9823706372589
433,546.0206591615914
434,546.0583373333038
435,546.0954473417092
436,546.1320009673618
437,546.1679781024709
438,546.2033266701748
439,546.2379641857467
440,546.2717811360101
441,546.3046461775151
442,546.3364129028186
443,546.3669276760014
444,546.3960378680564
445,546.4235997861524
446,546.4494856985409
447,546.4735895441007
448,546.4958310731898
449,546.5161582399729
450,546.5345477093078
451,546.5510034411928
452,546.5655534965051
453,546.5782454246789
454,546.5891407717272
455,546.5983093047361
456,546.6058234561492
457,546.6117533221673
458,546.616162417879
459,546.619104317699
460,546.6206202260502
461,546.6207374091043
462,546.6194683410502
463,546.6168104349902
464,546.6127463085896
465,546.6072445868091
466,546.6002611982028
467,546.5917409880946
468,546.5816193293775
469,546.5698233403124
470,546.55627236898
471,546.540877602836
472,546.5235409806039
473,546.5041538864442
474,546.4825962190775
475,546.4587363194446
476,546.4324320471509
477,546.4035331225724
478,546.3718846633844
479,546.3373316313484
480,546.2997237980719
481,546.2589209560783
482,546.2147983768351
483,546.167252744701
484,546.1162087993899
485,546.0616266664914
486,546.0035094735865
487,545.9419105407843
488,545.8769393153196
489,545.8087652656125
490,545.7376191183108
491,545.6637911162409
492,545.58762634436
493,545.5095174864745
494,545.4298955660496
495,545.3492193218451
496,545.2679639197573
497,545.1866097122324
498,545.1056316957444
499,545.0254901336397
500,544.9466225069017
501,544.869436660123
502,544.7943048911656
503,544.7215587958439
504,544.6514847727891
505,544.5843201389499
506,544.5202498832513
507,544.4594042417702
508,544.4018573829203
509,544.3476274006281
510,544.2966775802518
511,544.2489187101612
512,544.2042121557333
513,544.1623734475631
514,544.1231762047565
515,544.0863563201746
516,544.051616496184
517,544.018631416663
518,543.987054003938
519,543.9565232438187
520,543.9266739067475
521,543.8971481612405
522,543.8676086495636
523,543.8377522094154
524,543.8073232165997
525,543.776125550397
526,543.7440323972576
527,543.7109933969358
528,543.6770388784837
529,543.6422810586788
530,543.6069120853239
531,543.571198776949
532,543.5354739526746
533,543.5001244368374
534,543.465576127682
535,543.4322768201325
536,543.4006776688859
537,543.3712142492054
538,543.3442881528665
539,543.320249977171
540,543.2993844384486
541,543.2818981728853
542,543.2679105817372
543,543.2574478651752
544,543.2504402407326
545,543.2467223187082
546,543.2460366801951
547,543.2480407570495
548,543.2523170288653
549,543.2583863082345
550,543.2657235734365
551,543.2737755468098
552,543.281979067414
553,543.2897792665583
554,543.2966466086597
555,543.302091996942
556,543.3056793514477
557,543.3070353419139
558,543.3058562893325
559,543.3019125438885
560,543.2950507480471
561,543.2851942692683
562,543.2723418978067
563,543.2565648245126
564,543.2380019651324
565,543.2168537828967
566,543.1933747752383
567,543.167864720093
568,543.1406587023034
569,543.1121159342582
570,543.0826074567286
571,543.0525029399549
572,543.0221569771795
573,542.9918954181279
574,542.9620023683743
575,542.9327084718847
576,542.90418102853
577,542.8765163966865
578,542.8497349997178
579,542.8237791082773
580,542.7985134277153
581,542.7737283971592
582,542.7491460216379
583,542.7244280411059
584,542.6991863023976
585,542.6729952789385
586,542.6454066703324
587,542.61596586782
588,542.5842298597287
589,542.5497859839753
590,542.5122708662769
591,542.471388864092
592,542.426929285294
593,542.3787815583728
594,542.3269474654847
595,542.2715495878269
596,542.2128352881065
597,542.151175821966
598,542.0870604443952
599,542.0210856425122
600,541.9539399332104
601,541.8863850109146
602,541.8192343251524
603,541.7533303080131
604,541.6895214253482
605,541.6286400396386
606,541.5714818141536
607,541.5187870970901
608,541.4712244477772
609,541.429376292632
610,541.3937266861598
611,541.3646512481098
612,541.3424094266779
613,541.3271392366353
614,541.3188545915398
615,541.3174453546926
616,541.3226802537041
617,541.3342127858293
618,541.3515901799723
619,541.3742653862266
620,541.4016119345494
621,541.432941366206
622,541.4675228213341
623,541.5046042412533
624,541.5434344926906
625,541.5832855775095
626,541.6234740038128
627,541.6633803677059
628,541.7024662158965
629,541.7402873388528
630,541.7765028148089
631,541.8108794066246
632,541.8432912730996
633,541.873715291983
634,541.9022225049225
635,541.9289662957883
636,541.9541680189218
637,541.978100986152
638,542.0010739264284
639,542.0234150651485
640,542.0454577427801
641,542.0675281188026
642,542.0899351568864
643,542.1129628127059
644,542.1368641299624
645,542.1618568161703
646,542.1881198382986
647,542.2157906150737
648,542.2449624739909
649,542.2756822250875
650,542.3079479639994
651,542.3417074440182
652,542.3768574591343
653,542.4132446580741
654,542.4506681066086
655,542.488883761002
656,542.5276108306319
657,542.5665398385647
658,542.6053420992109
659,542.6436803321357
660,542.681220137749
661,542.7176419828241
662,542.7526531809117
663,542.7859991798938
664,542.817473364281
665,542.8469245859926
666,542.8742617604005
667,542.8994550986475
668,542.9225338951852
669,542.9435812176921
670,542.9627262367468
671,542.9801351483643
672,542.9960016446629
673,543.0105377451194
674,543.0239655986056
675,543.0365106356425
676,543.0483961949035
677,543.0598395125584
678,543.0710488188047
679,543.0822212579852
680,543.0935414004189
681,543.1051801843964
682,543.1172941644553
683,543.1300249396264
684,543.1434986378007
685,543.1578253806491
686,543.1730987299458
687,543.1893951769141
688,543.2067737722037
689,543.2252760202691
690,543.2449261712337
691,543.2657320064269
692,543.2876861189178
693,543.3107675750571
694,543.3349437734879
695,543.3601723239295
696,543.386402823162
697,543.4135784804822
698,543.4416376361079
699,543.4705153187662
700,543.5001450645381
701,543.5304612017557
702,543.5614016689026
703,543.5929112527615
704,543.624945029067
705,543.6574717523781
706,543.6904768568381
707,543.7239645668635
708,543.7579585213917
709,543.7925004322244
710,543.8276466023585
711,543.8634624706505
712,543.9000155981839
713,543.9373676526966
714,543.9755660237371
715,544.0146357295752
716,544.0545722188731
717,544.095335482964
718,544.1368456281526
719,544.1789798662415
720,544.221570881915
721,544.264406690876
722,544.3072322870988
723,544.3497534874508
724,544.3916433525746
725,544.432551369468
726,544.4721152757245
727,544.5099750898452
728,544.5457886543591
729,544.5792478225934
730,544.6100943413602
731,544.6381344964791
732,544.6632516572821
733,544.6854159344823
734,544.7046902473148
735,544.7212322471274
736,544.7352918564716
737,544.7472046403943
738,544.757381658227
739,544.7662966545048
740,544.7744713968098
741,544.7824598023653
742,544.7908314078542
743,544.8001547955696
744,544.8109816834699
745,544.8238323430668
746,544.8391827589562
747,544.8574535950189
748,544.879000771336
749,544.904107381711
750,544.9329767532001
751,544.9657265768587
752,545.0023841888934
753,545.0428832822373
754,545.0870625785664
755,545.1346671619104
756,545.185353073534
757,545.238695348069
758,545.2941991421238
759,545.3513132531999
760,545.4094452429165
761,545.4679774388065
762,545.5262831514515
763,545.5837424900734
764,545.6397572313042
765,545.6937642891413
766,545.7452474068788
767,545.7937467419412
768,545.8388661164622
769,545.8802779302015
770,545.917726019128
771,545.951026922409
772,545.9800699723423
773,546.0048163787586
774,546.0252971956166
775,546.0416099095751
776,546.0539134516799
777,546.0624216121134
778,546.0673949886166
779,546.069131689385
780,546.067957114425
781,546.0642132805834
782,546.0582482507572
783,546.0504061950697
784,546.0410184775529
785,546.0303960149325
786,546.0188230412482
787,546.0065523275141
788,545.9938018342051
789,545.9807527084789
790,545.9675485005937
791,545.9542955138826
792,545.9410643152739
793,545.9278925285521
794,545.914789032733
795,545.9017396039046
796,545.8887139112669
797,545.875673618091
798,545.8625811658569
799,545.8494086812326
800,545.8361463622094
801,545.8228096615796
802,545.8094445921425
803,545.7961305427505
804,545.7829801503087
805,545.7701360718689
806,545.7577649310981
807,545.7460491255636
808,545.7351773841812
809,545.7253348978647
810,545.7166936330733
811,545.7094032704861
812,545.703583182925
813,545.6993159034397
814,545.6966425059097
815,545.6955601885148
816,545.6960221663342
817,545.6979397806591
818,545.7011865155723
819,545.7056033985363
820,545.711005129224
821,545.7171863066527
822,545.7239273185775
823,545.7309997559847
824,545.7381715165974
825,545.745211950295
826,545.7518973842116
827,545.7580171299251
828,545.7633797168185
829,545.7678188021678
830,545.7711981551281
831,545.7734153286378
832,545.7744039789621
833,545.7741350676646
834,545.7726172529285
835,545.7698966468171
836,545.7660559147283
837,545.7612125824829
838,545.7555164522677
839,545.7491461594099
840,545.7423050366782
841,545.7352165058157
842,545.7281191568519
843,545.7212615525599
844,545.7148966761914
845,545.7092758713103
846,545.7046421393215
847,545.7012227719893
848,545.6992214660571
849,545.6988102303452
850,545.7001214731723
851,545.7032406082034
852,545.708199403846
853,545.7149702387769
854,545.7234614644981
855,545.7335141882194
856,545.7449009061482
857,545.7573264521375
858,545.7704316435115
859,545.783799863155
860,545.7969666856612
861,545.8094325134796
862,545.8206779591478
863,545.8301813934867
864,545.8374378000315
865,545.8419779573163
866,545.8433869996
867,545.8413214656866
868,545.8355239778741
869,545.8258347640807
870,545.8121994278569
871,545.7946726790424
872,545.773418075826
873,545.7487040988275
874,545.7208970436863
875,545.6904513173737
876,545.6578977840354
877,545.6238307899507
878,545.5888943561968
879,545.5537677837822
880,545.5191506592727
881,545.4857470929664
882,545.4542490511401
883,545.4253188581149
884,545.3995712512606
885,545.3775556586706
886,545.3597395645037
887,545.3464938934638
888,545.3380812480641
889,545.3346475681145
890,545.3362174272534
891,545.3426928560965
892,545.3538553751891
893,545.3693708560355
894,545.3887968590586
895,545.4115921461533
896,545.4371281004716
897,545.4647018357124
898,545.4935508525447
899,545.5228691494183
900,545.5518246518982
901,545.5795776662262
902,545.6052998296027
903,545.6281928064323
904,545.6475058524794
905,545.6625513870387
906,545.6727178841738
907,545.6774796906193
908,545.6764037309575
909,545.6691533640358
910,545.655489825621
911,545.635271743322
912,545.6084532181017
913,545.5750809449829
914,545.5352907030713
915,545.4893032398392
916,545.4374192459048
917,545.3800129841208
