acceleration,velocity,displacement
-0.009112289026602926,0.0,0.0
-0.009141495997799285,-4.5634462561005524e-06,-1.140861564025138e-09
-0.009217189805548812,-9.153117706937576e-06,-4.5700025547846705e-09
-0.0093326726089416,-1.379058331056018e-05,-1.030592780915911e-08
-0.009480851055366142,-1.8493964226637114e-05,-1.8377064693458433e-08
-0.009654522876357983,-2.3277807709568145e-05,-2.8820007677509747e-08
-0.009846645869603186,-2.815309989605844e-05,-4.167773457891639e-08
-0.010050571532868651,-3.31274042466764e-05,-5.6997860614600106e-08
-0.01026023204718097,-3.82051051416888e-05,-7.48309879616914e-08
-0.01047027585034352,-4.3387732116069926e-05,-9.522919727613108e-08
-0.01067615069041542,-4.8674338751259664e-05,-1.1824471499296348e-07
-0.010874134990488527,-5.406191017148565e-05,-1.4392877722364981e-07
-0.011061321725471564,-5.954577435047567e-05,-1.7233069835414013e-07
-0.011235564370554965,-6.51199958744823e-05,-2.0349714091037962e-07
-0.011395399435276695,-7.077773682594022e-05,-2.3747157408548525e-07
-0.011539962299793927,-7.651157725970788e-05,-2.742939026068973e-07
-0.011668911995772357,-8.231379583359944e-05,-3.140002458802241e-07
-0.011782376808548737,-8.817661803467971e-05,-3.566228493472939e-07
-0.011880926612562386,-9.40924438899575e-05,-4.0219011482845325e-07
-0.011965570255605866,-0.00010005406810699956,-4.5072674282769254e-07
-0.01203776879902497,-0.00010605490287065726,-5.022539855721067e-07
-0.012099450613954857,-0.00011208920772390222,-5.567900132207465e-07
-0.012153013559640142,-0.00011815232376730098,-6.143503960935473e-07
-0.012201301500817172,-0.0001242409025324153,-6.749487026684764e-07
-0.012247545460438027,-0.0001303531142727291,-7.385972068697626e-07
-0.01229526387508189,-0.0001364888166066091,-8.053076895895972e-07
-0.012348122661432417,-0.00014264966324073768,-8.750923095514338e-07
-0.012409763301439187,-0.00014883913473145557,-9.479645090444821e-07
-0.012483613555483145,-0.00015506247894568614,-1.0239399124637675e-06
-0.012572698637438262,-0.0001613265569939165,-1.1030371714486682e-06
-0.012679470084158572,-0.0001676395991743157,-1.1852787104907262e-06
-0.012805666335487399,-0.0001740108832792272,-1.270691331104112e-06
-0.012952215211439449,-0.00018045035366595893,-1.3593066403404086e-06
-0.013119184804226311,-0.00018696820366987537,-1.4511612796743672e-06
-0.013305785047901062,-0.00019357444613290722,-1.5462969421250628e-06
-0.013510416873337193,-0.00020027849661321677,-1.6447601778115937e-06
-0.013730760698755404,-0.0002070887910062399,-1.7466019997164578e-06
-0.01396389350934253,-0.0002140124545582644,-1.851877311107584e-06
-0.014206424747569274,-0.00022105503412249235,-1.9606441832777732e-06
-0.014454643446125914,-0.00022822030117091615,-2.0729630171011255e-06
-0.014704669949597435,-0.000235510129519847,-2.1888956247738164e-06
-0.014952605251783982,-0.00024292444832019235,-2.308504269233826e-06
-0.015194670899084765,-0.0002504612673579095,-2.4318506981533516e-06
-0.015427332869248828,-0.00025811676829999293,-2.558995207067827e-06
-0.015647403230831164,-0.00026588545232501294,-2.6899957622240785e-06
-0.015852114132902242,-0.0002737603316659463,-2.824907208221818e-06
-0.01603916104927854,-0.00028173315046149146,-2.9637805787536776e-06
-0.01620671634860157,-0.00028979461981096146,-3.106662521321791e-06
-0.01635341854655283,-0.00029793465353475005,-3.253594839658219e-06
-0.01647834531321851,-0.0003061425944996929,-3.4046141516668294e-06
-0.016580979122287523,-0.0003144074256085694,-3.559751656693895e-06
-0.0166611737360141,-0.0003227179638231448,-3.7190330040518238e-06
-0.016719127579843087,-0.0003310630391521091,-3.882478254795637e-06
-0.016755366676653522,-0.00033943166271623325,-4.050101930262723e-06
-0.016770736210951525,-0.0003478131884381345,-4.221913143051315e-06
-0.016766396923969265,-0.0003561974717218647,-4.397915808091315e-06
-0.01674382054313493,-0.00036457502608864075,-4.578108932543941e-06
-0.016704777580130423,-0.00037293717561945707,-4.762486982970965e-06
-0.016651311747424433,-0.0003812761979513458,-4.951040326363666e-06
-0.016585697651168768,-0.0003895854503009941,-5.14375573842675e-06
-0.016510380770060947,-0.0003978594699063015,-5.340616968478574e-06
-0.016427899988060178,-0.0004060940400958318,-5.541605345979108e-06
-0.016340793779721297,-0.0004142862135377772,-5.7467004093875104e-06
-0.016251492742841628,-0.0004224342851684179,-5.955880534064059e-06
-0.01616220348754966,-0.00043053770922601574,-6.169123532662668e-06
-0.01607479072711763,-0.0004385969577796826,-6.386407199414092e-06
-0.015990664940616593,-0.0004466133216966161,-6.607709769283167e-06
-0.015910682412746062,-0.0004545886585349568,-6.83301026434106e-06
-0.015835063361684585,-0.00046252509497856444,-7.06228870271944e-06
-0.01576333245847055,-0.00047042469393360323,-7.295526149947482e-06
-0.015694284363344913,-0.0004782890981390571,-7.5327045979656476e-06
-0.015625975083200724,-0.00048611916300069354,-7.773806663250586e-06
-0.015555738132018734,-0.0004939145913044984,-8.018815101826884e-06
-0.01548022289414564,-0.0005016735815610396,-8.267712145043267e-06
-0.015395451538433802,-0.0005093925001691844,-8.520478665475823e-06
-0.015296890208499466,-0.0005170655856059177,-8.777093186919599e-06
-0.0151795299127093,-0.00052468469063622,-9.037530755980134e-06
-0.015037973349748927,-0.0005322390664518345,-9.301761695252147e-06
-0.01486652671312019,-0.0005397151914675517,-9.569750259731994e-06
-0.014659299585149296,-0.0005470966480421192,-9.841453219609411e-06
-0.014410319285608719,-0.0005543640527598087,-1.0116818394809892e-05
-0.014113666854278145,-0.0005614950492947804,-1.039578317032354e-05
-0.013763639915763863,-0.0005684643759872909,-1.0678273026644057e-05
-0.01335494362175056,-0.0005752440218716694,-1.0964200126108797e-05
-0.012882905589130293,-0.0005818034841743897,-1.1253462002620311e-05
-0.01234370508799894,-0.000588110136843672,-1.1545940407874826e-05
-0.011734601738652114,-0.0005941297135503348,-1.1841500370473327e-05
-0.011054146497793857,-0.0005998269006094463,-1.2139989524013273e-05
-0.010302359544913119,-0.0006051660271201231,-1.2441237755945665e-05
-0.009480865308799716,-0.0006101118333335512,-1.2745057221059084e-05
-0.00859298117119082,-0.0006146302949535489,-1.3051242753130859e-05
-0.007643760413856339,-0.0006186894803498107,-1.3359572696956698e-05
-0.0066399912923403425,-0.0006222604182763599,-1.366981017161324e-05
-0.005590154005618331,-0.0006253179546008496,-1.3981704764832543e-05
-0.0045043369583276744,-0.0006278415773418361,-1.4294994647818214e-05
-0.0033941135046310204,-0.0006298161899575758,-1.4609409089643068e-05
-0.002272380337269137,-0.0006312328134180508,-1.4924671340486974e-05
-0.0011531589556576115,-0.0006320891982412825,-1.5240501843401807e-05
-5.136218627152226e-05,-0.0006323903285267647,-1.555662172509382e-05
0.0010174723899485025,-0.0006321488009758455,-1.587275650746947e-05
0.0020374816957820408,-0.0006313850624544128,-1.6188639973327036e-05
0.0029928097370351746,-0.0006301274895962085,-1.650401811133969e-05
0.0038679720399819183,-0.0006284122941519542,-1.681865305727673e-05
0.004648244975790483,-0.000626283239898011,-1.713232694078922e-05
0.005320066471714729,-0.0006237911620361347,-1.744484554127276e-05
0.005871429878982143,-0.0006209932879484605,-1.775604165376891e-05
0.006292251809281946,-0.0006179523675263945,-1.8065778067637623e-05
0.006574697777512818,-0.0006147356301296958,-1.8373950067051644e-05
0.006713454286648569,-0.0006114135921136554,-1.868048737261248e-05
0.0067059395308612475,-0.000608058743659278,-1.8985355456555712e-05
0.0065524460480930755,-0.0006047441472645395,-1.9288556179286666e-05
0.00625620867850982,-0.0006015419835828888,-1.9590127711998522e-05
0.005823392008984685,-0.0005985220834110152,-1.9890143728746997e-05
0.005262994090603091,-0.0005957504868861183,-2.018871187132128e-05
0.004586667053879506,-0.0005932880715999976,-2.048597151094281e-05
0.003808458961004013,-0.0005911892900962767,-2.0782090851366877e-05
0.0029444842560157427,-0.0005895010542920218,-2.1077263437463953e-05
0.0020125331346639193,-0.0005882617999443519,-2.1371704151023045e-05
0.001031633619371524,-0.0005875007582558431,-2.1665644790573094e-05
2.1583548703356707e-05,-0.0005872374539638244,-2.195932934362801e-05
-0.0009975283549726681,-0.0005874814401653918,-2.2253009067160314e-05
-0.0020057939149777278,-0.0005882322707328794,-2.254693749488488e-05
-0.0029839340612795766,-0.0005894797027269438,-2.2841365488249837e-05
-0.003913712540723046,-0.0005912041143774444,-2.3136536442525936e-05
-0.004778305082372551,-0.0005933771187832183,-2.34326817508161e-05
-0.005562616420793739,-0.0005959623491590099,-2.373001661780166e-05
-0.006253541368491416,-0.0005989163886063312,-2.4028736302242993e-05
-0.0068401716225763055,-0.0006021898168540981,-2.43290128536081e-05
-0.007313954552295781,-0.0006057283483978161,-2.463099239492108e-05
-0.007668810928294325,-0.0006094740397679636,-2.4934792991962523e-05
-0.007901215136539522,-0.000613366546284172,-2.5240503138475557e-05
-0.008010236288496307,-0.000617344409140431,-2.5548180877331708e-05
-0.007997534515385964,-0.0006213463518414016,-2.5857853567577167e-05
-0.007867304966302812,-0.0006253125617118237,-2.6169518295965475e-05
-0.007626162733436473,-0.0006291859286367585,-2.648314291855262e-05
-0.0072829647306363494,-0.0006329132105027767,-2.6798667703337505e-05
-0.006848569065217982,-0.0006364460939517403,-2.7116007529451135e-05
-0.0063355379718619724,-0.0006397421207110103,-2.7435054583116822e-05
-0.00575779533059675,-0.000642765454036625,-2.775568147680373e-05
-0.005130252399963126,-0.000645487465969265,-2.8077744706805204e-05
-0.00446841544808401,-0.0006478871329312769,-2.840108835653034e-05
-0.0037879879989978784,-0.0006499512337930474,-2.872554794821142e-05
-0.0031044798985497544,-0.0006516743507674343,-2.905095434435154e-05
-0.0024328354202945387,-0.0006530586795971454,-2.9377137601942685e-05
-0.0017870924823353647,-0.0006541136615728028,-2.970393068723517e-05
-0.0011800842921850679,-0.0006548554557664329,-3.003117296656998e-05
-0.000623193134737236,-0.0006553062751231635,-3.035871339929238e-05
-0.00012616321124147182,-0.0006554936142096582,-3.068641337162558e-05
0.00030302458073701657,-0.0006554493988672844,-3.101414912489482e-05
0.0006582174263696871,-0.0006552090883655076,-3.1341813746703014e-05
0.0009350997927043246,-0.0006548107590607391,-3.1669318708559575e-05
0.0011311532656686914,-0.0006542941957961458,-3.1996594947273796e-05
0.0012455729615771165,-0.0006537000142393343,-3.232359349978267e-05
0.0012791457951805457,-0.000653068834550145,-3.2650285711980036e-05
0.0012340956685763097,-0.0006524405241842057,-3.297666305166362e-05
0.0011139008301121617,-0.0006518535250595336,-3.3302736563974554e-05
0.000923089034910869,-0.0006513442775932778,-3.3628536014637756e-05
0.0006670168494311431,-0.0006509467511221922,-3.395410877181662e-05
0.00035164054158318776,-0.0006506920867744387,-3.427951848129078e-05
-1.6713222636317697e-05,-0.000650608354944702,-3.460484359172056e-05
-0.0004315690093013584,-0.0006507204255026864,-3.493017578683241e-05
-0.0008865096136498929,-0.0006510499451584242,-3.525561837949769e-05
-0.0013753613649454485,-0.000651615412903073,-3.558128471901306e-05
-0.001892349353997405,-0.0006524323405828087,-3.590729665738453e-05
-0.0024322136895693724,-0.0006535134813437003,-3.6233783112866156e-05
-0.0029902805773531663,-0.000654869104910431,-3.656087875942969e-05
-0.003562487861728222,-0.0006565072970202014,-3.6888722859912346e-05
-0.0041453706601650465,-0.0006584342616506747,-3.7217458249580066e-05
-0.004736015474489247,-0.0006606546081843383,-3.754723046703882e-05
-0.00533198999923611,-0.0006631716095527696,-3.78781870214731e-05
-0.00593125294865873,-0.0006659874202897434,-3.821047677893373e-05
-0.006532046344076372,-0.0006691032451129271,-3.85442494452844e-05
-0.007132773105380589,-0.0006725194499752914,-3.8879655119056454e-05
-0.007731864940928604,-0.0006762356094868687,-3.9216843883921996e-05
-0.00832764805852464,-0.000680250487736732,-3.95559654082279e-05
-0.008918215848571599,-0.0006845619537135062,-3.9897168518590454e-05
-0.009501317825485224,-0.0006891668371320203,-4.024060071630184e-05
-0.010074273275412365,-0.0006940607349072448,-4.0586407609311654e-05
-0.010633917357153,-0.0006992377825653861,-4.093473223867981e-05
-0.011176586961200973,-0.0007046904086449746,-4.12857142864824e-05
-0.011698152089049604,-0.0007104090934075373,-4.163948916199553e-05
-0.012194094929115867,-0.0007163821551620787,-4.199618697413793e-05
-0.012659634227829243,-0.0007225955874513149,-4.235593140979128e-05
-0.013089888574799546,-0.0007290329681519721,-4.27188385486921e-05
-0.01348006910651224,-0.0007356754575723,-4.3085015655123165e-05
-0.013825689584322044,-0.0007425018972450086,-4.3454559993827494e-05
-0.014122780043526009,-0.0007494890146519706,-4.382755772180174e-05
-0.014368089429306287,-0.0007566117320201787,-4.4204082908469775e-05
-0.01455926265897636,-0.0007638435700422494,-4.4584196733985384e-05
-0.014694978221660096,-0.0007711571302624085,-4.496794690906155e-05
-0.014775033654131653,-0.0007785246332313564,-4.535536734993499e-05
-0.014800368377458148,-0.0007859184837392539,-4.574647812917765e-05
-0.014773017508218137,-0.000793311830210673,-4.614128570766513e-05
-0.014695996715066864,-0.0008006790837664943,-4.653978343615942e-05
-0.014573125431296371,-0.000807996364303085,-4.6941952298176815e-05
-0.014408801643089058,-0.0008152418460716814,-4.7347761850770505e-05
-0.014207745156698544,-0.0008223959827716284,-4.7757171307981334e-05
-0.013974728033102062,-0.0008294416010690785,-4.8170130703941513e-05
-0.013714311363317326,-0.0008363638609181833,-4.858658206943833e-05
-0.013430606936226462,-0.0008431500904930693,-4.900646055729114e-05
-0.013127080269170789,-0.0008497895122944186,-4.9429695457988016e-05
-0.012806407375776992,-0.0008562728842056556,-4.9856211057113035e-05
-0.012470391325725952,-0.0008625920838810313,-5.0285927299134706e-05
-0.012119936850606286,-0.0008687396659251143,-5.071876023658624e-05
-0.011755074061597254,-0.0008747084186531652,-5.115462225773081e-05
-0.011375018341337846,-0.000880490941753899,-5.1593422097832576e-05
-0.010978253841334253,-0.000886079259799567,-5.2035064648220946e-05
-0.01056263177428799,-0.0008914644812034725,-5.247945058347171e-05
-0.010125479617460817,-0.0008966365090514097,-5.292647583103543e-05
-0.009663721547953205,-0.0009015838093427631,-5.3376030910633975e-05
-0.009174013428612727,-0.0009062932430869046,-5.382800017374139e-05
-0.008652897781351856,-0.0009107499708893958,-5.428226097723547e-05
-0.008096984904880722,-0.0009149374415609539,-5.4738682830348054e-05
-0.007503164137071983,-0.0009188374788214421,-5.519712656044365e-05
-0.00686884348738471,-0.0009224304807275562,-5.5657443550330903e-05
-0.006192207778116514,-0.0009256957435439315,-5.611947510639878e-05
-0.0054724781586878365,-0.0009286119150281327,-5.6583052021041795e-05
-0.004710152608551205,-0.0009311575727199424,-5.704799439297881e-05
-0.003907208781180035,-0.0009333119130673752,-5.751411176442564e-05
-0.0030672550806085087,-0.0009350555290328224,-5.798120362495069e-05
-0.002195619748165836,-0.000936371247740016,-5.8449060319143895e-05
-0.0012993694347363108,-0.0009372449950357415,-5.891746437983783e-05
-0.0003872497778797096,-0.0009376666498388955,-5.938619229105649e-05
0.0005304567182107807,-0.0009376308481038127,-5.9855016665542165e-05
0.0014421549117984793,-0.0009371376951963105,-6.0323708801367194e-05
0.0023352358158903715,-0.0009361933475143882,-6.0792041562044865e-05
0.0031964354307436734,-0.0009348104297027297,-6.125979250634915e-05
0.00401223423255892,-0.000933008262286904,-6.172674717934656e-05
0.004769276677173098,-0.0009308128845594711,-6.219270246605816e-05
0.005454791711603432,-0.000928256867462277,-6.26574699040636e-05
0.006056997441778022,-0.0009253789201739315,-6.312087885097265e-05
0.006565474353454999,-0.0009222233022251233,-6.35827794065724e-05
0.006971492642341014,-0.0009188390604761743,-6.404304499724773e-05
0.007268281570397337,-0.0009152791169229897,-6.450157454159752e-05
0.007451232024813569,-0.000911599238524187,-6.495829413045931e-05
0.007518026565658435,-0.000907856923876569,-6.54131581710595e-05
0.007468694496369418,-0.000904110243611062,-6.58661499629314e-05
0.007305593953811193,-0.0009004166714985168,-6.63172816917088e-05
0.00703332829483798,-0.0008968319409363545,-6.676659384481752e-05
0.006658608212412581,-0.0008934089568095419,-6.7214154069254e-05
0.00619007244320163,-0.0008901967866456384,-6.76600555051178e-05
0.00563807829688921,-0.0008872397489606157,-6.810441463901936e-05
0.005014469234609903,-0.0008845766120777409,-6.854736872927895e-05
0.0043323219687322456,-0.0008822399142769053,-6.898907286086762e-05
0.003605672541614461,-0.0008802554156493186,-6.942969669334917e-05
0.002849221796813,-0.0008786416920647117,-6.986942097027768e-05
0.0020780253522251772,-0.0008774098802774522,-7.030843386336322e-05
0.0013071782264854287,-0.0008765635793827745,-7.074692722827828e-05
0.0005515060164522159,-0.0008760989083220402,-7.118509285020448e-05
-0.00017472737010638286,-0.0008760047136604536,-7.162311875570011e-05
-0.0008580886238649176,-0.0008762629176589465,-7.206118566352996e-05
-0.001486216607788168,-0.0008768489939668597,-7.249946364143641e-05
-0.002048034885979625,-0.0008777325568403017,-7.29381090291382e-05
-0.002533935140700906,-0.0008788780493469719,-7.337726168068501e-05
-0.0029359323254034863,-0.0008802455162134979,-7.381704257207513e-05
-0.0032477928394284566,-0.000881791447504706,-7.425755181300468e-05
-0.0034651367679698745,-0.0008834696799065555,-7.46988670948575e-05
-0.003585513356709078,-0.0008852323424377253,-7.514104260044356e-05
-0.003608445116958855,-0.0008870308320561423,-7.558410839406702e-05
-0.0035354321332263074,-0.0008888168013686886,-7.602807030242324e-05
-0.0033699074606631037,-0.0008905431362671609,-7.64729102868322e-05
-0.0031171384647434948,-0.0008921648977485126,-7.691858729533611e-05
-0.0027840755430035592,-0.0008936402012504493,-7.736503857008585e-05
-0.00237915544680622,-0.0008949310089979017,-7.781218137264793e-05
-0.001912069684478063,-0.0008960038152807227,-7.825991507871759e-05
-0.0013935092530978728,-0.0008968302100151168,-7.870812358504155e-05
-0.0008348954947244104,-0.0008973873112020724,-7.915667796534585e-05
-0.00024810405077204956,-0.0008976580610884465,-7.960543930841848e-05
0.0003548133237246491,-0.0008976313837702084,-8.005426166963315e-05
0.0009619042301726601,-0.0008973022043817341,-8.050299506667113e-05
0.0015615813942672775,-0.0008966713329756241,-8.095148845101048e-05
0.0021428694662913687,-0.0008957452202604844,-8.13995925893195e-05
0.0026956228751559624,-0.0008945355971751226,-8.18471627936784e-05
0.0032107059807129266,-0.0008930590149611554,-8.229406144671247e-05
0.0036801294969671583,-0.0008913363060917355,-8.274016027697569e-05
0.004097141037986422,-0.0008893919884579971,-8.318534235061312e-05
0.0044562720242440285,-0.0008872536351924395,-8.362950375652573e-05
0.004753346702642677,-0.0008849512305107179,-8.407255497295152e-05
0.004985460360411101,-0.0008825165287449544,-8.451442191276544e-05
0.0051509327067137435,-0.0008799824304781731,-8.495504665257121e-05
0.005249240202592177,-0.0008773823872508466,-8.539438785700346e-05
0.0052809303221662265,-0.0008747498446196571,-8.583242091497109e-05
0.005247522449084,-0.0008721177314268445,-8.626913780898271e-05
0.005151402048973853,-0.00086951800030233,-8.670454674191501e-05
0.004995713587942206,-0.000866981221393101,-8.713867154733886e-05
0.004784253434273248,-0.0008645362296375471,-8.757155091009652e-05
0.00452136043125014,-0.0008622098261711663,-8.80032374240487e-05
0.0042118024271236365,-0.0008600265354565728,-8.843379651445564e-05
0.0038606614113483794,-0.0008580084194969548,-8.886330525319403e-05
0.0034732241470424737,-0.0008561749481073571,-8.92918510950951e-05
0.003054885726236016,-0.0008545429206390375,-8.97195305622817e-05
0.002611070244643967,-0.0008531264316463175,-9.014644790035304e-05
0.0021471683620063035,-0.000851936871994655,-9.057271372626328e-05
