frame_number,force
0,543.7654360366028
1,543.7694332484084
2,543.7735115881864
3,543.7776096710647
4,543.7816679050028
5,543.7856287683221
6,543.7894370695519
7,543.7930401916726
8,543.7963883219734
9,543.7994346678445
10,543.8021356583848
11,543.8044511315359
12,543.8063445060296
13,543.8077829366706
14,543.8087374507529
15,543.8091830631406
16,543.8090988677853
17,543.8084681041397
18,543.8072781979583
19,543.8055207772717
20,543.8031916655904
21,543.8002908552154
22,543.7968224636802
23,543.7927946760309
24,543.7882196751664
25,543.7831135617861
26,543.7774962644785
27,543.7713914392615
28,543.7648263568484
29,543.7578317754026
30,543.7504417966654
31,543.7426937039013
32,543.734627780763
33,543.7262871108193
34,543.7177173582193
35,543.7089665308881
36,543.7000847285298
37,543.6911238781598
38,543.6821374597616
39,543.6731802243189
40,543.6643079063549
41,543.6555769331763
42,543.6470441330513
43,543.6387664444812
44,543.630800628669
45,543.6232029871568
46,543.6160290862102
47,543.6093334888326
48,543.6031694945626
49,543.5975888867467
50,543.5926416868141
51,543.5883759151712
52,543.5848373586571
53,543.5820693450265
54,543.5801125254936
55,543.5790046668076
56,543.5787804546312
57,543.579471310105
58,543.581105221298
59,543.5837065908235
60,543.5872961004778
61,543.591890593534
62,543.5975029751535
63,543.6041421310973
64,543.6118128645134
65,543.6205158502487
66,543.6302476060267
67,543.6410004798954
68,543.6527626535034
69,543.6655181609636
70,543.679246923298
71,543.6939247987128
72,543.7095236492
73,543.7260114241577
74,543.7433522618189
75,543.7615066092942
76,543.7804313619852
77,543.8000800228758
78,543.8204028816189
79,543.8413472125212
80,543.862857489841
81,543.8848756185066
82,543.9073411785068
83,543.9301916816808
84,543.9533628403104
85,543.9767888476504
86,544.0004026711433
87,544.0241363592775
88,544.0479213625356
89,544.0716888677595
90,544.0953701440333
91,544.1188968973541
92,544.1422016309958
93,544.1652180083652
94,544.1878812151176
95,544.2101283172705
96,544.2318986120291
97,544.2531339680107
98,544.2737791515123
99,544.2937821355887
100,544.313094389086
101,544.331671143133
102,544.3494716324825
103,544.3664593084537
104,544.382602019468
105,544.3978721547414
106,544.4122467469275
107,544.4257075304148
108,544.4382409532172
109,544.449838141432
110,544.4604948158947
111,544.4702111611336
112,544.4789916473212
113,544.4868448067962
114,544.493782967794
115,544.4998219490287
116,544.5049807196333
117,544.5092810297683
118,544.512747018053
119,544.5154048027503
120,544.5172820641176
121,544.5184076253087
122,544.5188110387363
123,544.5185221842137
124,544.51757088472
125,544.5159865451258
126,544.5137978183691
127,544.5110323023906
128,544.5077162700512
129,544.5038744337639
130,544.499529746722
131,544.4947032430027
132,544.4894139190334
133,544.4836786587089
134,544.4775122038301
135,544.4709271705706
136,544.4639341114374
137,544.4565416207995
138,544.448756480776
139,544.4405838434175
140,544.4320274447059
141,544.4230898456979
142,544.4137726959069
143,544.404077013751
144,544.3940034786962
145,544.3835527296856
146,544.3727256645956
147,544.3615237358564
148,544.34994923803
149,544.3380055838968
150,544.3256975662408
151,544.3130316028719
152,544.3000159625443
153,544.2866609695203
154,544.2729791847236
155,544.258985561717
156,544.2446975760797
157,544.2301353271698
158,544.2153216117551
159,544.2002819694345
160,544.1850447000402
161,544.1696408533825
162,544.1541041920336
163,544.1384711283831
164,544.1227806375837
165,544.1070741478628
166,544.0913954089881
167,544.0757903389575
168,544.0603068487817
169,544.044994645654
170,544.0299050154995
171,544.0150905864023
172,544.0006050745282
173,543.9865030139597
174,543.9728394715853
175,543.9596697480346
176,543.9470490657268
177,543.9350322453145
178,543.9236733719745
179,543.9130254531046
180,543.9031400692487
181,543.8940670206549
182,543.8858539725938
183,543.8785461031654
184,543.8721857577601
185,543.8668121146671
186,543.8624608664935
187,543.8591639220556
188,543.8569491332485
189,543.8558400511209
190,543.8558557150019
191,543.8570104779795
192,543.859313871151
193,543.8627705077868
194,543.8673800271484
195,543.8731370765057
196,543.8800313290733
197,543.8880475350784
198,543.8971656028772
199,543.9073607069259
200,543.9186034195534
201,543.9308598639564
202,543.9440918866886
203,543.9582572490102
204,543.9733098374677
205,543.9891998945616
206,544.005874270125
207,544.0232766932527
208,544.0413480636466
209,544.0600267604005
210,544.0792489656009
211,544.0989489996347
212,544.1190596648422
213,544.1395125943845
214,544.1602386040321
215,544.1811680458113
216,544.2022311635534
217,544.223358450848
218,544.2444810115569
219,544.265530922248
220,544.2864415952481
221,544.3071481407353
222,544.3275877261452
223,544.3476999307651
224,544.3674270926006
225,544.3867146435732
226,544.4055114281057
227,544.4237699995352
228,544.4414468888086
229,544.4585028404343
230,544.4749030113079
231,544.4906171285462
232,544.5056196029996
233,544.5198895958612
234,544.5334110367173
235,544.5461725922867
236,544.5581675860382
237,544.5693938700189
238,544.5798536514963
239,544.589553278099
240,544.5985029857484
241,544.6067166137586
242,544.6142112911448
243,544.6210070976889
244,544.6271267030637
245,544.632594987685
246,544.637438649899
247,544.6416858050595
248,544.6453655824006
249,544.648507725306
250,544.6511422000087
251,544.6532988171938
252,544.6550068704585
253,544.6562947951206
254,544.6571898504807
255,544.6577178282893
256,544.6579027899027
257,544.6577668345689
258,544.6573299015428
259,544.6566096089687
260,544.6556211321758
261,544.6543771229678
262,544.6528876699887
263,544.6511602988868
264,544.6492000100625
265,544.6470093512789
266,544.6445885222998
267,544.6419355088511
268,544.6390462432681
269,544.6359147889068
270,544.6325335448188
271,544.6288934666215
272,544.6249842992243
273,544.6207948171658
274,544.6163130686969
275,544.6115266203508
276,544.606422799479
277,544.6009889328502
278,544.5952125797105
279,544.5890817576256
280,544.5825851592049
281,544.5757123578315
282,544.5684540009944
283,544.5608019903287
284,544.5527496474988
285,544.544291864576
286,544.5354252372086
287,544.526148179208
288,544.5164610181307
289,544.5063660723605
290,544.4958677105028
291,544.4849723935872
292,544.4736887000414
293,544.4620273329967
294,544.4500011092791
295,544.437624929481
296,544.4249157289019
297,544.4118924097498
298,544.398575755437
299,544.3849883279514
300,544.3711543494722
301,544.3570995698622
302,544.3428511221958
303,544.3284373687735
304,544.3138877402278
305,544.2992325705653
306,544.2845029311281
307,544.2697304661299
308,544.2549472315283
309,544.2401855378412
310,544.2254777964666
311,544.2108563683952
312,544.196353414061
313,544.1820007434121
314,544.167829665836
315,544.1538708400558
316,544.1401541243744
317,544.1267084277848
318,544.1135615625603
319,544.100740098966
320,544.088269222692
321,544.0761725956302
322,544.0644722207676
323,544.0531883122347
324,544.0423391719308
325,544.0319410747665
326,544.0220081653539
327,544.012552369586
328,544.0035833245228
329,543.9951083292553
330,543.9871323183079
331,543.9796578580604
332,543.9726851658355
333,543.9662121507308
334,543.9602344750139
335,543.954745634909
336,543.9497370598461
337,543.9451982296134
338,543.9411168091875
339,543.937478801062
340,543.9342687145247
341,543.9314697506254
342,543.9290640008035
343,543.9270326566399
344,543.9253562280144
345,543.9240147669507
346,543.9229880944304
347,543.9222560274532
348,543.9217986038399
349,543.9215963028505
350,543.9216302605664
351,543.9218824799184
352,543.922336035808
353,543.9229752756404
354,543.9237860148972
355,543.9247557266777
356,543.925873723904
357,543.9271313331341
358,543.9285220593347
359,543.9300417413505
360,543.9316886981899
361,543.9334638665232
362,543.9353709296269
363,543.9374164372665
364,543.9396099149616
365,543.9419639601497
366,543.9444943222
367,543.9472199629423
368,543.9501630942052
369,543.953349188707
370,543.9568069606144
371,543.9605683123319
372,543.9646682448118
373,543.9691447298922
374,543.9740385445454
375,543.9793930679685
376,543.9852540431134
377,543.9916693049322
378,543.9986884785176
379,544.0063626511484
380,544.0147440227613
381,544.0238855396708
382,544.0338405165753
383,544.0446622517768
384,544.0564036398503
385,544.0691167849151
386,544.0828526167354
387,544.0976605113627
388,544.1135879176941
389,544.1306799909459
390,544.1489792337743
391,544.1685251458182
392,544.1893538828759
393,544.2114979277941
394,544.2349857762395
395,544.2598416413643
396,544.2860851816314
397,544.3137312558088
398,544.3427897085968
399,544.3732651896507
400,544.4051570080965
401,544.4384590242577
402,544.4731595802192
403,544.5092414707432
404,544.5466819556026
405,544.5854528135029
406,544.6255204364837
407,544.6668459622966
408,544.7093854410987
409,544.7530900320702
410,544.7979062251551
411,544.8437760828454
412,544.8906374967927
413,544.9384244541607
414,544.9870673090843
415,545.0364930552702
416,545.0866255964363
417,545.137386011853
418,545.1886928149079
419,545.240462203686
420,545.2926083039769
421,545.3450434064382
422,545.3976782004579
423,545.4504220073786
424,545.503183015137
425,545.5558685151001
426,545.6083851402748
427,545.6606391026628
428,545.7125364268326
429,545.7639831769237
430,545.8148856750377
431,545.865150709831
432,545.9146857348879
433,545.9633990571629
434,546.011200016486
435,546.0579991575756
436,546.103708396028
437,546.1482411795384
438,546.1915126454791
439,546.233439775943
440,546.2739415512019
441,546.3129391020209
442,546.3503558605429
443,546.3861177087244
444,546.4201531227927
445,546.4523933120763
446,546.4827723508706
447,546.5112273025317
448,546.5376983354345
449,546.5621288306191
450,546.5844654810384
451,546.604658382575
452,546.6226611174887
453,546.638430831544
454,546.6519283065479
455,546.6631180301321
456,546.671968264279
457,546.6784511135222
458,546.6825425932852
459,546.6842226985372
460,546.6834754726171
461,546.6802890756676
462,546.6746558518139
463,546.6665723942061
464,546.6560396072033
465,546.6430627650763
466,546.6276515664033
467,546.609820182885
468,546.5895873008313
469,546.5669761533251
470,546.5420145411828
471,546.514734841409
472,546.4851740027773
473,546.4533735290764
474,546.419379450911
475,546.3832422866526
476,546.345016992604
477,546.3047629019817
478,546.2625436518333
479,546.2184270964558
480,546.1724852056614
481,546.1247939466966
482,546.0754331495601
483,546.0244863562709
484,545.9720406547941
485,545.9181864977238
486,545.8630175048432
487,545.806630247921
488,545.7491240159068
489,545.6906005589839
490,545.6311638105926
491,545.5709195875611
492,545.509975269719
493,545.4484394614411
494,545.3864216382466
495,545.3240317819757
496,545.2613800083002
497,545.1985761904211
498,545.1357295826746
499,545.0729484472481
500,545.0103396863146
501,544.9480084809958
502,544.8860579381834
503,544.8245887463812
504,544.7636988419393
505,544.703483087101
506,544.644032961412
507,544.5854362683903
508,544.527776859544
509,544.4711343774286
510,544.4155840185996
511,544.3611963166119
512,544.3080369449102
513,544.2561665394223
514,544.2056405407421
515,544.1565090559817
516,544.1088167407358
517,544.062602702088
518,544.0179004239766
519,543.9747377162666
520,543.9331366883487
521,543.8931137470463
522,543.8546796173154
523,543.8178393830459
524,543.7825925446493
525,543.7489330901938
526,543.7168495775019
527,543.6863252255009
528,543.6573380138641
529,543.6298607903826
530,543.603861385565
531,543.5793027338916
532,543.5561430012998
533,543.534335719051
534,543.5138299250422
535,543.4945703145056
536,543.4764974026002
537,543.4595477015708
538,543.4436539150387
539,543.4287451516794
540,543.4147471600872
541,543.4015825860222
542,543.3891712525188
543,543.3774304625829
544,543.3662753236309
545,543.3556190926344
546,543.3453735410064
547,543.3354493383048
548,543.3257564534405
549,543.3162045712455
550,543.3067035212098
551,543.2971637143282
552,543.2874965834739
553,543.27761502253
554,543.2674338196293
555,543.2568700802304
556,543.2458436363729
557,543.2342774392836
558,543.2220979335239
559,543.2092354117907
560,543.1956243498479
561,543.1812037207775
562,543.1659172872675
563,543.149713870515
564,543.1325475945881
565,543.114378105454
566,543.0951707640428
567,543.0748968126237
568,543.0535335136626
569,543.0310642604269
570,543.0074786589248
571,542.9827725812681
572,542.9569481911572
573,542.9300139427396
574,542.9019845544126
575,542.8728809591906
576,542.842730233143
577,542.8115655031689
578,542.7794258350641
579,542.7463561024579
580,542.7124068368507
581,542.6776340586903
582,542.642099089252
583,542.6058683431281
584,542.5690131014072
585,542.5316092659763
586,542.4937370954523
587,542.4554809229576
588,542.4169288554592
589,542.3781724540603
590,542.3393063945933
591,542.3004281079875
592,542.2616373999143
593,542.2230360491341
594,542.1847273839577
595,542.1468158365398
596,542.1094064754221
597,542.072604517711
598,542.0365148232413
599,542.0012413740051
600,541.9668867431488
601,541.9335515589563
602,541.9013339701659
603,541.8703291194072
604,541.8406286313898
605,541.8123201218677
606,541.7854867325462
607,541.7602066961005
608,541.7365529344852
609,541.7145926929938
610,541.6943872122507
611,541.6759914403402
612,541.6594537872171
613,541.6448159232239
614,541.6321126231214
615,541.6213716567136
616,541.6126137268553
617,541.6058524552313
618,541.6010944157651
619,541.5983392149006
620,541.5975796172913
621,541.5988017147253
622,541.6019851354781
623,541.6071032906697
624,541.6141236535284
625,541.6230080668604
626,541.6337130736065
627,541.6461902651776
628,541.6603866422408
629,541.6762449828196
630,541.6937042130613
631,541.7126997768845
632,541.7331640018292
633,541.7550264594986
634,541.7782143197063
635,541.8026526978458
636,541.8282649954351
637,541.8549732344887
638,541.882698387115
639,541.9113607019729
640,541.9408800286858
641,541.9711761403365
642,542.0021690532516
643,542.0337793425966
644,542.0659284517774
645,542.0985389933485
646,542.1315350391384
647,542.1648423974973
648,542.1983888759263
649,542.232104527963
650,542.2659218840406
651,542.2997761667716
652,542.3336054914621
653,542.3673510526504
654,542.4009572972062
655,542.4343720841161
656,542.4675468305817
657,542.5004366436048
658,542.5330004360259
659,542.5652010260422
660,542.5970052193213
661,542.6283838726674
662,542.6593119377953
663,542.6897684833399
664,542.7197366930112
665,542.7492038379236
666,542.778161221595
667,542.8066040969164
668,542.8345315555333
669,542.861946391463
670,542.8888549420358
671,542.9152669099941
672,542.9411951706862
673,542.9666555679562
674,542.9916667018106
675,543.0162497103298
676,543.0404280475923
677,543.0642272587279
678,543.0876747528226
679,543.110799574338
680,543.1336321738688
681,543.1562041792696
682,543.1785481682723
683,543.2006974436806
684,543.2226858121866
685,543.2445473679459
686,543.266316282204
687,543.2880266003705
688,543.3097120479565
689,543.3314058467753
690,543.3531405427256
691,543.3749478462624
692,543.3968584862619
693,543.4189020775254
694,543.4411070018458
695,543.4635003024466
696,543.4861075916571
697,543.5089529717809
698,543.5320589692745
699,543.5554464825393
700,543.5791347437457
701,543.6031412949527
702,543.6274819782731
703,543.6521709392066
704,543.677220641863
705,543.7026418946097
706,543.7284438843532
707,543.7546342171124
708,543.7812189621999
709,543.8082026976251
710,543.835588555199
711,543.8633782647967
712,543.8915721979503
713,543.9201694113473
714,543.9491676910234
715,543.9785635981293
716,544.0083525169846
717,544.0385287055961
718,544.0690853480573
719,544.1000146077145
720,544.1313076800427
721,544.1629548446984
722,544.1949455168385
723,544.2272682982144
724,544.2599110285615
725,544.2928608373433
726,544.3261041951239
727,544.3596269630447
728,544.3934144382561
729,544.4274513927905
730,544.461722103288
731,544.4962103691971
732,544.5308995174471
733,544.565772391987
734,544.600811326991
735,544.635998103136
736,544.6713138874312
737,544.706739158568
738,544.7422536211567
739,544.7778361129347
740,544.8134645089486
741,544.8491156262626
742,544.8847651324998
743,544.9203874616868
744,544.9559557411053
745,544.9914417326528
746,545.0268157913665
747,545.0620468425926
748,545.0971023783488
749,545.1319484730222
750,545.1665498185504
751,545.2008697793865
752,545.2348704677582
753,545.2685128400745
754,545.3017568158202
755,545.3345614205286
756,545.3668849538678
757,545.398685182377
758,545.4299195545797
759,545.4605454349327
760,545.490520352619
761,545.5198022611961
762,545.5483498051465
763,545.5761225893975
764,545.6030814479966
765,545.6291887083503
766,545.6544084476277
767,545.6787067380856
768,545.7020518784132
769,545.7244146089328
770,545.7457683094441
771,545.7660891791594
772,545.7853563981834
773,545.8035522694418
774,545.8206623393056
775,545.836675494924
776,545.851584036674
777,545.8653837248914
778,545.8780738007174
779,545.889656981393
780,545.9001394308655
781,545.9095307072007
782,545.9178436888004
783,545.9250944815153
784,545.9313023085373
785,545.9364893846871
786,545.9406807765354
787,545.9439042496826
788,545.9461901044359
789,545.9475710010272
790,545.9480817754954
791,545.9477592475452
792,545.9466420220816
793,545.9447702864437
794,545.9421856053796
795,545.9389307155678
796,545.9350493211043
797,545.9305858908773
798,545.9255854582142
799,545.9200934227272
800,545.914155353989
801,545.9078167964933
802,545.9011230753018
803,545.894119101898
804,545.8868491801403
805,545.8793568130029
806,545.8716845119696
807,545.8638736120621
808,545.8559640959713
809,545.8479944304447
810,545.8400014173145
811,545.8320200609309
812,545.8240834535396
813,545.8162226801214
814,545.8084667439867
815,545.8008425138925
816,545.7933746927657
817,545.7860858073991
818,545.778996217713
819,545.7721241434297
820,545.7654857055003
821,545.759094979607
822,545.7529640595508
823,545.7471031291531
824,545.7415205421322
825,545.7362229099313
826,545.7312151973978
827,545.7265008254958
828,545.7220817791626
829,545.7179587175577
830,545.714131083816
831,545.7105972120966
832,545.7073544307893
833,545.7043991616164
834,545.7017270146403
835,545.6993328788731
836,545.6972110076574
837,545.695355097738
838,545.6937583611276
839,545.692413589334
840,545.6913132099953
841,545.690449336198
842,545.6898138086453
843,545.6893982305417
844,545.6891939947568
845,545.6891923026817
846,545.6893841742784
847,545.689760449195
848,545.6903117793507
849,545.6910286139063
850,545.6919011777808
851,545.6929194447468
852,545.6940731058057
853,545.695351533374
854,545.6967437419348
855,545.6982383461562
856,545.6998235178435
857,545.7014869432192
858,545.7032157818109
859,545.70499662784
860,545.7068154746694
861,545.7086576825059
862,545.7105079489494
863,545.712350281125
864,545.7141679674047
865,545.715943546482
866,545.717658771775
867,545.7192945694334
868,545.7208309884593
869,545.7222471417998
870,545.7235211379771
871,545.7246300038693
872,545.7255496003859
873,545.7262545336949
874,545.7267180652482
875,545.7269120242186
876,545.726806726195
877,545.726370901952
878,545.7255716396834
879,545.7243743433232
880,545.7227427087328
881,545.7206387189549
882,545.7180226596707
883,545.7148531564419
884,545.7110872360074
885,545.7066804144982
886,545.7015868157191
887,545.6957593225256
888,545.6891497636898
889,545.6817091374975
890,545.6733878718909
891,545.6641361196153
892,545.6539040858288
893,545.6426423850614
894,545.6303024241248
895,545.6168368073687
896,545.6021997604531
897,545.5863475686515
898,545.5692390256587
899,545.550835888801
900,545.5311033362328
901,545.510010421105
902,545.4875305169078
903,545.4636417475019
904,545.4383273949921
905,545.411576278733
906,545.3833830993917
907,545.3537487430586
908,545.3226805416779
909,545.290192487246
910,545.2563053980602
911,545.2210470358028
912,545.1844521726669
913,545.1465626080826
914,545.107427134619
915,545.0671014521895
916,545.0256480291797
917,544.9831359091979
