frame_number,force
0,830.5075000000608
1,830.1023189070963
2,829.7195577557707
3,829.3791194799196
4,829.0962956386721
5,828.8804176347655
6,828.7344090024836
7,828.6552093887343
8,828.6348876191612
9,828.6621710296179
10,828.7240990685633
11,828.8075496273278
12,828.900463164326
13,828.9926765157328
14,829.0763578938986
15,829.1460998930651
16,829.1987719915107
17,829.2332493323672
18,829.2501182875961
19,829.2514198356126
20,829.2404454290412
21,829.2215663456744
22,829.200065208649
23,829.1819370374818
24,829.1736241692347
25,829.1816479841009
26,829.2121150327545
27,829.2701144084788
28,829.359076025378
29,829.4801965467711
30,829.6320380532275
31,829.8103725549785
32,830.0083097054497
33,830.2167142696576
34,830.424884546459
35,830.6214263057167
36,830.7952331555974
37,830.9364697946834
38,831.0374377022296
39,831.0931987002197
40,831.1018690288186
41,831.0645710146315
42,830.9851014608606
43,830.8694123594347
44,830.7249989728181
45,830.5602709448478
46,830.3839606717643
47,830.2046040315504
48,830.03010737327
49,829.867393729797
50,829.7221125670841
51,829.5984071117723
52,829.4987546180505
53,829.4239160073222
54,829.3730384670982
55,829.3439351932728
56,829.3335245834716
57,829.3383718815195
58,829.3552568954123
59,829.3816816994228
60,829.4162227164353
61,829.4586428866517
62,829.5097340616193
63,829.5709374344875
64,829.643843695653
65,829.7296815071477
66,829.8288773729755
67,829.9407381526497
68,830.0632856596241
69,830.1932618105184
70,830.3263096081477
71,830.4573089093876
72,830.5808154791711
73,830.6915368061565
74,830.784783904016
75,830.8568540375114
76,830.9053156922845
77,830.929181594319
78,830.9289647242547
79,830.9066140406678
80,830.8653285825178
81,830.8092633643785
82,830.7431720698172
83,830.6720650132321
84,830.6009657185217
85,830.534806954108
86,830.4784370352683
87,830.4366532788172
88,830.4141663892551
89,830.4154217741859
90,830.4442496716065
91,830.5033749421177
92,830.5938689439232
93,830.7146505844636
94,830.8621411863651
95,831.030161598665
96,831.2101419225457
97,831.3916930583196
98,831.5635464105873
99,831.714787005255
100,831.836201010531
101,831.9214790069881
102,831.9680110414123
103,831.977095645528
104,831.9535342856688
105,831.9047368742847
106,831.8395653826626
107,831.7671615143298
108,831.695948982503
109,831.6329062401782
110,831.5831155729329
111,831.5495445609301
112,831.5330120722263
113,831.5323090199439
114,831.5444598607655
115,831.565119835822
116,831.5891059331082
117,831.6110449868593
118,831.6260784883654
119,831.6305078929978
120,831.6222431329255
121,831.6009596719646
122,831.567951113244
123,831.525735413808
124,831.4775097903123
125,831.4265616381174
126,831.3757415823923
127,831.3270874275038
128,831.281649226764
129,831.2395140048236
130,831.1999837671083
131,831.1618380792962
132,831.1236128520419
133,831.0838416512801
134,831.0412300770413
135,830.994763515137
136,830.9437711826414
137,830.8879693551726
138,830.8274846875139
139,830.7628368449784
140,830.6948595921386
141,830.624560747026
142,830.5529517891925
143,830.4809048949638
144,830.4091000291162
145,830.3380938149344
146,830.2684898617819
147,830.2011480723102
148,830.1373538155951
149,830.0788732779303
150,830.0278450711214
151,829.986502230265
152,829.956777118069
153,829.939891433609
154,829.9360487276202
155,829.9443216104374
156,829.9627733718754
157,829.9887897933819
158,830.0195383236365
159,830.052439102905
160,830.0855376153563
161,830.1177073788557
162,830.14866667768
163,830.1788436692609
164,830.2091520923595
165,830.2407438250605
166,830.2747918879325
167,830.3123339399581
168,830.3541802345934
169,830.4008718378324
170,830.4526678238911
171,830.5095433138407
172,830.5711934714545
173,830.6370539586959
174,830.7063531403631
175,830.7782023267491
176,830.8517120308759
177,830.9261000728771
178,831.0007425864105
179,831.0751279454911
180,831.1487122005658
181,831.2207235692053
182,831.289990078629
183,831.354854780452
184,831.4132114070753
185,831.462657876114
186,831.5007331101378
187,831.5251820129029
188,831.5341969490001
189,831.5266146959871
190,831.5020841215976
191,831.4612271701014
192,831.4057813217911
193,831.3386634418537
194,831.2638777553884
195,831.1862239471004
196,831.1108222096575
197,831.042522003062
198,830.9852838914608
199,830.9416289506066
200,830.9122490535648
201,830.8958579346379
202,830.8893221328756
203,830.8880453316505
204,830.8865219384973
205,830.8789581468883
206,830.8598762114218
207,830.8246417749087
208,830.7698709641257
209,830.6936889728432
210,830.5958311202229
211,830.4776007264544
212,830.341720069011
213,830.1921224807237
214,830.0337293542943
215,829.8722358626852
216,829.713900431871
217,829.5653087771057
218,829.4330768300993
219,829.3234689181609
220,829.2419287853244
221,829.1925471029356
222,829.1775202138327
223,829.1966823214865
224,829.2472028378593
225,829.3235275284743
226,829.4176116889245
227,829.5194518598319
228,829.6178763763003
229,829.7015124690112
230,829.75981434535
231,829.7840205279172
232,829.7679233552973
233,829.708381551705
234,829.6055623378415
235,829.4629273748302
236,829.2869720669273
237,829.0867217791612
238,828.8730091185989
239,828.6575946679826
240,828.4522191171259
241,828.2676732815348
242,828.1129556925231
243,827.9945738260066
244,827.9160425448916
245,827.8776356354537
246,827.8764393741726
247,827.906731608817
248,827.9606685846863
249,828.0292125396858
250,828.1031818187349
251,828.1742652199955
252,828.2358411019317
253,828.2834974066739
254,828.3152380960859
255,828.3314309124166
256,828.3345659213807
257,828.3288705316384
258,828.3198106126179
259,828.3135216453072
260,828.3162362128015
261,828.3337700210272
262,828.3710938104008
263,828.4319825755344
264,828.5187286663062
265,828.6319335658626
266,828.7704209983666
267,828.9313069706409
268,829.1102233274253
269,829.3016528137005
270,829.4993191953016
271,829.6965872596553
272,829.8868542179495
273,830.063938471471
274,830.2224765166823
275,830.3583239722711
276,830.4689395857084
277,830.5537245438851
278,830.6142865332749
279,830.6545801938204
280,830.680840984488
281,830.7012111789204
282,830.7249970175532
283,830.7615984116645
284,830.8192713224545
285,830.9039592192322
286,831.0184305397064
287,831.1618876430603
288,831.3300993854552
289,831.5159930265597
290,831.7105561430657
291,831.9038669715462
292,832.086093999989
293,832.2483628335191
294,832.3834468121515
295,832.4862693641699
296,832.5542062348027
297,832.5871659894609
298,832.5874359864463
299,832.559317163882
300,832.5086136039425
301,832.4420602225239
302,832.3667532336334
303,832.289614409146
304,832.2169028733779
305,832.1537986819015
306,832.1041025778603
307,832.0700947484829
308,832.0525590277177
309,832.0509321023197
310,832.0635209179205
311,832.0877567244685
312,832.1204873727684
313,832.1583143600006
314,832.1979588692407
315,832.2366149066896
316,832.2722324517675
317,832.3036766382459
318,832.3307338176572
319,832.3539701705437
320,832.3744774232558
321,832.3935630522199
322,832.4124572479487
323,832.4320993898467
324,832.4530330600816
325,832.47540536619
326,832.4990425529508
327,832.523547899629
328,832.5483496800349
329,832.5726487272515
330,832.5952800904953
331,832.6145704738375
332,832.6282990914284
333,832.6338408454909
334,832.6285034261055
335,832.6099975689878
336,832.5769328172147
337,832.5292195824686
338,832.4682792447257
339,832.3970122566345
340,832.3195316154491
341,832.2407106940001
342,832.1656175965447
343,832.0989274077442
344,832.0444168733915
345,832.0046356576711
346,831.9808086407528
347,831.9729651204948
348,831.9802300771261
349,832.0011706661696
350,832.0340844332072
351,832.0771467472568
352,832.1283946857285
353,832.1855957178415
354,832.2461048651686
355,832.3068281179264
356,832.3643768489657
357,832.4154328002761
358,832.4572695346494
359,832.4883188388911
360,832.5086505775391
361,832.5202538690029
362,832.5270428420434
363,832.5345445649726
364,832.5492759912121
365,832.57789561723
366,832.6262935927498
367,832.6988094202272
368,832.7977215937054
369,832.9230673833803
370,833.0727658569207
371,833.2429607674342
372,833.4284841259467
373,833.6233647822876
374,833.8213462622834
375,834.0163990254377
376,834.2031980478605
377,834.3775055923835
378,834.5363860147573
379,834.6782062180508
380,834.802432935644
381,834.9092953109363
382,834.9994130677072
383,835.0734917883079
384,835.1321603584603
385,835.1759743007818
386,835.2055467713503
387,835.2217251755446
388,835.2257282342896
389,835.2191945731792
390,835.2041452496194
391,835.1828967754866
392,835.1579627102625
393,835.1319629659861
394,835.107540524939
395,835.0872738729341
396,835.0735695459681
397,835.0685194815685
398,835.0737116872755
399,835.0899972013771
400,835.1172461085038
401,835.1541566367122
402,835.198189548279
403,835.2456748803348
404,835.2920942848633
405,835.332504544012
406,835.3620459578544
407,835.3764642466566
408,835.3725627912121
409,835.3485037926101
410,835.3038982731673
411,835.2396635906118
412,835.1576801523354
413,835.0603318908466
414,834.9500435314658
415,834.8289228084936
416,834.69858487754
417,834.5601843665415
418,834.4146215660702
419,834.2628551124304
420,834.1062558495066
421,833.9469425459799
422,833.7880236910618
423,833.6336571302394
424,833.4888677898061
425,833.3591252138474
426,833.2497425082806
427,833.1651984136414
428,833.1085017222655
429,833.0807046531264
430,833.0806277212787
431,833.104810393331
432,833.1476851984063
433,833.2019821938161
434,833.2593604074206
435,833.311212578752
436,833.3495322152937
437,833.3677068071996
438,833.3611138580294
439,833.3274362884641
440,833.2666718719555
441,833.1808734941354
442,833.0737032210039
443,832.9499031756261
444,832.8147857155651
445,832.673832496378
446,832.5324624456593
447,832.3959728662991
448,832.269584022319
449,832.1584585326194
450,832.0675598616258
451,832.0012728517559
452,831.9628113987045
453,831.9535396563355
454,831.9723939048135
455,832.0155933377819
456,832.0767720829253
457,832.1475681947948
458,832.2185914631362
459,832.2805947841538
460,832.3256314999336
461,832.3480047273215
462,832.3448782417055
463,832.316488894474
464,832.2659643995861
465,832.198806845699
466,832.1221446843876
467,832.043872968584
468,831.9717953310749
469,831.9128668770752
470,831.8726206796143
471,831.8548313874988
472,831.8614225325979
473,831.8925749848183
474,831.9469656308914
475,832.0220674070682
476,832.1144640272731
477,832.2201543284375
478,832.3348283589905
479,832.4540947522178
480,832.5736415631001
481,832.6893265926649
482,832.7972101912346
483,832.8935572358746
484,832.974847402745
485,833.0378385732627
486,833.0797117470158
487,833.0982862289032
488,833.0922528724293
489,833.0613528502536
490,833.0064387280355
491,832.9293918990267
492,832.8329197993114
493,832.7202909983662
494,832.595070347328
495,832.4608963499883
496,832.3213146360879
497,832.1796551703547
498,832.0389236972065
499,831.9016833301005
500,831.7699375146382
501,831.6450652288188
502,831.5278602063033
503,831.4186801441864
504,831.3176561853346
505,831.2248893808585
506,831.1405838058538
507,831.0651126680965
508,830.9990402564258
509,830.9431081005035
510,830.898163363691
511,830.8650010615685
512,830.844119955576
513,830.8354309281867
514,830.8379787463689
515,830.8497388177287
516,830.8675423550052
517,830.8871745874744
518,830.9036748571848
519,830.9118318371427
520,830.9068125271662
521,830.8848116055875
522,830.8435866884369
523,830.7827747371653
524,830.7039603675552
525,830.6105481528131
526,830.507525849155
527,830.4011777349197
528,830.2987533511829
529,830.2080631107641
530,830.1369687796645
531,830.0927489768671
532,830.081345512704
533,830.1065463489671
534,830.1692284388546
535,830.2668335286432
536,830.3932421068803
537,830.5391359949821
538,830.6928337787361
539,830.8414944578196
540,830.9725324733676
541,831.0750573105707
542,831.1411326562798
543,831.1666590506846
544,831.1517387060234
545,831.1004754093707
546,831.0202695095825
547,830.9207581498383
548,830.8126003958386
549,830.7063065727767
550,830.6112695547234
551,830.5350892288454
552,830.4832062558477
553,830.4587967311824
554,830.4628466890164
555,830.4943349362068
556,830.5504896709745
557,830.6271161458186
558,830.7189977717399
559,830.8203582716937
560,830.9253577994306
561,831.0285869920981
562,831.1255079991482
563,831.212771561319
564,831.288341702584
565,831.3514037816456
566,831.4020970168033
567,831.4411581040837
568,831.4695641986489
569,831.488229235813
570,831.497768242992
571,831.4983294754761
572,831.4895073303001
573,831.4703669743722
574,831.4396072694188
575,831.3958519080677
576,831.3380060129462
577,831.2655792678694
578,831.1788781618345
579,831.0790064217098
580,830.967671488457
581,830.8468593655307
582,830.7184838392593
583,830.5841191997557
584,830.4448972301708
585,830.3016085935901
586,830.1549972402879
587,830.0061750113231
588,829.8570388841613
589,829.7105745722785
590,829.570970856815
591,829.4435164925973
592,829.3342849037934
593,829.2496307351827
594,829.1955365829523
595,829.176874013324
596,829.1966851479884
597,829.255625000181
598,829.3516959424104
599,829.4803441033353
600,829.6348946141233
601,829.8072189844406
602,829.9884918618444
603,830.169913302124
604,830.343316294099
605,830.5016152036475
606,830.6390759144901
607,830.7514160981962
608,830.8357757301115
609,830.8906197205065
610,830.91563425235
611,830.911658915373
612,830.8806703122813
613,830.8258087701479
614,830.7514214120407
615,830.6630806639049
616,830.5675218947258
617,830.4724288294866
618,830.3860003170548
619,830.3162793183271
620,830.2703080520855
621,830.2532542776967
622,830.2676941148289
623,830.313219358001
624,830.3864684620717
625,830.4815872576175
626,830.5910393606356
627,830.7066210249366
628,830.8204931542587
629,830.9260371820554
630,831.0183877266645
631,831.0945868833637
632,831.1534101020856
633,831.1949906878169
634,831.2203903970711
635,831.2312289415313
636,831.2294267065067
637,831.2170672269216
638,831.1963606873619
639,831.1696793074057
640,831.1396309984581
641,831.109132477273
642,831.0814342297933
643,831.0600481225805
644,831.0485492246406
645,831.0502613775727
646,831.0678703613934
647,831.1030313079675
648,831.1560545658925
649,831.2257618303344
650,831.3095849034822
651,831.4039272161009
652,831.5047382113469
653,831.608187420139
654,831.7112903570859
655,831.8123438500318
656,831.9110727805779
657,832.0084588980866
658,832.1062918839411
659,832.2065375802296
660,832.3106576016465
661,832.4190322783419
662,832.5306183962492
663,832.6429153891155
664,832.7522431102399
665,832.8542735676214
666,832.9447171398577
667,833.0200412874173
668,833.0780926965025
669,833.1185055944627
670,833.1428216241503
671,833.154315895503
672,833.1575897894434
673,833.1580251164887
674,833.1611912917475
675,833.1722715606107
676,833.1955461856654
677,833.2339544842831
678,833.2887574328348
679,833.3593330168537
680,833.4431431125009
681,833.5358960283809
682,833.6318946184484
683,833.7245299402366
684,833.8068703034238
685,833.8722972669397
686,833.9151406766575
687,833.9312591230246
688,833.9185015773899
689,833.8769798676257
690,833.809093442164
691,833.7192818885684
692,833.6135289713561
693,833.4986884193711
694,833.3817274996564
695,833.2689837833982
696,833.1655186874566
697,833.0746425217942
698,832.9976714419641
699,832.9339405220385
700,832.8810454564722
701,832.8352485966132
702,832.7919816637519
703,832.7463921882995
704,832.6938918178129
705,832.6306692366329
706,832.5541282556309
707,832.4631987477593
708,832.3584585641697
709,832.2420246313037
710,832.1172258886149
711,831.9881341506839
712,831.8590680836987
713,831.734182054439
714,831.6172091377642
715,831.5113644192114
716,831.4193558801812
717,831.3434185215481
718,831.285292602624
719,831.2461033579488
720,831.2261521210683
721,831.2246754771483
722,831.2396493424392
723,831.267701649131
724,831.3041612598334
725,831.3432369101362
726,831.3783098577322
727,831.4023322559246
728,831.4083270983392
729,831.3899750140378
730,831.3422539814937
731,831.2620734486572
732,831.1488183029305
733,831.0047055203672
734,830.834870094979
735,830.6471339094322
736,830.4514580945101
737,830.2591218774525
738,830.081702978616
739,829.9299641688968
740,829.8127807590091
741,829.7362541114528
742,829.7031285477785
743,829.7125789466897
744,829.7603915976493
745,829.8395243647867
746,829.940989199234
747,830.054947416602
748,830.171860358797
749,830.2835144768237
750,830.3837584489128
751,830.4688587607369
752,830.5374775106507
753,830.5903541695435
754,830.6298007127073
755,830.6591094811089
756,830.6819547478323
757,830.7018557190443
758,830.721758291051
759,830.7437784342599
760,830.7691244277094
761,830.7981787859635
762,830.8306861031909
763,830.8659725003098
764,830.9031190871934
765,830.9410292493436
766,830.9783733743086
767,831.0134558396907
768,831.0440977531978
769,831.067635446293
770,831.0810950029029
771,831.0815390444201
772,831.0665196336294
773,831.0345292343568
774,830.9853372371603
775,830.920138523253
776,830.8415006436368
777,830.7531445016018
778,830.6596178462548
779,830.5659280502725
780,830.477194306673
781,830.398356053344
782,830.333938972464
783,830.2878555362255
784,830.2632242698
785,830.2622195265969
786,830.2859804261924
787,830.3345977453378
788,830.4071700117393
789,830.501895712489
790,830.6161651496499
791,830.7466346702741
792,830.8892932280105
793,831.039551251014
794,831.1923883191878
795,831.3425866242474
796,831.4850494105292
797,831.6151657043872
798,831.729157493706
799,831.8243500591109
800,831.8993306957424
801,831.9539837605284
802,831.9894049916356
803,832.0077127959004
804,832.0117872518763
805,832.0049699539537
806,831.9907519671189
807,831.9724737843646
808,831.9530605872378
809,831.934812865198
810,831.9192716829896
811,831.9071858666691
812,831.8986136934334
813,831.8931747405009
814,831.8904260235149
815,831.8902879149623
816,831.8934087946501
817,831.9013476435952
818,831.9164860694603
819,831.941658906938
820,831.979584777767
821,832.0322340128
822,832.100271491837
823,832.1826834316498
824,832.2766662939823
825,832.3778151399397
826,832.4805866936834
827,832.5789477579427
828,832.6670850251369
829,832.7400611150372
830,832.7943391791018
831,832.8281381425895
832,832.8416068494939
833,832.8368176520308
834,832.8175802673408
835,832.7890700367219
836,832.7572712342076
837,832.7282761882115
838,832.707542684788
839,832.6992516493921
840,832.7058896777177
841,832.7281130920327
842,832.7648701615623
843,832.8137027354024
844,832.8711304569814
845,832.9330309802119
846,832.9949559349216
847,833.0523600282157
848,833.1007622135367
849,833.1358843763576
850,833.1538086132504
851,833.1511635363486
852,833.1253144882266
853,833.0745152717321
854,832.9979912919434
855,832.8959568776266
856,832.7695994925597
857,832.6210707393816
858,832.4535072292568
859,832.2710793755806
860,832.0790466109903
861,831.8837799586628
862,831.6926891700568
863,831.5139716701669
864,831.3561119113718
865,831.2271201295412
866,831.1335909476995
867,831.0797392645526
868,831.0665975455734
869,831.0915340716192
870,831.1481968139553
871,831.2269186194318
872,831.3155468766606
873,831.4006011485537
874,831.4686262294762
875,831.5075886501917
876,831.5081550578982
877,831.4646980372911
878,831.3759019720371
879,831.2448830490697
880,831.0787950277876
881,830.8879654628487
882,830.6846774595508
883,830.4817618081029
884,830.2911897431669
885,830.1228500316149
886,829.9836447042319
887,829.8769625636079
888,829.8025306670839
889,829.7566206045603
890,829.7325773458219
891,829.7216199008252
892,829.7138378099671
893,829.6992891485237
894,829.6690974795952
895,829.6164417507179
896,829.5373304678184
897,829.4310556481174
898,829.3002516894477
899,829.1505504067854
900,828.989905112911
901,828.8277124877657
902,828.6738682043397
903,828.5378658119055
904,828.4280192149431
905,828.3508681631314
906,828.3108017354023
907,828.3099022685185
908,828.3479852974409
909,828.4228003407884
910,828.530354374427
911,828.665311350098
912,828.8214112831699
913,828.9918574909269
914,829.1696425512774
915,829.3478074792234
916,829.5196449344086
917,829.6788671565974
