frame_number,force
0,874.5811100100977
1,874.5649184059199
2,874.5485162646402
3,874.5316931404253
4,874.5142387880967
5,874.4959433072916
6,874.4765973355437
7,874.4559923010252
8,874.4339207417217
9,874.4101766940516
10,874.3845561508709
11,874.3568575860712
12,874.3268825401202
13,874.2944362582128
14,874.2593283708322
15,874.2213736058142
16,874.180392521239
17,874.1362122491076
18,874.0886672404695
19,874.0376000034605
20,873.9828618265822
21,873.9243134803806
22,873.861825891556
23,873.7952807847656
24,873.7245712889719
25,873.6496025064301
26,873.5702920427631
27,873.4865704962912
28,873.3983819045517
29,873.3056841458296
30,873.2084492932216
31,873.1066639182557
32,873.0003293406224
33,872.8894618200435
34,872.7740926853211
35,872.6542683943456
36,872.5300505180126
37,872.4015156413121
38,872.2687551762339
39,872.1318750830151
40,871.9909954984709
41,871.8462502729154
42,871.697786420422
43,871.5457634899878
44,871.3903528666293
45,871.2317370116174
46,871.070108650827
47,870.9056699200235
48,870.7386314758135
49,870.5692115808022
50,870.3976351711912
51,870.2241329145901
52,870.0489402651614
53,869.8722965222538
54,869.6944438970368
55,869.5156265891304
56,869.3360898723535
57,869.1560791864588
58,868.9758392307584
59,868.7956130559411
60,868.6156411518203
61,868.4361605306973
62,868.257403807955
63,868.0795982830849
64,867.9029650255558
65,867.7277179710355
66,867.5540630347091
67,867.382197249438
68,867.2123079365741
69,867.0445719161091
70,866.8791547610092
71,866.7162100987298
72,866.5558789617762
73,866.3982891893661
74,866.2435548836278
75,866.0917759253445
76,865.943037555156
77,865.7974100263575
78,865.6549483355429
79,865.5156920376569
80,865.3796651525053
81,865.2468761701015
82,865.1173181617629
83,864.990969002297
84,864.8677917062523
85,864.7477348784907
86,864.6307332762012
87,864.5167084760365
88,864.4055696371005
89,864.2972143488636
90,864.1915295526151
91,864.0883925252655
92,863.9876719150265
93,863.8892288197085
94,863.7929178997961
95,863.6985885197681
96,863.6060859121085
97,863.5152523588848
98,863.4259283854352
99,863.3379539595333
100,863.2511696874719
101,863.16541799613
102,863.0805442880095
103,862.9963980554509
104,862.9128339412223
105,862.8297127349215
106,862.7469022971916
107,862.6642784060931
108,862.5817255220867
109,862.4991374700523
110,862.4164180386476
111,862.3334814989794
112,862.2502530456546
113,862.1666691633686
114,862.0826779212223
115,861.998239195415
116,861.9133248196152
117,861.8279186619071
118,861.7420166277095
119,861.655626588705
120,861.5687682379904
121,861.4814728715363
122,861.3937830961147
123,861.3057524643627
124,861.2174450387529
125,861.1289348881601
126,861.0403055232317
127,860.9516492791157
128,860.8630666558441
129,860.7746656280552
130,860.6865609367673
131,860.5988733758985
132,860.5117290849618
133,860.4252588576761
134,860.3395974748069
135,860.2548830680132
136,860.1712565194025
137,860.0888608992034
138,860.0078409421758
139,859.9283425622027
140,859.8505124035729
141,859.7744974263813
142,859.7004445221863
143,859.6285001547413
144,859.5588100198221
145,859.4915187186233
146,859.4267694410698
147,859.3647036576833
148,859.3054608202297
149,859.2491780720873
150,859.195989969578
151,859.1460282156404
152,859.099421407184
153,859.0562947973053
154,859.0167700733492
155,858.9809651516013
156,858.9489939892474
157,858.9209664142771
158,858.896987974389
159,858.8771598066132
160,858.8615785298717
161,858.85033616237
162,858.8435200640703
163,858.8412129018649
164,858.8434926327693
165,858.8504324998268
166,858.86210103665
167,858.8785620787228
168,858.8998747815165
169,858.9260936466048
170,858.9572685575736
171,858.9934448281535
172,859.0346632656351
173,859.0809602527243
174,859.1323678502764
175,859.188913922024
176,859.2506222811023
177,859.3175128572567
178,859.3896018832579
179,859.4669020992189
180,859.5494229736108
181,859.6371709390761
182,859.7301496397494
183,859.8283601859458
184,859.9318014127105
185,860.0404701404392
186,860.1543614373766
187,860.2734688843968
188,860.397784842037
189,860.5273007187133
190,860.6620072380821
191,860.8018947030727
192,860.9469532541473
193,861.0971731193797
194,861.2525448537494
195,861.4130595648172
196,861.5787091218742
197,861.7494863455689
198,861.9253851746396
199,862.1064008057106
200,862.2925298015142
201,862.4837701629203
202,862.6801213611116
203,862.881584328029
204,863.0881614051603
205,863.2998562520215
206,863.516673716123
207,863.7386196664941
208,863.9657007935282
209,864.1979243788228
210,864.4352980393994
211,864.6778294510976
212,864.9255260561453
213,865.1783947599548
214,865.4364416219439
215,865.6996715446057
216,865.9680879643108
217,866.2416925466067
218,866.5204848881963
219,866.8044622273227
220,867.0936191639595
221,867.3879473910017
222,867.687435437516
223,867.9920684246381
224,868.3018278335494
225,868.6166912831642
226,868.9366323132001
227,869.2616201665217
228,869.5916195632601
229,869.9265904585735
230,870.2664877765009
231,870.6112611140409
232,870.960854411524
233,871.3152055867357
234,871.6742461310477
235,872.0379006667997
236,872.4060864669575
237,872.7787129403296
238,873.1556810876554
239,873.5368829355189
240,873.9222009566764
241,874.3115074870815
242,874.7046641514443
243,875.1015213103611
244,875.5019175427376
245,875.9056791773587
246,876.3126198869227
247,876.722540356417
248,877.1352280353666
249,877.5504569806856
250,877.9679877942076
251,878.387567656651
252,878.8089304578035
253,879.231797021368
254,879.6558754223597
255,880.0808613949092
256,880.5064388282038
257,880.9322803477816
258,881.3580479786725
259,881.7833938864027
260,882.2079611916747
261,882.6313848543756
262,883.0532926223998
263,883.473306040565
264,883.8910415143262
265,884.306111421806
266,884.7181252663557
267,885.1266908612882
268,885.5314155387609
269,885.9319073750816
270,886.3277764241604
271,886.7186359497804
272,887.1041036467652
273,887.4838028414291
274,887.8573636626343
275,888.2244241760343
276,888.584631475345
277,888.9376427254488
278,889.2831261526327
279,889.6207619773958
280,889.9502432852455
281,890.2712768307692
282,890.5835837700012
283,890.8869003159098
284,891.180978312177
285,891.4655857217176
286,891.740507028481
287,892.005543553266
288,892.26051368591
289,892.505253037234
290,892.7396145147724
291,892.9634683266337
292,893.1767019176121
293,893.379219840937
294,893.5709435680526
295,893.7518112378941
296,893.9217773465288
297,894.0808123779931
298,894.2289023776611
299,894.3660484702897
300,894.4922663258395
301,894.6075855773252
302,894.7120491962384
303,894.8057128323209
304,894.8886441254499
305,894.9609219980573
306,895.0226359367493
307,895.0738852714862
308,895.1147784597799
309,895.14543238204
310,895.1659716527312
311,895.1765279506134
312,895.1772393700438
313,895.1682497942501
314,895.1497082908202
315,895.1217685293957
316,895.0845882213468
317,895.0383285807729
318,894.9831538056628
319,894.9192305779028
320,894.8467275810195
321,894.7658150345513
322,894.676664243408
323,894.5794471597573
324,894.4743359540979
325,894.3615025913629
326,894.2411184074981
327,894.1133536825859
328,893.9783772083053
329,893.8363558498144
330,893.6874541043177
331,893.531833660395
332,893.369652963747
333,893.2010667963672
334,893.0262258767417
335,892.8452764880648
336,892.6583601401992
337,892.4656132701796
338,892.2671669856528
339,892.0631468553253
340,891.8536727500231
341,891.638858737482
342,891.4188130334328
343,891.1936380108448
344,890.9634302684337
345,890.7282807587802
346,890.4882749755474
347,890.2434931983182
348,889.9940107928087
349,889.7398985640298
350,889.4812231603717
351,889.2180475271836
352,888.950431408866
353,888.6784318987596
354,888.4021040363148
355,888.1215014510603
356,887.8366770526353
357,887.5476837657393
358,887.2545753083825
359,886.9574070107486
360,886.6562366697294
361,886.3511254310267
362,886.0421386876048
363,885.7293469810555
364,885.412826891341
365,885.0926619002306
366,884.7689432143247
367,884.4417705347585
368,884.111252762215
369,883.7775086272832
370,883.4406672372755
371,883.1008685316607
372,882.7582636395889
373,882.4130151346678
374,882.0652971838184
375,881.7152955882822
376,881.3632077155656
377,881.0092423215985
378,880.6536192630817
379,880.2965691008405
380,879.9383325954194
381,879.5791600957791
382,879.2193108210968
383,878.859052034957
384,878.498658111001
385,878.1384094893062
386,877.7785915232876
387,877.4194932178748
388,877.061405861295
389,876.704621555076
390,876.3494316499219
391,875.9961250987667
392,875.6449867420686
393,875.296295543462
394,874.9503227955587
395,874.6073303159087
396,874.2675686523303
397,873.9312753156686
398,873.5986730568693
399,873.2699682038506
400,872.9453490715175
401,872.6249844553948
402,872.3090222165682
403,871.9975879639317
404,871.690783839348
405,871.3886874116104
406,871.0913506853398
407,870.7987992311863
408,870.5110314445917
409,870.2280179421564
410,869.9497011064993
411,869.6759947912658
412,869.4067841974091
413,869.1419259306502
414,868.8812482483588
415,868.6245515016068
416,868.3716087745469
417,868.122166719112
418,867.875946579398
419,867.6326453976314
420,867.3919373921054
421,867.1534754964083
422,866.9168930484001
423,866.6818056164093
424,866.4478129485739
425,866.2145010291474
426,865.9814442237914
427,865.7482074954441
428,865.5143486734902
429,865.2794207611107
430,865.0429742681279
431,864.8045595588306
432,864.5637292055299
433,864.3200403384251
434,864.0730569809789
435,863.8223523584788
436,863.567511166911
437,863.3081317899215
438,863.0438284530713
439,862.7742333065046
440,862.498998429515
441,862.2177977530289
442,861.9303288982017
443,861.6363149309774
444,861.3355060337489
445,861.0276810960554
446,860.7126492260072
447,860.3902511826788
448,860.0603607277483
449,859.722885892992
450,859.3777701591754
451,859.0249935413267
452,858.664573575226
453,858.2965662001468
454,857.9210665332639
455,857.5382095311408
456,857.1481705330765
457,856.7511656802035
458,856.3474522035847
459,855.9373285741827
460,855.5211345073113
461,855.0992508142018
462,854.672099093998
463,854.2401412606713
464,853.8038789005058
465,853.3638524567954
466,852.9206402397011
467,852.4748572611761
468,852.0271538970748
469,851.5782143801576
470,851.1287551280918
471,850.6795229099358
472,850.2312928536928
473,849.7848662969085
474,849.3410684818971
475,848.9007460966384
476,848.4647646618553
477,848.0340057649973
478,847.6093641433575
479,847.1917446211157
480,846.782058907916
481,846.3812222688604
482,845.9901500773635
483,845.609754263559
484,845.2409396722901
485,844.8846003462172
486,844.5416157512981
487,844.2128469640544
488,843.8991328426081
489,843.6012862059714
490,843.3200900478633
491,843.056293811962
492,842.8106097549876
493,842.5837094226713
494,842.3762202620992
495,842.1887223928843
496,842.0217455595775
497,841.8757662884151
498,841.7512052720803
499,841.6484250059409
500,841.5677276977597
501,841.5093534700104
502,841.4734788700767
503,841.4602156996314
504,841.4696101708151
505,841.5016423933977
506,841.5562261941504
507,841.6332092675863
508,841.7323736556958
509,841.8534365525777
510,841.9960514276987
511,842.1598094594088
512,842.3442412688271
513,842.5488189434147
514,842.772958338997
515,843.0160216480643
516,843.2773202206154
517,843.5561176217839
518,843.8516329084613
519,844.1630441054651
520,844.4894918607415
521,844.8300832585758
522,845.183895769466
523,845.5499813144831
524,845.9273704200629
525,846.3150764365117
526,846.7120997909997
527,847.1174322441848
528,847.5300611190796
529,847.9489734710866
530,848.3731601688581
531,848.8016198565925
532,849.233362769773
533,849.6674143783124
534,850.1028188332479
535,850.5386421955578
536,850.9739754287536
537,851.4079371404373
538,851.8396760613316
539,852.2683732533109
540,852.693244041089
541,853.1135396651188
542,853.5285486552729
543,853.9375979262041
544,854.3400535967287
545,854.7353215375895
546,855.1228476544619
547,855.5021179155439
548,855.8726581349962
549,856.2340335247746
550,856.5858480284581
551,856.9277434516893
552,857.2593984047587
553,857.5805270738075
554,857.8908778382391
555,858.1902317530989
556,858.478400916113
557,858.755226739606
558,859.0205781474622
559,859.2743497166042
560,859.5164597814887
561,859.7468485192344
562,859.9654760324341
563,860.1723204462081
564,860.3673760351709
565,860.5506513945592
566,860.7221676682036
567,860.8819568445465
568,861.0300601301683
569,861.1665264082538
570,861.2914107876765
571,861.4047732474459
572,861.5066773808961
573,861.5971892433619
574,861.6763763058455
575,861.7443065156695
576,861.801047463777
577,861.846665657219
578,861.8812258945038
579,861.9047907412049
580,861.9174201037964
581,861.919170900795
582,861.9100968311952
583,861.8902482404777
584,861.8596720844249
585,861.8184119909438
586,861.7665084199242
587,861.7039989204089
588,861.6309184830034
589,861.547299984152
590,861.453174718221
591,861.3485730129755
592,861.2335249231768
593,861.1080609953988
594,860.9722130953975
595,860.8260152880475
596,860.669504758724
597,860.502722763431
598,860.3257155929443
599,860.1385355344735
600,859.9412418138184
601,859.7339015021909
602,859.5165903746084
603,859.2893937101968
604,859.0524070279544
605,858.8057367538928
606,858.5495008169831
607,858.2838291723232
608,858.0088642506515
609,857.7247613337609
610,857.4316888555012
611,857.1298286280244
612,856.8193759930155
613,856.5005398981126
614,856.1735428992865
615,855.8386210900909
616,855.4960239582794
617,855.1460141698035
618,854.7888672801146
619,854.424871373088
620,854.0543266286184
621,853.6775448207792
622,853.2948487492876
623,852.9065716079355
624,852.5130562947013
625,852.1146546692304
626,851.7117267639646
627,851.3046399553216
628,850.893768101234
629,850.4794906515607
630,850.0621917389271
631,849.6422592593648
632,849.2200839538323
633,848.7960585023626
634,848.370576641942
635,847.9440323178259
636,847.5168188767319
637,847.0893283097911
638,846.6619505529965
639,846.2350728525537
640,845.8090792018252
641,845.3843498555848
642,844.9612609257615
643,844.5401840602972
644,844.1214862035201
645,843.7055294337044
646,843.2926708722548
647,842.8832626591067
648,842.4776519895987
649,842.0761812086527
650,841.6791879586061
651,841.2870053776751
652,840.8999623467556
653,840.5183837828719
654,840.1425909778704
655,839.7729019808224
656,839.4096320216963
657,839.0530939719038
658,838.703598834771
659,838.361456256797
660,838.026975049175
661,837.7004637081633
662,837.3822309220965
663,837.0725860521179
664,836.771839573443
665,836.4803034642143
666,836.1982915293704
667,835.9261196468564
668,835.6641059228199
669,835.4125707415947
670,835.1718366961807
671,834.9422283864288
672,834.7240720753761
673,834.51769519847
674,834.3234257247658
675,834.1415913729109
676,833.9725186877556
677,833.8165319857264
678,833.6739521786844
679,833.5450954872149
680,833.4302720556968
681,833.329784483341
682,833.2439262874976
683,833.1729803174285
684,833.1172171377699
685,833.0768934006193
686,833.0522502237346
687,833.0435115906813
688,833.0508827878931
689,833.074548893866
690,833.1146733365283
691,833.1713965353727
692,833.2448346446503
693,833.3350784128544
694,833.442192172284
695,833.5662129711959
696,833.7071498601741
697,833.8649833435925
698,834.0396650060494
699,834.2311173222811
700,834.4392336573732
701,834.6638784619647
702,834.9048876644423
703,835.1620692592082
704,835.4352040876372
705,835.7240468064585
706,836.0283270362997
707,836.3477506801769
708,836.6820013979845
709,837.0307422195233
710,837.3936172759875
711,837.7702536278972
712,838.1602631657843
713,838.5632445586793
714,838.9787852250408
715,839.4064633012871
716,839.8458495842557
717,840.2965094255446
718,840.7580045574585
719,841.2298948316836
720,841.7117398528296
721,842.2031004904109
722,842.7035402551328
723,843.2126265278795
724,843.7299316317295
725,844.2550337386522
726,844.7875176037332
727,845.3269751212885
728,845.8730056993365
729,846.4252164517537
730,846.9832222107249
731,847.546645365159
732,848.1151155329237
733,848.6882690761246
734,849.2657484701098
735,849.8472015394019
736,850.43228057729
737,851.020641369309
738,851.6119421433611
739,852.2058424707501
740,852.8020021433709
741,853.4000800531031
742,853.9997330999489
743,854.600615155306
744,855.2023761057982
745,855.8046610012772
746,856.4071093278824
747,857.009354423658
748,857.6110230506946
749,858.2117351346049
750,858.8111036795058
751,859.4087348641928
752,860.0042283222334
753,860.5971776050771
754,861.187170823337
755,861.7737914575299
756,862.3566193259155
757,862.9352316940038
758,863.5092045084239
759,864.0781137373485
760,864.6415367998324
761,865.1990540665704
762,865.7502504149396
763,866.294716822225
764,866.8320519823554
765,867.3618639324561
766,867.8837716756694
767,868.3974067864219
768,868.9024149842821
769,869.3984576632879
770,869.8852133652508
771,870.362379187676
772,870.8296721190258
773,871.2868302962569
774,871.7336141824211
775,872.1698076655911
776,872.5952190835773
777,873.0096821810597
778,873.4130570065494
779,873.8052307559747
780,874.1861185678806
781,874.555664272925
782,874.9138410982564
783,875.2606523255237
784,875.5961318993548
785,875.9203449814071
786,876.2333884442555
787,876.5353912995627
788,876.8265150555942
789,877.1069539996503
790,877.3769354012707
791,877.6367196320116
792,877.8866001970976
793,878.1269036733433
794,878.3579895466703
795,878.5802499416853
796,878.7941092355613
797,879.0000235490768
798,879.1984801088948
799,879.3899964763885
800,879.5751196391144
801,879.7544249615448
802,879.9285149925603
803,880.0980181291254
804,880.2635871384629
805,880.4258975437857
806,880.5856458797871
807,880.7435478229855
808,880.9003361995972
809,881.0567588715475
810,881.2135765007592
811,881.3715601932257
812,881.5314890270456
813,881.6941474714496
814,881.8603227057763
815,882.0308018479207
816,882.2063691011386
817,882.387802826771
818,882.5758725493882
819,882.7713359011865
820,882.9749355146768
821,883.1873958762194
822,883.409420156838
823,883.6416870402608
824,883.8848475709899
825,884.1395220474227
826,884.4062969869979
827,884.6857221923058
828,884.9783079487838
829,885.2845223852571
830,885.6047890275041
831,885.9394845722671
832,886.2889369052533
833,886.653423382069
834,887.0331693858442
835,887.42834717
836,887.8390749901685
837,888.2654165262842
838,888.7073805939075
839,889.1649211418874
840,889.6379375310926
841,890.1262750865794
842,890.6297259138197
843,891.1480299684872
844,891.6808763684983
845,892.2279049365935
846,892.788707961742
847,893.362832167452
848,893.9497808739799
849,894.5490163395756
850,895.1599622639767
851,895.7820064356794
852,896.4145035030743
853,897.0567778484528
854,897.7081265434056
855,898.3678223644375
856,899.0351168487028
857,899.7092433712882
858,900.3894202266829
859,901.0748536973558
860,901.7647410915683
861,902.4582737312259
862,903.1546398697118
863,903.8530275200502
864,904.5526271754082
865,905.2526344062844
866,905.9522523213426
867,906.6506938813721
868,907.347184057708
869,908.0409618272189
870,908.7312819962013
871,909.4174168462796
872,910.0986575971489
873,910.7743156830077
874,911.4437238408955
875,912.1062370098813
876,912.7612330409722
877,913.4081132195718
878,914.0463026054338
879,914.6752501987429
880,915.2944289443461
881,915.9033355887187
882,916.5014904058398
883,917.0884368089537
884,917.663740865472
885,918.2269907323099
886,918.7777960288338
887,919.3157871642064
888,919.8406146353509
889,920.3519483113698
890,920.8494767200814
891,921.332906351926
892,921.8019609953392
893,922.2563811155873
894,922.695923286321
895,923.1203596802706
896,923.5294776230876
897,923.9230792128393
898,924.300981007356
899,924.6630137819476
900,925.0090223595109
901,925.3388655130142
902,925.6524159375867
903,925.9495602874262
904,926.2301992719133
905,926.4942478049045
906,926.7416352001563
907,926.972305404023
908,927.1862172544211
909,927.3833447532096
910,927.5636773380055
911,927.7272201392672
912,927.873994209303
913,928.004036711419
914,928.1174010593542
915,928.2141569991876
916,928.2943906279712
917,928.3582043454895
