acceleration,velocity,displacement
-0.019516609469593493,0.0,0.0
-0.018916429337304586,-9.60825970172452e-06,-2.40206492543113e-09
-0.018317905377264795,-1.8916843380366866e-05,-9.533340695953976e-09
-0.017722683194729603,-2.7926990523365464e-05,-2.124429917188706e-08
-0.017132387403001097,-3.664075817279814e-05,-3.738623634592796e-08
-0.016548611481172995,-4.506100789384166e-05,-5.7811677862587915e-08
-0.0159729080500596,-5.319138777664981e-05,-8.237477678021079e-08
-0.015406779687606927,-6.103630971106645e-05,-1.1093170115213985e-07
-0.014851670386413976,-6.860092222957167e-05,-1.433410091372994e-07
-0.014308957739792585,-7.589107926112331e-05,-1.7946400950997316e-07
-0.013779945928672923,-8.291330517823969e-05,-2.1916510561981393e-07
-0.013265859559572794,-8.967475655030112e-05,-2.623121210519491e-07
-0.012767838365090465,-9.618318103146694e-05,-3.087766054473911e-07
-0.012286932729172906,-0.00010244687380503278,-3.5843411915651605e-07
-0.011824099958038571,-0.00010847463197683566,-4.111644956019832e-07
-0.011380201197621707,-0.00011427570726575073,-4.668520804126298e-07
-0.010955998898662622,-0.00011985975728982181,-5.253859465515229e-07
-0.010552154744237794,-0.0001252367957005469,-5.866600847991151e-07
-0.010169227978181495,-0.00013041714138115174,-6.505735690695397e-07
-0.009807674103770418,-0.0001354113669016397,-7.170306961402376e-07
-0.009467843954473107,-0.0001402302464162006,-7.859410994696976e-07
-0.009149983165843426,-0.00014488470319627973,-8.572198368728177e-07
-0.008854232092857664,-0.00014938575701095501,-9.307874519246264e-07
-0.008580626214781903,-0.0001537444715878649,-1.0065700090743313e-06
-0.008329097052383274,-0.0001579719024046562,-1.0844991025724616e-06
-0.008099473600512306,-0.0001620790450678801,-1.1645118394405957e-06
-0.007891484262924351,-0.00016607678453373927,-1.2465507968410007e-06
-0.007704759271913249,-0.00016997584541744866,-1.3305639543287976e-06
-0.007538833584509216,-0.00017378674363155428,-1.4165046015910483e-06
-0.007393150263048669,-0.00017751973959344376,-1.504331222397298e-06
-0.00726706435925875,-0.00018118479324902062,-1.594007355607914e-06
-0.007159847320003774,-0.00018479152116883626,-1.6855014342123784e-06
-0.00707069191972821,-0.00018834915597876927,-1.7787866034992798e-06
-0.006998717701630265,-0.00019186650838410888,-1.8738405195899994e-06
-0.0069429768796953435,-0.00019535193202944027,-1.9706451296933866e-06
-0.0069024606234495064,-0.0001988132914052265,-2.0691864355520534e-06
-0.006876105629187957,-0.00020225793296838585,-2.1694542416454565e-06
-0.006862800885720276,-0.00020569265959711293,-2.271441889786831e-06
-0.006861394565914197,-0.00020912370846002155,-2.3751459818011146e-06
-0.006870701002046806,-0.0002125567323520118,-2.4805660920041228e-06
-0.006889507721240652,-0.00021599678453283367,-2.587704471225334e-06
-0.006916582526327786,-0.00021944830709472578,-2.696565744132224e-06
-0.006950680609692845,-0.00022291512287873094,-2.807156601625588e-06
-0.006990551683914839,-0.00022640043095213287,-2.919485490083304e-06
-0.0070349471049104785,-0.0002299068056493392,-3.033562299233672e-06
-0.007082626953890927,-0.00023343619916403954,-3.1493980504370167e-06
-0.007132367038086722,-0.00023698994766203395,-3.267004587143535e-06
-0.007182965772604403,-0.00024056878086470672,-3.3863942692752202e-06
-0.00723325091778698,-0.00024417283503730457,-3.507579673250723e-06
-0.007282086156377097,-0.0002478016693058456,-3.6305732993365103e-06
-0.0073283774883500805,-0.00025145428521702737,-3.7553872879672284e-06
-0.007371079400496556,-0.000255129149439239,-3.882033146631295e-06
-0.0074092007489699,-0.0002588242194766056,-4.010521488860257e-06
-0.0074418102857145025,-0.0002625369722352767,-4.140861786788227e-06
-0.007468041759172728,-0.0002662644352464985,-4.273062138658671e-06
-0.00748709851688572,-0.0002700032203155131,-4.4071290525491734e-06
-0.007498257531856279,-0.00027374955932769863,-4.543067247459976e-06
-0.007500872777368552,-0.00027749934190500486,-4.680879472768152e-06
-0.0074943778984486575,-0.00028124815457395916,-4.820566346887893e-06
-0.00747828817050574,-0.00028499132109119775,-4.962126215804182e-06
-0.007452201779471271,-0.000288723943578692,-5.105555031971654e-06
-0.0074158004863042965,-0.0002924409441451359,-5.250846253902612e-06
-0.0073688497493434755,-0.00029613710670404786,-5.397990766614907e-06
-0.007311198378169645,-0.0002998071187359261,-5.546976822974901e-06
-0.007242777788014428,-0.00030344561277747216,-5.69779000585325e-06
-0.007163600912870117,-0.0003070472074526933,-5.850413210910792e-06
-0.007073760816883157,-0.0003106065478851316,-6.0048266497452485e-06
-0.0069734290203895734,-0.00031411834534444976,-6.161007873052644e-06
-0.006862853534562213,-0.0003175774159831877,-6.318931813384554e-06
-0.006742356581798768,-0.00032097871851227797,-6.47857084700842e-06
-0.006612331969470526,-0.0003243173906500953,-6.639894874299013e-06
-0.0064732420805787986,-0.00032758878416260765,-6.802871418002189e-06
-0.006325614440890048,-0.00033078849829297485,-6.967465738616084e-06
-0.006170037815180818,-0.0003339124113569926,-7.133640966028576e-06
-0.00600715777793553,-0.00033695671025527166,-7.301358246431642e-06
-0.005837671704597788,-0.00033991791762590497,-7.470576903401936e-06
-0.005662323144149096,-0.0003427929163380917,-7.641254611892935e-06
-0.005481895559763108,-0.00034557897101406975,-7.813347583730976e-06
-0.005297205454186839,-0.0003482737462675572,-7.986810763051382e-06
-0.005109094925841729,-0.00035087532136256433,-8.161598029958913e-06
-0.004918423728265788,-0.0003533822010260912,-8.337662410556076e-06
-0.004726060927179766,-0.0003557933221899526,-8.514956291360086e-06
-0.004532876267406754,-0.0003581080564885992,-8.693431636029724e-06
-0.0043397313820405575,-0.00036032620840096104,-8.873040202252114e-06
-0.0041474710002995675,-0.0003624480089965461,-9.05373375660149e-06
-0.003956914330720574,-0.00036447410532930116,-9.235464285182952e-06
-0.003768846800703288,-0.0003664055456121571,-9.418184197918317e-06
-0.0035840123134349474,-0.0003682437603906917,-9.601846524419029e-06
-0.00340310614037043,-0.000369990540004143,-9.786405099517737e-06
-0.00322676851550602,-0.00037164800866811216,-9.971814736685801e-06
-0.003055578952731336,-0.0003732185955351715,-1.0158031387736623e-05
-0.0028900512801450693,-0.0003747050030933906,-1.0345012287393764e-05
-0.0027306293818691635,-0.00037611017325889413,-1.0532716081481836e-05
-0.002577683656112889,-0.00037743725151838966,-1.0721102937676157e-05
-0.002431508221211253,-0.0003786895494877207,-1.0910134637927684e-05
-0.002292318910974854,-0.00037987050627076726,-1.1099774651867305e-05
-0.002160252096607198,-0.00038098364902266276,-1.1289988190690663e-05
-0.0020353643653323096,-0.0003820325531381476,-1.1480742241230865e-05
-0.0019176330775448937,-0.0003830208024988669,-1.167200558014012e-05
-0.0018069578091559266,-0.0003839519502205421,-1.1863748768319972e-05
-0.0017031626646644607,-0.0003848294803389972,-1.2055944125959857e-05
-0.001605999427042541,-0.00038565677086192394,-1.2248565688760087e-05
-0.0015151514975839618,-0.0003864370585930806,-1.2441589146123839e-05
-0.0014302385703767702,-0.00038717340611007074,-1.2634991762299626e-05
-0.0013508219755159097,-0.0003878686712465439,-1.2828752281638779e-05
-0.0012764106090762568,-0.00038852547939269196,-1.3022850819298588e-05
-0.0012064673509639835,-0.000389146198882702,-1.3217268738867437e-05
-0.0011404158619944635,-0.0003897329196859416,-1.3411988518509598e-05
-0.001077647649872686,-0.0003902874355639084,-1.360699360732206e-05
-0.0010175292947800958,-0.0003908112298000716,-1.3802268273663056e-05
-0.0009594097282148439,-0.00039130546455582035,-1.399779744725203e-05
-0.0009026274685037445,-0.000391770973855,-1.4193566556854734e-05
-0.0008465177312198841,-0.0003922082601549309,-1.4389561365357216e-05
-0.0007904193419105581,-0.0003926174944232135,-1.4585767804001752e-05
-0.0007336813791974605,-0.00039299851960349053,-1.4782171807508428e-05
-0.0006756694788315887,-0.0003933508573179978,-1.49787591517388e-05
-0.0006157717369230222,-0.0003936737176219364,-1.5175515295473783e-05
-0.0005534041516972974,-0.0003939660115940915,-1.537242522777779e-05
-0.00048801553148416295,-0.00039422636651488687,-1.5569473322305032e-05
-0.0004190917855651454,-0.00039445314334414917,-1.576664319976979e-05
-0.00034615951920099466,-0.0003946444561703407,-1.596391759964841e-05
-0.00026878887371082976,-0.00039479819326856865,-1.6161278262008138e-05
-0.00018659557709414112,-0.0003949120393812699,-1.63587058201706e-05
-9.924219555059373e-05,-0.0003949834988244311,-1.6556179704722025e-05
-6.438599797002157e-06,-0.000395009919023268,-1.675367805918395e-05
9.205832271572193e-05,-0.0003949885140925383,-1.69511776674629e-05
0.00019644567182095036,-0.00039491638809390417,-1.714865389300951e-05
0.0003068762158354982,-0.00039479055762199004,-1.7346080629438486e-05
0.0004234607060203961,-0.00039460797339152607,-1.7543430262191863e-05
0.0005462707702922505,-0.0003943655405224479,-1.774067364067036e-05
0.0006753423229354413,-0.000394060137249141,-1.7937780060113256e-05
0.0008106794231008595,-0.0003936886318126319,-1.81347172523787e-05
0.0009522585133535649,-0.0003932478973285183,-1.8331451384663985e-05
0.001100032965062114,-0.0003927348244589144,-1.8527947065110844e-05
0.0012539378467072047,-0.00039214633175597204,-1.8724167354164566e-05
0.0014138948172102044,-0.0003914793735899927,-1.892007378050106e-05
0.0015798170368973349,-0.0003907309456264658,-1.9115626360305174e-05
0.0017516139892317017,-0.00038989808786993356,-1.9310783618679273e-05
0.0019291961142416938,-0.0003889778853440652,-1.9505502611982772e-05
0.0021124791625195503,-0.0003879674665248749,-1.9699738949950006e-05
0.0023013881831594196,-0.00038686399968845516,-1.989344681650334e-05
0.0024958610609565534,-0.00038566468737742616,-2.008657898826981e-05
0.0026958515199343924,-0.00038436675923220345,-2.027908684992222e-05
0.0029013315143830098,-0.00038296746347362407,-2.0470920405598676e-05
0.0031122929384122806,-0.00038146405736042525,-2.0662028285807188e-05
0.0033287486040040433,-0.0003798537969748212,-2.0852357749391e-05
0.00355073246436203,-0.00037813392670772966,-2.104185468031164e-05
0.0037782990852160752,-0.0003763016688203351,-2.1230463579193653e-05
0.004011522383233119,-0.0003743542134532228,-2.1418127549762043e-05
0.004250493657395995,-0.0003722887094430655,-2.1604788280486115e-05
0.004495318942589523,-0.00037010225629306915,-2.1790386021920148e-05
0.004746115721887429,-0.0003677918976269499,-2.1974859560400152e-05
0.005003009050667259,-0.0003653546164338112,-2.2158146188915344e-05
0.005266127170084422,-0.00036278733237862326,-2.234018167611845e-05
0.00553559671201382,-0.0003600869014080987,-2.252090023456513e-05
0.005811537616263445,-0.00035725011782602935,-2.2700234489373664e-05
0.006094057892040886,-0.00035427371894895327,-2.287811544856741e-05
0.006383248357555751,-0.00035115439238655414,-2.305447247640129e-05
0.006679177484636327,-0.0003478887859260061,-2.3229233270979428e-05
0.006981886464717961,-0.0003444735199386675,-2.3402323847445595e-05
0.007291384601196317,-0.00034090520217218895,-2.357366852797331e-05
0.007607645113440689,-0.0003371804447435297,-2.3743189939702238e-05
0.00793060140455679,-0.0003332958831140303,-2.3910809021666628e-05
0.008260143808095104,-0.00032924819681086733,-2.4076445041647853e-05
0.008596116804197345,-0.00032503413165779424,-2.424001562376502e-05
0.008938316688918129,-0.00032065052328451534,-2.4401436787500597e-05
0.009286489687614264,-0.00031609432169038223,-2.456062299874432e-05
0.009640330519110148,-0.0003113626166387011,-2.4717487233326592e-05
0.009999481433625187,-0.00030645266365051727,-2.4871941053398895e-05
0.010363531754855363,-0.00030136191035339715,-2.5023894696899874e-05
0.010732017952847003,-0.00029608802292647155,-2.517325718021984e-05
0.011104424267807597,-0.0002906289123713079,-2.5319936414044284e-05
0.011480183903758493,-0.0002849827603284164,-2.5463839332219216e-05
0.011858680811889425,-0.0002791480441495044,-2.5604872033338695e-05
0.012239252077221227,-0.00027312356092722677,-2.5742939934607877e-05
0.012621190908286974,-0.00026690845018084974,-2.5877947937384895e-05
0.013003750218509353,-0.00026050221489915063,-2.6009800603654896e-05
0.0133861467858638,-0.00025390474064805737,-2.61384023425417e-05
0.013767565980899031,-0.0002471163124563667,-2.6263657605817804e-05
0.014147167056812853,-0.0002401376291969387,-2.638547109123113e-05
0.014524088994097671,-0.0002329698151842111,-2.6503747952326417e-05
0.014897456879515387,-0.00022561442871580782,-2.6618394013301422e-05
0.015266388772822714,-0.0002180734673027233,-2.6729315987306055e-05
0.01563000298252915,-0.00021034936936388532,-2.6836421696472706e-05
0.015987425645388454,-0.00020244501220690591,-2.6939620291865402e-05
0.0163377984878236,-0.0001943637061736029,-2.703882247146053e-05
0.016680286635972028,-0.000186109184892654,-2.7133940694227093e-05
0.01701408632479288,-0.00017768559165246277,-2.722488938836337e-05
0.017338432335043782,-0.00016909746198750362,-2.7311585151773363e-05
0.017652604974111794,-0.00016034970266021471,-2.7393946942935293e-05
0.01795593642774322,-0.00015144756730975096,-2.7471896260427784e-05
0.01824781634307142,-0.0001423966291170473,-2.7545357309534483e-05
0.018527696544024915,-0.00013320275089527322,-2.7614257154537563e-05
0.018795094818478974,-0.00012387205305464726,-2.7678525855525043e-05
0.019049597752762683,-0.00011441087991183684,-2.7738096588766663e-05
0.01929086262784672,-0.0001048257648166845,-2.7792905749948792e-05
0.019518618433409903,-9.512339455137034e-05,-2.7842893039790804e-05
0.019732666094349056,-8.53105734194306e-05,-2.7888001531783504e-05
0.01993287802754675,-7.539418738895665e-05,-2.79281777219856e-05
0.020119197149349923,-6.538116859473248e-05,-2.7963371560981523e-05
0.02029163544224608,-5.527846044683348e-05,-2.7993536468241915e-05
0.020450272169334684,-4.509298354393829e-05,-2.801862932923961e-05
0.02059525179792347,-3.4831602552123755e-05,-2.8038610475763624e-05
0.020726781660802863,-2.4501094187442172e-05,-2.8053443649948515e-05
0.020845129353851615,-1.4108116433778554e-05,-2.806309595260382e-05
0.02095061984847377,-3.659179133197208e-06,-2.8067537776495563e-05
0.021043632287675248,6.839383900840047e-06,-2.8066742725303652e-05
0.021124596435167595,1.7381441081550758e-05,-2.8060687519058055e-05
0.02119398875801143,2.796108737984551e-05,-2.8049351886942706e-05
0.02125232814157242,3.8572666604741474e-05,-2.803271844844656e-05
0.021300171253708332,4.921079145356166e-05,-2.8010772583931984e-05
0.02133810758600045,5.987036116348886e-05,-2.798350229577772e-05
0.021366754201019616,7.054657661024387e-05,-2.7950898061334287e-05
0.021386750212034976,8.123495271350752e-05,-2.791295267900335e-05
0.021398751027315713,9.193132802334519e-05,-2.7869661108819138e-05
0.021403422411898677,0.00010263187138314878,-2.7821020308967514e-05
0.02140143444801816,0.000113333085598128,-2.7767029069722195e-05
0.02139345549564415,0.0001240318080840436,-2.7707687846301653e-05
0.021380146257950622,0.00013472520852244227,-2.764299859215003e-05
0.021362154046058377,0.00014541078359844452,-2.757296459411981e-05
0.021340107320649927,0.00015608634894012158,-2.7497590310985167e-05
0.021314610569502044,0.00016675002841265958,-2.7416881216646972e-05
0.02128623956101531,0.00017740024094528892,-2.7330843649307485e-05
0.02125553699938465,0.00018803568508538892,-2.7239484667799815e-05
0.021223008605126943,0.00019865532148651683,-2.714281191615684e-05
0.021189119657485107,0.00020925835355216983,-2.7040833497397168e-05
0.021154292052002567,0.00021984420647954176,-2.693355785738924e-05
0.02111890193081629,0.00023041250497524648,-2.6820993679525545e-05
0.021083277928336162,0.0002409630499400346,-2.6703149790796725e-05
0.021047700047880775,0.00025149579443408884,-2.6580035079703194e-05
0.02101239915507721,0.0002620108192348283,-2.6451658426285964e-05
0.02097755704657759,0.00027250830828524203,-2.6318028644405947e-05
0.020943307032145916,0.0002829885243049229,-2.6179154436258406e-05
0.020909734957594187,0.00029345178480235794,-2.6035044358981587e-05
0.020876880592283296,0.0003038984386898273,-2.588570680310854e-05
0.020844739301381306,0.00031432884366324344,-2.5731149982520274e-05
0.02081326392048665,0.00032474334446871045,-2.5571381935487285e-05
0.020782366754171992,0.00033514225213737513,-2.5406410536335765e-05
0.020751921631475715,0.0003455258242337871,-2.5236243517242975e-05
0.020721765965649334,0.00035589424613306835,-2.506088849965126e-05
0.020691702778949255,0.000366247613319218,-2.488035303478819e-05
0.020661502665447973,0.0003765859146803173,-2.4694644652788305e-05
0.020630905675041673,0.00038690901676543974,-2.4503770919926867e-05
0.020599623111474712,0.00039721664896206886,-2.430773950349499e-05
0.020567339250995513,0.0004075083895526864,-2.41065582438663e-05
0.020533713006154815,0.000417783652616974,-2.3900235233323886e-05
0.020498379573282727,0.00042804167576183336,-2.3688778901229184e-05
0.020460952106718805,0.00043828150868183374,-2.3472198105118266e-05
0.020421023460162474,0.00044850200257355404,-2.3250502227304418e-05
0.020378168029251263,0.00045870180044590747,-2.3023701276549553e-05
0.020331943718776856,0.0004688793283829145,-2.2791805994342346e-05
0.020281894041109864,0.0004790327878228862,-2.2554827965290897e-05
0.020227550333044464,0.0004891601489164247,-2.231277973110607e-05
0.020168434065771734,0.0004992591450161288,-2.2065674907622932e-05
0.020104059224990933,0.0005093272683388194,-2.1813528304284196e-05
0.02003393475598162,0.0005193617668340626,-2.1556356045490977e-05
0.01995756709539713,0.0005293596422969073,-2.1294175693208235e-05
0.019874462836141363,0.0005393176497797919,-2.102700637018906e-05
0.019784131581590144,0.0005492322983842247,-2.0754868883148056e-05
0.019686089033349848,0.0005590998535379598,-2.047778584516751e-05
0.019579860327901568,0.0005689163408782726,-2.0195781796563453e-05
0.019464983605961855,0.0005786775518617385,-1.990888332337845e-05
0.01934101377257692,0.0005883790512063732,-1.9617119172611424e-05
0.019207526384666634,0.0005980161862456841,-1.932052036324841e-05
0.019064121585924496,0.0006075840982383318,-1.9019120292127407e-05
0.01891042800229069,0.0006170777356353857,-1.8712954833658977e-05
0.018746106516358507,0.0006264918692650479,-1.8402062432433868e-05
0.018570853849538466,0.0006358211093565222,-1.8086484187778477e-05
0.01838440589009673,0.000645059924291431,-1.776626392936649e-05
0.01818654071418024,0.0006542026609425002,-1.7441448283058008e-05
0.01797708126053933,0.0006632435664361801,-1.7112086726213337e-05
0.01775589763683274,0.0006721768111605231,-1.677823163181416e-05
0.01752290904789114,0.0006809965128317041,-1.6439938300816103e-05
0.01727808533868827,0.0006896967614283489,-1.609726498225109e-05
0.017021448140496834,0.0006982716447981452,-1.5750272880694464e-05
0.016753071605057342,0.0007067152747345337,-1.5399026150811293e-05
0.016473082711979926,0.0007150218133137931,-1.5043591878799212e-05
0.016181661137234495,0.0007231854992760967,-1.468404005065174e-05
0.015879038673626573,0.000731200674228812,-1.4320443507275513e-05
0.015565498198026691,0.0007390618084467253,-1.3952877886606628e-05
0.015241372183818627,0.0007467635260421866,-1.35814215529844e-05
0.014907040756424851,0.0007543006292772475,-1.3206155514154541e-05
0.014562929287140005,0.0007616681217881387,-1.2827163326388195e-05
0.014209505526144986,0.0007688612304914599,-1.2444530988318295e-05
0.013847276296225775,0.0007758754259470526,-1.2058346824208667e-05
0.013476783798051254,0.0007827064409706219,-1.1668701357479249e-05
0.013098601603406408,0.0007893502873209863,-1.1275687175406346e-05
0.01271333042849782,0.0007958032703289623,-1.087939878599386e-05
0.012321593787477868,0.0008020620013829562,-1.047993246806588e-05
0.01192403363020948,0.000808123408237378,-1.0077386115660797e-05
0.01152130606926469,0.0008139847431622466,-9.67185907781089e-06
0.01111407730004285,0.0008196435890045735,-9.263451994769186e-06
0.010703019816482829,0.0008250978632837049,-8.852266631697116e-06
