frame_number,force
0,655.6254300072763
1,655.4893291342322
2,655.3535965374437
3,655.2185977481467
4,655.0846928477962
5,654.9522338421249
6,654.8215621495865
7,654.6930062357997
8,654.5668794210414
9,654.4434778830074
10,654.3230788721678
11,654.2059391521603
12,654.0922936730959
13,653.9823544817649
14,653.8763098693405
15,653.7743237537915
16,653.6765352907194
17,653.5830587031634
18,653.493983318746
19,653.4093738019295
20,653.3292705700349
21,653.2536903829562
22,653.1826270966294
23,653.1160525686132
24,653.0539177013922
25,652.9961536066661
26,652.942672872769
27,652.8933709171571
28,652.8481274059959
29,652.8068077231501
30,652.7692644715478
31,652.735338990807
32,652.7048628760092
33,652.6776594837467
34,652.6535454132787
35,652.6323319526743
36,652.6138264818
37,652.5978338254718
38,652.5841575507754
39,652.5726012028166
40,652.5629694735634
41,652.5550692988712
42,652.5487108786859
43,652.5437086148902
44,652.5398819610726
45,652.5370561790814
46,652.5350629982552
47,652.5337411743451
48,652.5329369465519
49,652.532504393043
50,652.5323056874587
51,652.5322112605932
52,652.5320998723939
53,652.5318585999804
54,652.5313827480085
55,652.5305756885917
56,652.5293486390902
57,652.5276203874163
58,652.5253169762482
59,652.522371359587
60,652.5187230468483
61,652.5143177503926
62,652.5091070514856
63,652.5030480970868
64,652.4961033364009
65,652.4882403030617
66,652.479431446942
67,652.4696540186422
68,652.4588900087498
69,652.4471261419602
70,652.4343539225762
71,652.4205697232145
72,652.4057749042252
73,652.3899759487401
74,652.373184597525
75,652.3554179682345
76,652.3366986452203
77,652.3170547292502
78,652.2965198412222
79,652.2751330789118
80,652.2529389296204
81,652.2299871436742
82,652.2063325741249
83,652.1820349871
84,652.1571588454835
85,652.1317730664941
86,652.1059507518938
87,652.0797688886086
88,652.0533080176684
89,652.0266518702846
90,651.999886970997
91,651.9731022088265
92,651.9463883784732
93,651.9198376950882
94,651.893543287699
95,651.867598677369
96,651.8420972466186
97,651.8171317071372
98,651.7927935736049
99,651.7691726519419
100,651.7463565498308
101,651.7244302160927
102,651.703475514111
103,651.6835708333854
104,651.6647907426116
105,651.6472056875026
106,651.6308817365933
107,651.6158803778919
108,651.6022583683107
109,651.5900676367817
110,651.5793552411692
111,651.5701633782242
112,651.5625294444526
113,651.5564861439897
114,651.5520616378755
115,651.549279727768
116,651.54816006606
117,651.5487183837622
118,651.550966727759
119,651.5549137001808
120,651.5605646940442
121,651.5679221202075
122,651.5769856208098
123,651.5877522640196
124,651.6002167143506
125,651.6143713720234
126,651.6302064742725
127,651.6477101518897
128,651.6668684360308
129,651.687665212895
130,651.7100821263491
131,651.7340984303956
132,651.7596907947236
133,651.7868330679553
134,651.8154960047987
135,651.8456469648534
136,651.8772495922232
137,651.9102634865554
138,651.9446438774362
139,651.9803413144011
140,652.0173013839259
141,652.0554644634516
142,652.0947655215697
143,652.1351339728151
144,652.1764935946428
145,652.2187625129426
146,652.261853260705
147,652.3056729117651
148,652.3501232878896
149,652.3951012338149
150,652.4404989525856
151,652.4862043933106
152,652.5321016843451
153,652.5780716053771
154,652.6239920914579
155,652.6697387615984
156,652.715185465191
157,652.7602048411609
158,652.8046688865325
159,652.8484495324172
160,652.8914192263001
161,652.9334515200006
162,652.9744216626506
163,653.014207197344
164,653.0526885590613
165,653.089749670373
166,653.1252785305041
167,653.1591677926381
168,653.1913153238092
169,653.2216247413055
170,653.2500059192987
171,653.2763754597103
172,653.3006571220736
173,653.3227822080604
174,653.342689897055
175,653.3603275296417
176,653.3756508363747
177,653.3886241101808
178,653.3992203222483
179,653.4074211828599
180,653.4132171498055
181,653.4166073874761
182,653.4175996796954
183,653.4162102993986
184,653.4124638388843
185,653.4063930051516
186,653.3980383848553
187,653.3874481821293
188,653.3746779305072
189,653.3597901788459
190,653.3428541514712
191,653.3239453842419
192,653.3031453396114
193,653.2805410044085
194,653.2562244740063
195,653.230292526006
196,653.2028461858017
197,653.173990285816
198,653.1438330199592
199,653.1124854946897
200,653.0800612776845
201,653.0466759446643
202,653.0124466247299
203,652.9774915448525
204,652.9419295748255
205,652.9058797746011
206,652.8694609459085
207,652.83279118914
208,652.7959874651596
209,652.7591651607208
210,652.7224376558186
211,652.6859158912333
212,652.6497079347737
213,652.6139185456976
214,652.5786487384809
215,652.5439953487722
216,652.5100506054115
217,652.4769017129256
218,652.444630449324
219,652.4133127842177
220,652.3830185220537
221,652.3538109747307
222,652.3257466674004
223,652.2988750809031
224,652.2732384338325
225,652.2488715065188
226,652.2258015083098
227,652.2040479886307
228,652.1836227915776
229,652.1645300531534
230,652.1467662396511
231,652.1303202254062
232,652.1151734083458
233,652.1012998622322
234,652.0886665248017
235,652.0772334211251
236,652.0669539218366
237,652.0577750367818
238,652.0496377458461
239,652.0424773692773
240,652.0362239789292
241,652.0308028499978
242,652.0261349513465
243,652.0221374720913
244,652.0187243821861
245,652.0158070246016
246,652.0132947362505
247,652.0110954941144
248,652.0091165819721
249,652.0072652719814
250,652.0054495147339
251,652.0035786315249
252,652.0015640032219
253,651.9993197508082
254,651.9967634030862
255,651.9938165470681
256,651.9904054562259
257,651.9864616907643
258,651.9819226622868
259,651.9767321531207
260,651.9708407790663
261,651.9642063841551
262,651.9567943572747
263,651.9485778628865
264,651.9395379809032
265,651.9296637536255
266,651.918952140067
267,651.9074078796605
268,651.8950432681752
269,651.8818778491469
270,651.8679380247228
271,651.8532565907556
272,651.8378722025479
273,651.8218287802301
274,651.8051748661838
275,651.7879629502604
276,651.7702487805888
277,651.7520906777934
278,651.7335488685404
279,651.7146848511779
280,651.6955608026485
281,651.6762390324513
282,651.6567814867998
283,651.6372493046844
284,651.6177024271506
285,651.5981992608927
286,651.5787963963181
287,651.5595483783812
288,651.5405075264287
289,651.5217237979716
290,651.5032446911157
291,651.4851151811665
292,651.4673776881066
293,651.4500720726357
294,651.4332356589633
295,651.4169032825661
296,651.4011073609967
297,651.3858779859329
298,651.3712430352178
299,651.357228304251
300,651.3438576558664
301,651.3311531863171
302,651.319135402878
303,651.3078234071037
304,651.2972350774374
305,651.2873872452586
306,651.2782958590407
307,651.2699761320387
308,651.2624426700836
309,651.2557095775855
310,651.249790541093
311,651.2446988900628
312,651.2404476340515
313,651.2370494752986
314,651.2345167962038
315,651.2328616222469
316,651.2320955619169
317,651.2322297260723
318,651.2332746298933
319,651.2352400809558
320,651.2381350563883
321,651.2419675703493
322,651.2467445306562
323,651.2524715811921
324,651.25915292552
325,651.2667911273267
326,651.2753868846913
327,651.2849387771793
328,651.2954429869537
329,651.3068929972467
330,651.3192792735538
331,651.3325889348091
332,651.3468054232537
333,651.3619081822893
334,651.3778723513403
335,651.3946684861423
336,651.4122623122781
337,651.4306145191374
338,651.449680600668
339,651.4694107482277
340,651.4897497993868
341,651.5106372446168
342,651.5320072916176
343,651.5537889849098
344,651.575906376662
345,651.5982787439565
346,651.6208208478704
347,651.6434432306162
348,651.6660525484074
349,651.6885519395873
350,651.7108414294904
351,651.7328183750026
352,651.7543779525544
353,651.7754136932723
354,651.7958180682846
355,651.8154831256647
356,651.8343011781441
357,651.8521655376894
358,651.8689712897863
359,651.8846160974321
360,651.8990010229653
361,651.9120313550118
362,651.9236174276318
363,651.9336754188085
364,651.9421281156903
365,651.9489056346616
366,651.9539460854387
367,651.9571961699307
368,651.9586117086959
369,651.9581580904842
370,651.9558106432027
371,651.9515549266945
372,651.945386948317
373,651.9373133016833
374,651.9273512279409
375,651.9155285982691
376,651.9018838160088
377,651.886465636805
378,651.8693329053933
379,651.8505542084949
380,651.8302074448411
381,651.8083793153746
382,651.7851647388525
383,651.7606661999146
384,651.7349930376029
385,651.7082606821214
386,651.6805898468231
387,651.652105681758
388,651.6229368952249
389,651.5932148507263
390,651.5630726479739
391,651.532644197382
392,651.5020632975647
393,651.4714627249957
394,651.4409733445959
395,651.410723249824
396,651.3808369408478
397,651.3514345493645
398,651.3226311183488
399,651.2945359441859
400,651.2672519869809
401,651.2408753524504
402,651.2154948464357
403,651.1911916014458
404,651.1680387737946
405,651.1461013094423
406,651.1254357760415
407,651.1060902575722
408,651.0881043066114
409,651.071508948456
410,651.0563267314354
411,651.0425718185813
412,651.0302501168457
413,651.0193594411325
414,651.0098897117125
415,651.0018231850653
416,650.9951347193419
417,650.9897920759859
418,650.9857562585983
419,650.9829818893467
420,650.9814176225838
421,650.981006594875
422,650.9816869100308
423,650.9833921568984
424,650.9860519569502
425,650.9895925385341
426,650.9939373349918
427,650.999007604155
428,651.004723066434
429,651.0110025578543
430,651.0177646935348
431,651.0249285365809
432,651.0324142671856
433,651.0401438465112
434,651.0480416692388
435,651.0560351976022
436,651.0640555691521
437,651.0720381712083
438,651.0799231765842
439,651.087656036323
440,651.0951879249767
441,651.1024761330033
442,651.109484400606
443,651.1161831884741
444,651.1225498828763
445,651.1285689345675
446,651.1342319326191
447,651.1395376154545
448,651.1444918217029
449,651.1491073825091
450,651.1534039549344
451,651.1574077943899
452,651.1611514640236
453,651.164673480629
454,651.1680178987531
455,651.1712338362547
456,651.1743749454173
457,651.1774988342071
458,651.1806664426675
459,651.1839413802026
460,651.1873892310329
461,651.1910768372084
462,651.1950715703917
463,651.1994406044325
464,651.2042502002968
465,651.2095650134262
466,651.2154474317299
467,651.2219569509657
468,651.2291495936645
469,651.2370773777761
470,651.2457878410929
471,651.2553236264074
472,651.265722130208
473,651.2770152152972
474,651.2892289859493
475,651.3023836235498
476,651.31649328093
477,651.3315660342782
478,651.3476038919559
479,651.3646028594164
480,651.3825530585592
481,651.401438898434
482,651.4212392928944
483,651.441927920187
484,651.4634735193945
485,651.4858402184728
486,651.5089878881156
487,651.5328725154084
488,651.5574465919428
489,651.5826595127628
490,651.6084579843555
491,651.6347864407331
492,651.6615874659077
493,651.688802219278
494,651.7163708585638
495,651.7442329534167
496,651.7723278818763
497,651.8005952018865
498,651.8289749914487
499,651.85740815304
500,651.8858366796762
501,651.9142038811556
502,651.94245456978
503,651.9705352052748
504,651.9983939986138
505,652.0259809744015
506,652.0532479920777
507,652.0801487279676
508,652.1066386229721
509,652.1326748036886
510,652.1582159868425
511,652.1832223774067
512,652.2076555697408
513,652.2314784590639
514,652.2546551684196
515,652.2771509947636
516,652.2989323770363
517,652.3199668887728
518,652.3402232576112
519,652.3596714139873
520,652.3782825714471
521,652.3960293411528
522,652.4128858824921
523,652.4288280896102
524,652.4438338105161
525,652.457883092432
526,652.4709584452203
527,652.4830451139289
528,652.4941313509191
529,652.5042086772539
530,652.5132721224649
531,652.5213204321793
532,652.5283562345829
533,652.5343861590662
534,652.5394209032378
535,652.5434752470769
536,652.5465680147149
537,652.5487219851528
538,652.5499637537096
539,652.5503235466257
540,652.5498349922076
541,652.5485348532677
542,652.5464627273334
543,652.543660722671
544,652.5401731189125
545,652.5360460205852
546,652.5313270102287
547,652.5260648055634
548,652.5203089230994
549,652.5141093491433
550,652.5075162184285
551,652.5005795005039
552,652.4933486946215
553,652.4858725350243
554,652.4781987097559
555,652.4703735969042
556,652.4624420224803
557,652.454447044059
558,652.4464297638369
559,652.4384291738294
560,652.4304820347023
561,652.422622788537
562,652.4148835046753
563,652.4072938567483
564,652.399881128418
565,652.3926702454569
566,652.385683831983
567,652.3789422883632
568,652.3724638875744
569,652.3662648861783
570,652.3603596457107
571,652.3547607601303
572,652.3494791850497
573,652.3445243647252
574,652.3399043528353
575,652.3356259227181
576,652.3316946624866
577,652.3281150511991
578,652.324890514029
579,652.3220234561467
580,652.3195152760711
581,652.3173663599961
582,652.3155760598185
583,652.3141426592742
584,652.313063333975
585,652.3123341114498
586,652.3119498363467
587,652.3119041442219
588,652.312189445431
589,652.3127969188537
590,652.3137165137435
591,652.3149369572557
592,652.3164457653965
593,652.3182292561503
594,652.3202725649303
595,652.3225596638202
596,652.3250733868695
597,652.3277954637889
598,652.3307065641408
599,652.333786353966
600,652.3370135667168
601,652.3403660901937
602,652.3438210710688
603,652.3473550387291
604,652.3509440504668
605,652.3545638601552
606,652.3581901123886
607,652.3617985637023
608,652.365365331743
609,652.3688671713668
610,652.3722817734337
611,652.3755880788991
612,652.3787665994615
613,652.3817997368409
614,652.3846720946267
615,652.3873707783576
616,652.3898856804786
617,652.3922097466481
618,652.394339218449
619,652.3962738456893
620,652.3980170605086
621,652.3995761059277
622,652.400962112608
623,652.402190118863
624,652.4032790305514
625,652.4042515193274
626,652.4051338592508
627,652.4059557026159
628,652.4067497965964
629,652.4075516436762
630,652.4083991109204
631,652.4093319952835
632,652.4103915537668
633,652.4116200082091
634,652.413060035016
635,652.4147542504442
636,652.4167447022891
637,652.4190723787616
638,652.4217767445259
639,652.4248953121914
640,652.4284632555293
641,652.4325130689205
642,652.4370742758988
643,652.4421731876039
644,652.4478327098035
645,652.4540721960841
646,652.4609073453222
647,652.4683501426346
648,652.4764088434893
649,652.4850880003905
650,652.4943885310844
651,652.5043078269526
652,652.5148399001074
653,652.5259755674747
654,652.5377026697812
655,652.5500063227853
656,652.5628691973357
657,652.5762718241729
658,652.590192919173
659,652.6046097249823
660,652.619498365362
661,652.6348342089143
662,652.6505922394848
663,652.6667474315182
664,652.6832751295669
665,652.7001514314477
666,652.7173535740346
667,652.7348603195372
668,652.752652338659
669,652.770712585701
670,652.7890266597307
671,652.8075831454588
672,652.8263739276141
673,652.8453944735364
674,652.8646440800176
675,652.8841260811485
676,652.903848013623
677,652.9238217354139
678,652.9440634943174
679,652.9645939448544
680,652.9854381143043
681,653.006625319812
682,653.0281890380696
683,653.0501667278133
684,653.0725996044889
685,653.0955323665502
686,653.1190128738665
687,653.143091780448
688,653.1678221258754
689,653.1932588917853
690,653.2194585306148
691,653.246478473127
692,653.2743766194669
693,653.3032108168263
694,653.3330383262839
695,653.363915282249
696,653.3958961495105
697,653.4290331843367
698,653.463375906775
699,653.4989705909043
700,653.5358597784848
701,653.5740818200793
702,653.6136704472077
703,653.6546543796065
704,653.6970569723895
705,653.7408959078218
706,653.7861829351191
707,653.832923659688
708,653.881117381448
709,653.9307569808658
710,653.9818288509163
711,654.034312872852
712,654.0881824332994
713,654.1434044799255
714,654.1999396126176
715,654.2577422067462
716,654.3167605651233
717,654.3769370961094
718,654.4382085167222
719,654.5005060812327
720,654.5637558374931
721,654.6278789147837
722,654.6927918477021
723,654.7584069402213
724,654.8246326726796
725,654.8913741525598
726,654.9585336078026
727,655.0260109191065
728,655.0937041852959
729,655.1615103138812
730,655.2293256278633
731,655.2970464796995
732,655.3645698639374
733,655.4317940210794
734,655.4986190266081
735,655.5649473607077
736,655.6306844557189
737,655.6957392191443
738,655.7600245297472
739,655.823457703267
740,655.8859609232587
741,655.9474616320767
742,656.0078928770428
743,656.0671936071577
744,656.1253089165251
745,656.1821902322404
746,656.2377954465753
747,656.2920889949781
748,656.3450418820479
749,656.3966316572705
750,656.4468423414299
751,656.4956643036846
752,656.5430940887887
753,656.5891341943841
754,656.6337927997549
755,656.6770834492019
756,656.7190246945459
757,656.7596397021312
758,656.798955830136
759,656.8370041818772
760,656.8738191402804
761,656.9094378883333
762,656.9438999202911
763,656.9772465481606
764,657.0095204071403
765,657.0407649625847
766,657.0710240204074
767,657.1003412428885
768,657.1287596723157
769,657.1563212653741
770,657.1830664415627
771,657.2090336492109
772,657.234258953103
773,657.2587756484944
774,657.2826139075298
775,657.3058004653814
776,657.328358354196
777,657.3503066928508
778,657.3716605397575
779,657.3924308146416
780,657.4126242931208
781,657.4322436749719
782,657.451287723859
783,657.4697514737618
784,657.4876264955047
785,657.5049012152868
786,657.5215612760525
787,657.5375899324098
788,657.552968470667
789,657.5676766466955
790,657.5816931348205
791,657.5949959805789
792,657.607563049781
793,657.6193724670173
794,657.6304030389368
795,657.640634660454
796,657.650048704294
797,657.6586283952214
798,657.6663591699956
799,657.6732290231632
800,657.67922883779
801,657.6843526994188
802,657.6885981911331
803,657.6919666679887
804,657.6944635103325
805,657.6960983569921
806,657.696885320123
807,657.6968431832681
808,657.6959955831923
809,657.694371174472
810,657.692003773645
811,657.6889324774139
812,657.6852017479972
813,657.6808614586794
814,657.6759668935457
815,657.6705786968752
816,657.6647627698172
817,657.65859011469
818,657.6521366296979
819,657.6454828580655
820,657.6387136951602
821,657.6319180557457
822,657.625188502265
823,657.6186208347807
824,657.6123136437773
825,657.6063678279315
826,657.6008860800408
827,657.5959723457823
828,657.5917312618184
829,657.5882675813955
830,657.5856855963809
831,657.584088564516
832,657.5835781498844
833,657.5842538833527
834,657.5862126480343
835,657.589548192898
836,657.5943506758551
837,657.6007062362575
838,657.608696595851
839,657.6183986868513
840,657.6298843058258
841,657.6432197925551
842,657.6584657340867
843,657.6756766955629
844,657.6949009805263
845,657.7161804239022
846,657.7395502209004
847,657.7650387951405
848,657.7926677092626
849,657.8224516207365
850,657.8543982847019
851,657.8885086051587
852,657.9247767360887
853,657.963190234799
854,658.003730270014
855,658.0463718861289
856,658.091084322807
857,658.1378313870848
858,658.186571874123
859,658.2372600322069
860,658.289846066801
861,658.3442766773716
862,658.4004956196829
863,658.4584442856234
864,658.5180622924844
865,658.5792880739987
866,658.642059465966
867,658.7063142795535
868,658.7719908554262
869,658.8390285921046
870,658.9073684425434
871,658.976953373864
872,659.0477287864617
873,659.1196428903887
874,659.1926470387019
875,659.2666960189366
876,659.3417483044792
877,659.4177662668496
878,659.4947163479666
879,659.5725691895543
880,659.6512997162253
881,659.7308871695351
882,659.8113150916843
883,659.8925712589339
884,659.9746475662348
885,660.0575398661459
886,660.1412477664561
887,660.225774391445
888,660.311126111471
889,660.3973122452034
890,660.4843447387135
891,660.5722378257733
892,660.6610076741056
893,660.750672023121
894,660.84124981955
895,660.9327608575076
896,661.0252254284982
897,661.1186639850969
898,661.2130968203836
899,661.3085437642442
900,661.4050238974577
901,661.5025552845681
902,661.601154726366
903,661.7008375322296
904,661.8016173117803
905,661.9035057847458
906,662.0065126081663
907,662.1106452214958
908,662.2159087124817
909,662.3223057090232
910,662.4298363033319
911,662.5384980141679
912,662.6482857913628
913,662.7591920652244
914,662.8712068421398
915,662.9843178465269
916,663.0985107079541
917,663.2137691904492
