frame_number,force
0,496.8976700038854
1,497.05878627994133
2,497.2194869152286
3,497.37935883170405
4,497.5379940423482
5,497.69499211253543
6,497.8499625251984
7,498.0025269244374
8,498.1523212167188
9,498.29899751349126
10,498.4422259032866
11,498.5816960448329
12,498.7171185757206
13,498.84822633402234
14,498.97477539269084
15,499.0965459082117
16,499.21334278623493
17,499.3249961685125
18,499.4313617476484
19,499.532320918313
20,499.62778077477384
21,499.7176739644058
22,499.80195840558935
23,499.8806168769088
24,499.9536564834163
25,500.02110800506824
26,500.0830251322132
27,500.1394835932365
28,500.1905801801774
29,500.236431679187
30,500.27717371370534
31,500.31295950894946
32,500.3439585869467
33,500.3703554021526
34,500.3923479283684
35,500.41014620786615
36,500.42397087348036
37,500.43405165425673
38,500.44062587515907
39,500.44393696135046
40,500.4442329577336
41,500.44176507449225
42,500.4367862688861
43,500.42954987244724
44,500.4203082712951
45,500.40931164565495
46,500.39680677287777
47,500.3830358965922
48,500.3682356632505
49,500.35263612615887
50,500.33645981612966
51,500.3199208775171
52,500.30322426883475
53,500.28656502811344
54,500.2701276039236
55,500.25408525297786
56,500.23859950454414
57,500.22381969129344
58,500.20988254638166
59,500.19691186731313
60,500.1850182476347
61,500.17429887752473
62,500.164837414294
63,500.1567039237686
64,500.1499548931029
65,500.1446333148888
66,500.14076884223033
67,500.1383780151036
68,500.137464559301
69,500.13801975977066
70,500.14002290967926
71,500.14344183502124
72,500.14823349259075
73,500.15434463752496
74,500.1617125559635
75,500.17026585823237
76,500.1799253274097
77,500.1906048166775
78,500.20221218699913
79,500.21465027545963
80,500.2278178846046
81,500.2416107838012
82,500.2559227141963
83,500.2706463888399
84,500.2856744788298
85,500.30090057512655
86,500.3162201147205
87,500.3315312598895
88,500.34673572056
89,500.3617395117437
90,500.37645363987775
91,500.3907947129863
92,500.40468546978576
93,500.41805522279674
94,500.4308402110789
95,500.4429838596461
96,500.45443694458913
97,500.4651576650808
98,500.475111625648
99,500.4842717342151
100,500.4926180231603
101,500.5001374015766
102,500.50682334696677
103,500.5126755441907
104,500.51769947919513
105,500.52190599482276
106,500.52531081538734
107,500.527934045747
108,500.52979964987713
109,500.53093491391877
110,500.531369899268
111,500.53113689196385
112,500.53026985509183
113,500.528803891221
114,500.5267747221029
115,500.52421819284024
116,500.5211698075387
117,500.5176643032799
118,500.51373526896987
119,500.5094148149739
120,500.50473329858465
121,500.4997191095564
122,500.4943985190775
123,500.4887955943255
124,500.4829321791917
125,500.4768279402133
126,500.4705004754859
127,500.46396548341886
128,500.45723698731064
129,500.4503276101951
130,500.44324889193723
131,500.43601163778317
132,500.4286262856585
133,500.42110327914986
134,500.4134534338971
135,500.40568828613823
136,500.39782041294836
137,500.38986371451733
138,500.3818336498572
139,500.37374741852295
140,500.36562408231197
141,500.3574846226794
142,500.3493519316032
143,500.34125073536484
144,500.3332074521464
145,500.32524998612126
146,500.3174074632613
147,500.3097099169069
148,500.30218793339924
149,500.29487226942234
150,500.2877934531786
151,500.2809813808974
152,500.2744649181604
153,500.2682715124689
154,500.2624268202944
155,500.2569543494337
156,500.25187511633453
157,500.2472073182255
158,500.2429660208072
159,500.23916286308696
160,500.23580578132686
161,500.2328987542852
162,500.2304415722386
163,500.2284296325476
164,500.22685376443195
165,500.22570008522314
166,500.2249498901818
167,500.2245795782227
168,500.22456061611734
169,500.2248595434144
170,500.22543801953833
171,500.2262529139622
172,500.22725644047114
173,500.2283963370769
174,500.22961609342286
175,500.2308552270159
176,500.23204960825285
177,500.23313183232494
178,500.23403163444294
179,500.2346763440291
180,500.2349913734569
181,500.234900736876
182,500.23432759412196
183,500.23319481371624
184,500.23142554800063
185,500.2289438130851
186,500.225675066689
187,500.22154677792906
188,500.2164889843338
189,500.21043483253226
190,500.20332109994126
191,500.1950886954106
192,500.18568313715593
193,500.1750550061607
194,500.1631603725314
195,500.149961191554
196,500.13542566590405
197,500.11952857059015
198,500.10225153750196
199,500.083583296786
200,500.0635198726274
201,500.04206473104915
202,500.019228876713
203,499.9950308948308
204,499.96949693444316
205,499.9426606313182
206,499.91456297181
207,499.88525210159133
208,499.8547830843183
209,499.82321761529477
210,499.7906236948027
211,499.75707526544244
212,499.72265181760395
213,499.6874379667874
214,499.6515230056465
215,499.61500043256547
216,499.57796745784475
217,499.54052448849984
218,499.50277459320847
219,499.4648229498567
220,499.4267762791127
221,499.38874226816336
222,499.350828989235
223,499.31314431819055
224,499.2757953593712
225,499.2388878834069
226,499.202525784642
227,499.16681056440535
228,499.13184084594565
229,499.09771192653443
230,499.0645153719973
231,499.03233865880964
232,499.0012648686449
233,498.97137243932684
234,498.9427349740976
235,498.91542110818347
236,498.8894944287782
237,498.8650134430138
238,498.8420315886891
239,498.8205972837403
240,498.80075401156563
241,498.78254044006127
242,498.76599057277554
243,498.7511339308045
244,498.73799576359664
245,498.7265972857668
246,498.71695593578926
247,498.7090856513412
248,498.7029971549874
249,498.69869824273377
250,498.69619406706767
251,498.6954874058843
252,498.6965789090297
253,498.69946731463415
254,498.70414962794365
255,498.71062125625133
256,498.7188760949684
257,498.7289065618928
258,498.74070357926263
259,498.75425650593036
260,498.76955302427126
261,498.78657898745683
262,498.8053182324305
263,498.8257523631604
264,498.8478605085181
265,498.8716190599366
266,498.897001395818
267,498.9239776018841
268,498.952514198163
269,498.9825738832143
270,499.01411530466794
271,499.04709286307923
272,499.08145655432287
273,499.117151854666
274,499.1541196523557
275,499.19229622977997
276,499.2316133003694
277,499.27199810357797
278,499.3133735591338
279,499.3556584787275
280,499.3987678305829
281,499.4426130510189
282,499.48710239721754
283,499.53214133598993
284,499.5776329633249
285,499.62347844892906
286,499.6695774996578
287,499.71582883616867
288,499.7621306779474
289,499.8083812325857
290,499.85447918581997
291,499.90032418962943
292,499.94581734659124
293,499.9908616892424
294,500.0353626530657
295,500.0792285409695
296,500.1223709757223
297,500.16470533468885
298,500.20615115909106
299,500.2466325289675
300,500.28607839529394
301,500.32442286165013
302,500.3616054088527
303,500.39757105725204
304,500.4322704631159
305,500.4656599476505
306,500.49770145964516
307,500.52836247530513
308,500.55761584100344
309,500.5854395658479
310,500.6118165712266
311,500.6367344045453
312,500.6601849247105
313,500.68216396763887
314,500.70267100124056
315,500.72170878087945
316,500.73928301745
317,500.75540206968157
318,500.7700766697788
319,500.78331968822624
320,500.79514594089136
321,500.80557203970403
322,500.81461628649623
323,500.82229860763255
324,500.828640525168
325,500.83366515899826
326,500.83739725397277
327,500.83986322611355
328,500.84109122279807
329,500.84111119273393
330,500.8399549622673
331,500.8376563144975
332,500.83425106660815
333,500.8297771391323
334,500.8242746092577
335,500.81778573931734
336,500.810354971494
337,500.8020288804614
338,500.792856077077
339,500.78288705815027
340,500.77217399957294
341,500.76077049248397
342,500.74873122436395
343,500.7361116085844
344,500.7229673667487
345,500.70935406857836
346,500.6953266349931
347,500.68093881180283
348,500.6662426235614
349,500.6512878187891
350,500.6361213184601
351,500.62078667939653
352,500.6053235833852
353,500.5897673618066
354,500.5741485645325
355,500.55849258087517
356,500.5428193196337
357,500.5271429547677
358,500.51147174264025
359,500.4958079157504
360,500.4801476562729
361,500.46448115077743
362,500.44879272586553
363,500.4330610636685
364,500.4172594960296
365,500.40135637593676
366,500.38531552364435
367,500.3690967427733
368,500.352656399068
369,500.3359480522672
370,500.3189231302346
371,500.3015316340218
372,500.2837228625019
373,500.26544614528626
374,500.2466515725863
375,500.2272907102413
376,500.20731728729663
377,500.1866878429264
378,500.16536231982803
379,500.143304592514
380,500.1204829207077
381,500.09687032010646
382,500.0724448453353
383,500.04718978300883
384,500.02109375584786
385,499.99415074101734
386,499.9663600073547
387,499.93772597776496
388,499.9082580252183
389,499.87797021303106
390,499.8468809915901
391,499.81501286389874
392,499.7823920313475
393,499.7490480292451
394,499.7150133591758
395,499.68032312269975
396,499.6450146591115
397,499.60912718941614
398,499.5727014691096
399,499.53577945315635
400,499.49840397729497
401,499.4606184603116
402,499.4224666322629
403,499.3839922938697
404,499.34523911216945
405,499.30625045663777
406,499.26706927846266
407,499.22773803388844
408,499.18829865068744
409,499.14879253492074
410,499.1092606135971
411,499.0697434078873
412,499.0302811309881
413,498.99091380435044
414,498.9516813860631
415,498.91262390586144
416,498.87378160194345
417,498.8351950548643
418,498.7969053135322
419,498.7589540086608
420,498.7213834501627
421,498.6842367061381
422,498.647557661717
423,498.6113910562148
424,498.57578249709877
425,498.540778449033
426,498.5064261957861
427,498.4727737722804
428,498.43986986368435
429,498.4077636682991
430,498.3765047214459
431,498.3461426790316
432,498.3167270617477
433,498.2883069632558
434,498.26093072781197
435,498.2346456047086
436,498.2094973887825
437,498.185530057555
438,498.16278541550304
439,498.1413027542533
440,498.12111853496754
441,498.10226609697764
442,498.0847753952746
443,498.06867276850255
444,498.0539807385136
445,498.0407178427099
446,498.028898501587
447,498.01853292536856
448,498.0096270640252
449,498.00218260368604
450,497.9961970102058
451,497.99166361879765
452,497.9885717678902
453,497.98690697520465
454,497.986651153409
455,497.9877828611257
456,497.9902775832374
457,497.99410803352083
458,497.9992444729636
459,498.0056550377109
460,498.01330607035214
461,498.0221624473733
462,498.0321878951695
463,498.04334528756675
464,498.05559691890215
465,498.0689047478571
466,498.0832306083381
467,498.0985363846633
468,498.1147841490081
469,498.13193625971695
470,498.14995542009575
471,498.16880469863185
472,498.1884475127809
473,498.208847578924
474,498.2299688305398
475,498.2517753054172
476,498.2742310018376
477,498.29729970393987
478,498.3209447781731
479,498.3451289454505
480,498.3698140364627
481,498.3949607395997
482,498.42052835147234
483,498.4464745392008
484,498.47275512201094
485,498.4993238780068
486,498.52613238090606
487,498.55312987113075
488,498.5802631653869
489,498.60747660821124
490,498.63471206807213
491,498.6619089798638
492,498.6890044349783
493,498.7159333194125
494,498.742628499824
495,498.7690210573706
496,498.79504056936725
497,498.8206154389097
498,498.84567327220986
499,498.8701413018806
500,498.89394685170294
501,498.9170178354713
502,498.9392832805714
503,498.9606738664883
504,498.9811224691716
505,499.0005647033641
506,499.01893945593724
507,499.0361894038262
508,499.05226151075044
509,499.06710749781934
510,499.0806842839866
511,499.09295439241504
512,499.1038863178436
513,499.11345484867616
514,499.1216413369831
515,499.1284339107943
516,499.13382762565345
517,499.13782455515627
518,499.1404338220927
519,499.141671572773
520,499.14156089757597
521,499.14013170083535
522,499.13742052282737
523,499.13347031633947
524,499.1283301809308
525,499.12205505944047
526,499.11470540239014
527,499.1063468059364
528,499.09704962846575
529,499.086888590428
530,499.0759423614268
531,499.06429313761686
532,499.0520262114431
533,499.03922953533333
534,499.0259932812058
535,499.0124093980505
536,498.99857116981013
537,498.98457277508084
538,498.970508848933
539,498.956474045863
540,498.9425626020112
541,498.9288678946023
542,498.9154819973033
543,498.90249523184207
544,498.88999571832056
545,498.8780689282575
546,498.8667972447329
547,498.85625953326297
548,498.8465307263567
549,498.83768142496166
550,498.82977752107416
551,498.82287984721677
552,498.81704386011893
553,498.81231936726726
554,498.8087503049335
555,498.8063745745296
556,498.8052239418125
557,498.8053240016358
558,498.8066942093181
559,498.8093479774972
560,498.8132928347914
561,498.81853064059254
562,498.8250578492009
563,498.83286581598264
564,498.8419411381485
565,498.85226602333955
566,498.8638186803864
567,498.8765737277384
568,498.89050261546925
569,498.9055740564983
570,498.9217544623104
571,498.93900837845905
572,498.9572989155072
573,498.97658817146475
574,498.9968376417037
575,499.0180086115177
576,499.0400625254719
577,499.0629613271815
578,499.0866677634119
579,499.11114564728547
580,499.1363600768221
581,499.16227760693266
582,499.18886637513657
583,499.21609618343393
584,499.24393854046326
585,499.2723666688226
586,499.30135548216236
587,499.3308815358904
588,499.36092295471775
589,499.3914593400975
590,499.422471660704
591,499.45394212902926
592,499.4858540665694
593,499.5181917590055
594,499.55094030181186
595,499.5840854364268
596,499.6176133775842
597,499.6515106332288
598,499.6857638192024
599,499.7203594714792
600,499.75528385912395
601,499.7905228011297
602,499.8260614897585
603,499.8618843223095
604,499.89797474286627
605,499.9343150955606
606,499.97088649097986
607,500.0076686874881
608,500.0446399895405
609,500.08177716530696
610,500.1190553856118
611,500.15644818534685
612,500.1939274476653
613,500.2314634107837
614,500.2690246969859
615,500.306578363216
616,500.34408997245964
617,500.3815236850562
618,500.41884236910556
619,500.4560077292748
620,500.49298045364833
621,500.52972037849355
622,500.56618667026373
623,500.60233802272154
624,500.6381328655741
625,500.6735295803355
626,500.70848671949756
627,500.74296322623786
628,500.7769186533763
629,500.81031338161034
630,500.8431088378919
631,500.87526771512324
632,500.90675419411957
633,500.9375341679077
634,500.9675754669645
635,500.99684808238004
636,501.02532438267707
637,501.0529793193355
638,501.07979061579596
639,501.10573893454216
640,501.13080801654843
641,501.15498478699425
642,501.17825942149875
643,501.200625369055
644,501.2220793309491
645,501.24262119775744
646,501.2622539482054
647,501.2809835148393
648,501.2988186228424
649,501.31577060964224
650,501.33185323330633
651,501.34708247674473
652,501.36147635290536
653,501.37505471418064
654,501.38783906748347
655,501.3998523948592
656,501.41111897823527
657,501.4216642263736
658,501.4315145022539
659,501.4406969494682
660,501.44923931663374
661,501.45716977988536
662,501.46451676543296
663,501.4713087763463
664,501.4775742291282
665,501.48334130563995
666,501.48863782463695
667,501.4934911350827
668,501.49792803115014
669,501.5019746868665
670,501.5056566069507
671,501.5089985896967
672,501.5120246979794
673,501.5147582354858
674,501.51722172641945
675,501.51943689754177
676,501.52142466158847
677,501.5232051013626
678,501.5247974543405
679,501.5262200980944
680,501.52749053678514
681,501.5286253883812
682,501.52964037171637
683,501.53055029294194
684,501.53136903269984
685,501.53210953743695
686,501.53278381904875
687,501.53340296582815
688,501.533977165421
689,501.5345157384763
690,501.53502718044916
691,501.53551920835866
692,501.5359988091728
693,501.5364722872494
694,501.5369453098585
695,501.53742295137874
696,501.5379097372825
697,501.5384096883808
698,501.53892636470874
699,501.5394629076773
700,501.54002207909787
701,501.5406062963376
702,501.54121766369815
703,501.5418580005925
704,501.54252886711083
705,501.54323158728556
706,501.5439672697958
707,501.54473682474594
708,501.54554097351786
709,501.54638024694316
710,501.54725496588725
711,501.5481651984945
712,501.5491106900249
713,501.5500907638648
714,501.55110419517587
715,501.5521490614987
716,501.55322257737447
717,501.5543209222473
718,501.5554390718164
719,501.55657064216837
720,501.557707753451
721,501.55884091608664
722,501.5599589388388
723,501.5610488560356
724,501.5620958715133
725,501.56308331839045
726,501.56399263537685
727,501.5648033615901
728,501.5654931527645
729,501.5660378221226
730,501.5664114090087
731,501.56658627796963
732,501.5665332506467
733,501.5662217725054
734,501.56562011561545
735,501.56469561713016
736,501.5634149510966
737,501.56174442941284
738,501.5596503266338
739,501.5570992229257
740,501.55405835925313
741,501.5504959982921
742,501.54638178354963
743,501.5416870880956
744,501.5363853434695
745,501.5304523388444
746,501.52386648045626
747,501.5166090016698
748,501.50866411500493
749,501.5000190990203
750,501.49066431478076
751,501.4805931483891
752,501.46980187805525
753,501.4582894669502
754,501.44605728663186
755,501.4331087795562
756,501.41944907247324
757,501.4050845549048
758,501.3900224380856
759,501.3742703095932
760,501.3578356977602
761,501.34072565853523
762,501.3229463960714
763,501.3045029267638
764,501.2853987945025
765,501.26563584258923
766,501.2452140451953
767,501.2241313986409
768,501.20238387049915
769,501.1799654029561
770,501.15686796608486
771,501.13308165645725
772,501.10859483635244
773,501.0833943084635
774,501.05746552047157
775,501.0307927933258
776,501.00335956678254
777,500.9751486560164
778,500.94614251399963
779,500.9163234953577
780,500.88567411771714
781,500.8541773158101
782,500.8218166823825
783,500.7885766892301
784,500.75444288177613
785,500.7194020411463
786,500.6834423085282
787,500.64655326814
788,500.6087259876875
789,500.5699530183921
790,500.53022835964805
791,500.4895473952858
792,500.44790680904026
793,500.4053044865914
794,500.36173941113185
795,500.3172115592585
796,500.27172180402
797,500.2252718318252
798,500.177864079277
799,500.1295016947784
800,500.0801885283819
801,500.02992915243084
802,499.97872891525117
803,499.926594030024
804,499.87353170055724
805,499.8195502849352
806,499.7646594968126
807,499.708870642151
808,499.6521968868607
809,499.5946535493951
810,499.536258412734
811,499.4770320518226
812,499.4169981738848
813,499.356183969255
814,499.2946204698316
815,499.2323429113516
816,499.1693910942255
817,499.1058097354949
818,499.0416488021311
819,498.97696381418405
820,498.9118161056188
821,498.8462730310321
822,498.78040810760103
823,498.7143010831272
824,498.6480379224534
825,498.58171070586496
826,498.5154174348154
827,498.44926174279067
828,498.383352512243
829,498.31780340164966
830,498.25273228903694
831,498.18826063933
832,498.1245128030982
833,498.0616152544443
834,497.99969577654156
835,497.93888260487904
836,497.879303540195
837,497.82108504443437
838,497.7643513332363
839,497.70922347752384
840,497.65581852520546
841,497.6042486523239
842,497.55462035174827
843,497.50703366712867
844,497.4615814802374
845,497.4183488604142
846,497.37741248515647
847,497.33884014088454
848,497.30269031243694
849,497.2690118685106
850,497.2378438479942
851,497.20921534950065
852,497.18314552399875
853,497.1596436682978
854,497.1387094147889
855,497.1203330101152
856,497.1044956728285
857,497.09117001840525
858,497.0803205397276
859,497.0719041321637
860,497.06587065410514
861,497.0621635154234
862,497.0607202872456
863,497.0614733268309
864,497.0643504116927
865,497.06927537779353
866,497.07616875731
867,497.0849484114966
868,497.0955301532106
869,497.10782835209
870,497.1217565140998
871,497.1372278268756
872,497.1541556632122
873,497.1724540370492
874,497.19203800911043
875,497.2128240423798
876,497.23473031014663
877,497.25767696116054
878,497.2815863476175
879,497.3063832221538
880,497.3319949093987
881,497.3583514561018
882,497.3853857622059
883,497.41303369424924
884,497.4412341822327
885,497.46992930119103
886,497.4990643389062
887,497.5285878514766
888,497.55845170873647
889,497.5886111315209
890,497.61902472226006
891,497.6496544894623
892,497.6804658657216
893,497.7114277183457
894,497.7425123514818
895,497.7736954984733
896,497.8049563032112
897,497.8362772897075
