frame_number,force
0,737.8621800067916
1,737.8269241641605
2,737.79193578609
3,737.7574808447769
4,737.7238223395386
5,737.6912188397712
6,737.659923062278
7,737.6301804928132
8,737.6022280609553
9,737.5762928774409
10,737.552591043472
11,737.531326541644
12,737.5126902177135
13,737.4968588615615
14,737.4839943947073
15,737.474243170784
16,737.467735394568
17,737.4645846644319
18,737.4648876422046
19,737.4687238531171
20,737.4761556167082
21,737.4872281071973
22,737.5019695387294
23,737.5203914673551
24,737.5424891985182
25,737.5682422869073
26,737.5976151148006
27,737.6305575351247
28,737.667005566195
29,737.7068821264719
30,737.7500977993844
31,737.7965516200796
32,737.8461318778383
33,737.8987169298053
34,737.954176023282
35,738.0123701248759
36,738.0731527553767
37,738.1363708295268
38,738.2018654999183
39,738.2694730037958
40,738.3390255103736
41,738.410351964597
42,738.4832789216854
43,738.557631365959
44,738.6332335078106
45,738.7099095541628
46,738.7874844495004
47,738.8657845856056
48,738.9446384782864
49,739.0238774091923
50,739.1033360304012
51,739.1828529285733
52,739.2622711443017
53,739.3414386416754
54,739.4202087236694
55,739.4984403907664
56,739.5759986426518
57,739.6527547251358
58,739.7285863257865
59,739.803377721754
60,739.8770198822698
61,739.9494105268539
62,740.0204541388781
63,740.0900619334985
64,740.1581517795305
65,740.2246480764878
66,740.2894815901823
67,740.3525892523162
68,740.413913930895
69,740.4734041788038
70,740.5310139675995
71,740.586702412788
72,740.6404334959436
73,740.6921757882319
74,740.7419021793564
75,740.7895896157472
76,740.8352188516471
77,740.878774215988
78,740.9202433963018
79,740.9596172392282
80,740.9968895667749
81,741.0320570087123
82,741.0651188535841
83,741.0960769230182
84,741.1249354760839
85,741.1517011518304
86,741.1763829579309
87,741.1989923112658
88,741.2195431330497
89,741.2380519975898
90,741.25453833029
91,741.2690246472602
92,741.2815368261925
93,741.2921043963937
94,741.3007608351887
95,741.3075438582174
96,741.3124956922419
97,741.3156633206904
98,741.3170986937242
99,741.3168588957896
100,741.315006264834
101,741.3116084593042
102,741.3067384717131
103,741.3004745901294
104,741.2929003104683
105,741.2841042026993
106,741.2741797335557
107,741.2632250476321
108,741.2513427080879
109,741.2386393973403
110,741.225225576953
111,741.2112151047535
112,741.1967248066703
113,741.1818740012222
114,741.1667839758319
115,741.1515774158312
116,741.136377788761
117,741.1213086879218
118,741.1064931399272
119,741.0920528813423
120,741.0781076094692
121,741.0647742121911
122,741.0521659820012
123,741.0403918203283
124,741.0295554398263
125,741.0197545739348
126,741.0110802045534
127,741.003615819919
128,740.9974367151773
129,740.9926093472958
130,740.9891907543466
131,740.9872280476079
132,740.9867579836733
133,740.9878066227491
134,740.9903890786155
135,740.9945093652758
136,741.000160344788
137,741.0073237799085
138,741.015970493838
139,741.0260606372892
140,741.0375440601468
141,741.0503607816996
142,741.0644415507605
143,741.0797084855833
144,741.0960757830387
145,741.1134504864169
146,741.1317333011542
147,741.150819448065
148,741.1705995445415
149,741.1909605051425
150,741.2117864531705
151,741.2329596340212
152,741.2543613199012
153,741.2758726946582
154,741.2973757075503
155,741.3187538862443
156,741.3398931019597
157,741.3606822823112
158,741.3810140688776
159,741.400785416711
160,741.4198981329786
161,741.4382593527121
162,741.4557819512055
163,741.4723848939971
164,741.4879935258915
165,741.5025398002858
166,741.515962449851
167,741.5282070998902
168,741.5392263264331
169,741.548979662073
170,741.5574335534844
171,741.5645612752837
172,741.5703428051945
173,741.5747646654584
174,741.577819735394
175,741.5795070399889
176,741.5798315190469
177,741.5788037807008
178,741.576439842563
179,741.572760863778
180,741.5677928713321
181,741.5615664835838
182,741.5541166331471
183,741.5454822905704
184,741.5357061898711
185,741.5248345567941
186,741.5129168405358
187,741.5000054495122
188,741.4861554913002
189,741.4714245161409
190,741.4558722625109
191,741.4395604023629
192,741.4225522827268
193,741.4049126597963
194,741.386707421978
195,741.3680032999018
196,741.3488675635542
197,741.3293677085195
198,741.309571134026
199,741.2895448148907
200,741.2693549678627
201,741.2490667110628
202,741.2287437141813
203,741.2084478372628
204,741.1882387567981
205,741.1681735786589
206,741.1483064380652
207,741.1286880875672
208,741.1093654750368
209,741.090381314765
210,741.0717736558471
211,741.0535754529938
212,741.0358141455378
213,741.0185112508974
214,741.0016819795225
215,740.9853348796241
216,740.9694715213712
217,740.9540862308988
218,740.9391658838604
219,740.9246897668243
220,740.9106295136669
221,740.8969491239562
222,740.8836050707337
223,740.8705465050017
224,740.8577155627329
225,740.8450477773162
226,740.8324725967294
227,740.8199140010454
228,740.8072912126204
229,740.7945194887142
230,740.7815109843725
231,740.7681756721144
232,740.7544223043883
233,740.7401594048596
234,740.7252962750424
235,740.7097440032201
236,740.6934164627377
237,740.6762312866101
238,740.6581108053267
239,740.6389829353675
240,740.6187820075024
241,740.5974495259809
242,740.5749348516432
243,740.5511958035289
244,740.526199174725
245,740.499921159046
246,740.4723476858946
247,740.4434746615483
248,740.4133081162266
249,740.3818642574133
250,740.349169430651
251,740.3152599890847
252,740.2801820725285
253,740.2439912963698
254,740.2067523508505
255,740.1685385126011
256,740.1294310726635
257,740.0895186881479
258,740.0488966675158
259,740.007666201448
260,739.9659335516842
261,739.9238092092639
262,739.8814070322172
263,739.8388433715165
264,739.7962361927774
265,739.7537041994875
266,739.7113659616548
267,739.6693390522141
268,739.6277391928913
269,739.5866794118185
270,739.5462692167964
271,739.5066137900707
272,739.4678132121593
273,739.4299617230715
274,739.3931470289422
275,739.3574496611924
276,739.322942394973
277,739.2896897344633
278,739.2577474739849
279,739.2271623447265
280,739.1979717565189
281,739.1702036423658
282,739.1438764106571
283,739.1189990071186
284,739.0955710865866
285,739.0735832935267
286,739.0530176486926
287,739.0338480365145
288,739.0160407839319
289,738.9995553174446
290,738.9843448820893
291,738.9703573043298
292,738.9575357804705
293,738.9458196728763
294,738.9351452976829
295,738.9254466895595
296,738.9166563313022
297,738.9087058386134
298,738.9015265935817
299,738.8950503239021
300,738.8892096279085
301,738.8839384470607
302,738.8791724875805
303,738.8748495924099
304,738.8709100645247
305,738.8672969429704
306,738.8639562332002
307,738.8608370930739
308,738.8578919757473
309,738.8550767312582
310,738.8523506698031
311,738.8496765906968
312,738.8470207812993
313,738.8443529899364
314,738.841646376504
315,738.8388774441963
316,738.8360259554692
317,738.8330748346641
318,738.8300100586524
319,738.8268205357646
320,738.8234979726222
321,738.8200367283007
322,738.8164336553009
323,738.8126879271866
324,738.808800853508
325,738.8047756833063
326,738.8006173984546
327,738.7963324974742
328,738.7919287699686
329,738.7874150618526
330,738.7828010319632
331,738.7780969014418
332,738.7733131985149
333,738.7684605025141
334,738.7635491912744
335,738.7585891954303
336,738.7535897624184
337,738.7485592328185
338,738.7435048320028
339,738.7384324808721
340,738.733346630671
341,738.7282501280392
342,738.723144117013
343,738.718027984337
344,738.7128993532119
345,738.7077541287254
346,738.7025865960067
347,738.6973895696077
348,738.6921545897129
349,738.6868721578743
350,738.6815320028153
351,738.676123366115
352,738.6706352981971
353,738.6650569562657
354,738.659377897029
355,738.6535883582658
356,738.6476795248329
357,738.6416437764955
358,738.6354749164518
359,738.6291683800504
360,738.6227214227947
361,738.6161332858226
362,738.6094053364434
363,738.6025411814368
364,738.5955467513962
365,738.588430355079
366,738.5812027032604
367,738.5738769019306
368,738.5664684151059
369,738.5589949984469
370,738.5514766062685
371,738.5439352758998
372,738.5363949944057
373,738.5288815532933
374,738.521422396763
375,738.5140464679793
376,738.5067840558263
377,738.4996666422318
378,738.4927267480189
379,738.4859977736271
380,738.4795138298488
381,738.4733095529995
382,738.467419898984
383,738.4618799116485
384,738.456724462341
385,738.4519879591719
386,738.4477040257202
387,738.4439051498643
388,738.4406223042774
389,738.4378845412923
390,738.4357185666898
391,738.4341482994118
392,738.4331944265327
393,738.4328739644178
394,738.4331998379458
395,738.4341804903154
396,738.4358195358744
397,738.4381154668109
398,738.441061421333
399,738.4446450172012
400,738.4488482514619
401,738.4536474657028
402,738.4590133760477
403,738.4649111676721
404,738.471300653888
405,738.4781364991228
406,738.4853685035998
407,738.4929419459601
408,738.5007979789075
409,738.5088740718452
410,738.5171044927692
411,738.5254208195759
412,738.5337524696637
413,738.542027237456
414,738.5501718319741
415,738.5581124095349
416,738.5657750989033
417,738.5730865175981
418,738.579974278828
419,738.5863674887918
420,738.5921972335727
421,738.597397053565
422,738.6019034020755
423,738.605656084374
424,738.608598674169
425,738.610678905614
426,738.6118490398225
427,738.6120662052772
428,738.6112927116487
429,738.6094963367482
430,738.6066505867935
431,738.602734930554
432,738.597735007793
433,738.5916428116436
434,738.5844568434848
435,738.5761822378844
436,738.5668308542345
437,738.5564213307806
438,738.5449790963481
439,738.5325363357404
440,738.5191319065464
441,738.5048112074244
442,738.489626000001
443,738.4736341875375
444,738.4568995531746
445,738.4394914595304
446,738.421484510791
447,738.4029581788175
448,738.383996395992
449,738.3646871186969
450,738.3451218658817
451,738.3253952372946
452,738.3056044160011
453,738.2858486596509
454,738.266228784331
455,738.2468466439896
456,738.2278046081576
457,738.2092050413734
458,738.1911497886945
459,738.173739672031
460,738.1570740017274
461,738.1412501074336
462,738.1263628919825
463,738.1125044114941
464,738.099763484304
465,738.0882253307334
466,738.0779712450362
467,738.0690782998889
468,738.0616190826123
469,738.0556614611356
470,738.0512683766507
471,738.0484976589726
472,738.0474018599518
473,738.0480281001948
474,738.0504179251043
475,738.0546071675556
476,738.060625815686
477,738.0684978849613
478,738.0782412939826
479,738.0898677438822
480,738.1033826020106
481,738.1187847918973
482,738.1360666926811
483,738.1552140517832
484,738.1762059144771
485,738.1990145737556
486,738.223605544143
487,738.2499375637766
488,738.2779626295455
489,738.3076260700183
490,738.3388666607298
491,738.3716167865713
492,738.405802656244
493,738.4413445733932
494,738.4781572679456
495,738.5161502894119
496,738.5552284614308
497,738.5952923938812
498,738.6362390461578
499,738.6779623330397
500,738.7203537627989
501,738.7633030959611
502,738.8066990130503
503,738.850429780791
504,738.8943839078362
505,738.9384507826228
506,738.9825212876326
507,739.0264883863642
508,739.0702476813003
509,739.113697942451
510,739.1567416065651
511,739.1992852471183
512,739.241240014978
513,739.2825220493602
514,739.3230528583692
515,739.3627596678633
516,739.4015757365828
517,739.4394406346559
518,739.4763004820711
519,739.5121081436679
520,739.5468233776924
521,739.5804129356615
522,739.6128506116662
523,739.6441172391648
524,739.6742006331689
525,739.7030954762057
526,739.7308031478415
527,739.7573314993972
528,739.7826945770194
529,739.8069122971935
530,739.8300100790453
531,739.8520184372957
532,739.872972538757
533,739.8929117244649
534,739.9118789996206
535,739.9299204947481
536,739.9470849036109
537,739.9634229059626
538,739.9789865854569
539,739.9938288543362
540,740.0080028963149
541,740.021561637499
542,740.0345572530516
543,740.047040715216
544,740.0590613860032
545,740.0706666549755
546,740.0819016195017
547,740.0928088027972
548,740.1034279049343
549,740.1137955838591
550,740.1239452663378
551,740.1339069912636
552,740.143707288875
553,740.1533690990844
554,740.1629117310374
555,740.1723508651212
556,740.1816985984202
557,740.190963534897
558,740.2001509217711
559,740.209262833229
560,740.2182984015474
561,740.2272540939377
562,740.2361240312374
563,740.24490034261
564,740.2535735489666
565,740.2621329664627
566,740.2705671197848
567,740.2788641534988
568,740.2870122293796
569,740.2949998987273
570,740.3028164407855
571,740.3104521607703
572,740.3178986428613
573,740.3251489542384
574,740.3321977962986
575,740.3390415998707
576,740.3456785635116
577,740.3521086374564
578,740.3583334592082
579,740.3643562490714
580,740.3701816749231
581,740.3758156952358
582,740.3812653878348
583,740.3865387694697
584,740.3916446088923
585,740.3965922345884
586,740.4013913377211
587,740.4060517707517
588,740.4105833421532
589,740.4149956076496
590,740.4192976588707
591,740.4234979113553
592,740.4276038950816
593,740.4316220515641
594,740.435557541801
595,740.4394140691494
596,740.4431937207506
597,740.4468968305403
598,740.4505218662592
599,740.454065342284
600,740.4575217594789
601,740.460883572703
602,740.4641411861844
603,740.4672829766816
604,740.47029534406
605,740.4731627885534
606,740.4758680133866
607,740.4783920507319
608,740.4807144087204
609,740.4828132379097
610,740.4846655171242
611,740.4862472603609
612,740.4875337476797
613,740.4884997830533
614,740.4891199810618
615,740.4893690825307
616,740.4892222971291
617,740.4886556690216
618,740.4876464604137
619,740.4861735472095
620,740.4842178203132
621,740.4817625848309
622,740.4787939477924
623,740.4753011837527
624,740.4712770672953
625,740.4667181622542
626,740.4616250592495
627,740.4560025554836
628,740.449859773199
629,740.4432102156192
630,740.4360717614354
631,740.428466600459
632,740.4204211133415
633,740.4119656974223
634,740.4031345396905
635,740.393965337527
636,740.3844989688082
637,740.3747791149971
638,740.3648518435931
639,740.3547651592908
640,740.3445685356912
641,740.3343124403953
642,740.3240478650855
643,740.3138258692368
644,740.3036971427985
645,740.2937115908243
646,740.2839179418688
647,740.2743633816143
648,740.2650932132273
649,740.256150546014
650,740.2475760136567
651,740.2394075226711
652,740.2316800312772
653,740.2244253589691
654,740.2176720274861
655,740.2114451340889
656,740.2057662577906
657,740.2006533986829
658,740.1961209502542
659,740.192179704943
660,740.188836893945
661,740.1860962629904
662,740.1839581861019
663,740.1824198192392
664,740.181475295096
665,740.1811159587629
666,740.1813306414654
667,740.1821059667263
668,740.183426681255
669,740.1852760025928
670,740.1876359769612
671,740.1904878426274
672,740.1938123951303
673,740.197590350197
674,740.2018026982782
675,740.2064310422652
676,740.211457908266
677,740.2168670191763
678,740.222643522218
679,740.228774163886
680,740.2352474079889
681,740.2420534944781
682,740.2491844386986
683,740.2566339722563
684,740.2643974271886
685,740.2724715647922
686,740.2808543505573
687,740.2895446780896
688,740.298542047288
689,740.3078462044435
690,740.3174567537683
691,740.3273727509762
692,740.3375922899637
693,740.3481120937307
694,740.3589271208994
695,740.3700301997758
696,740.3814117024871
697,740.3930592714352
698,740.4049576084442
699,740.4170883336318
700,740.4294299171219
701,740.4419576833096
702,740.4546438848513
703,740.467457841399
704,740.4803661360854
705,740.49333286145
706,740.5063199064538
707,740.5192872770414
708,740.5321934435216
709,740.5449957084733
710,740.5576505889048
711,740.5701142058446
712,740.5823426733302
713,740.5942924774932
714,740.605920835875
715,740.617186027463
716,740.6280476849404
717,740.6384670423937
718,740.6484071344893
719,740.6578329464548
720,740.6667115169814
721,740.6750119977929
722,740.6827056745386
723,740.6897659543783
724,740.6961683260624
725,740.7018902982156
726,740.7069113210509
727,740.711212696331
728,740.7147774802947
729,740.7175903841879
730,740.7196376765284
731,740.7209070902951
732,740.7213877374477
733,740.721070033114
734,740.7199456322971
735,740.7180073823957
736,740.7152492948991
737,740.7116665396517
738,740.7072554652603
739,740.7020136491741
740,740.6959399802438
741,740.6890347752883
742,740.6812999298473
743,740.6727391022036
744,740.6633579287488
745,740.6531642675502
746,740.6421684654845
747,740.6303836426343
748,740.6178259858485
749,740.6045150417777
750,740.5904739991012
751,740.5757299507471
752,740.560314129352
753,740.5442621117932
754,740.5276139903402
755,740.5104145086724
756,740.4927131611595
757,740.474564253895
758,740.4560269261934
759,740.4371651317092
760,740.4180475790046
761,740.3987476320145
762,740.3793431708386
763,740.3599164123715
764,740.3405536890116
765,740.3213451830226
766,740.3023846147053
767,740.2837688844045
768,740.2655976709509
769,740.2479729914302
770,740.2309987283105
771,740.2147801298383
772,740.1994232888212
773,740.1850346042986
774,740.1717202305284
775,740.1595855178188
776,740.1487344493921
777,740.1392690776527
778,740.1312889624744
779,740.1248906137808
780,740.12016694077
781,740.1172067106643
782,740.1160940206312
783,740.1169077870292
784,740.1197212561273
785,740.124601540304
786,740.131609183945
787,740.1407977638341
788,740.1522135291992
789,740.1658950863224
790,740.1818731318627
791,740.2001702381846
792,740.2208006931673
793,740.243770395959
794,740.2690768088318
795,740.2967089641293
796,740.3266475247852
797,740.3588648969578
798,740.393325393444
799,740.429985446297
800,740.4687938662112
801,740.509692144777
802,740.5526147941805
803,740.5974897181021
804,740.64423860756
805,740.6927773557119
806,740.7430164858549
807,740.7948615874656
808,740.8482137565481
809,740.9029700385302
810,740.9590238734587
811,741.016265543418
812,741.0745826208496
813,741.1338604147458
814,741.1939824105831
815,741.2548306998062
816,741.3162863954427
817,741.3782300316427
818,741.4405419462355
819,741.5031026465721
820,741.5657931598772
821,741.6284953701216
822,741.6910923440165
823,741.753468649021
824,741.8155106662321
825,741.877106900762
826,741.9381482915749
827,741.9985285215522
828,742.0581443268085
829,742.1168958022864
830,742.1746866988896
831,742.2314247063512
832,742.2870217158853
833,742.3413940570748
834,742.3944627040821
835,742.4461534472894
836,742.4963970280212
837,742.5451292356815
838,742.5922909680719
839,742.6378282568968
840,742.6816922611874
841,742.7238392309022
842,742.7642304414807
843,742.802832099061
844,742.8396152168496
845,742.8745554657712
846,742.9076330056586
847,742.9388323051946
848,742.9681419588803
849,742.9955545078336
850,743.0210662691829
851,743.0446771771075
852,743.0663906376919
853,743.0862133995593
854,743.1041554420932
855,743.1202298823746
856,743.134452900581
857,743.1468436820612
858,743.1574243733675
859,743.1662200495629
860,743.173258690724
861,743.1785711660096
862,743.1821912234524
863,743.1841554827516
864,743.1845034271871
865,743.1832773896915
866,743.1805225273647
867,743.1762867785039
868,743.170620796881
869,743.1635778595074
870,743.1552137460393
871,743.1455865897701
872,743.1347567016181
873,743.1227863696338
874,743.109739637057
875,743.0956820615462
876,743.0806804570851
877,743.06480261887
878,743.0481170307496
879,743.03069255477
880,743.0125981030055
881,742.9939022929256
882,742.974673088829
883,742.9549774333252
884,742.9348808744521
885,742.9144471956364
886,742.8937380566616
887,742.8728126534977
888,742.8517274033974
889,742.8305356600971
890,742.8092874630869
891,742.788029324711
892,742.7668040587993
893,742.7456506543269
894,742.7246041972948
895,742.7036958433849
896,742.6829528425195
897,742.6623986143892
898,742.6420528722825
899,742.6219317918095
900,742.602048221152
901,742.5824119294814
902,742.563029889667
903,742.5439065904004
904,742.5250443716743
905,742.5064437765665
906,742.4881039118827
907,742.4700228103227
908,742.4521977868272
909,742.4346257812991
910,742.4173036794515
911,742.4002286038999
912,742.3833981689335
913,742.3668106941949
914,742.35046537416
915,742.3343624016521
916,742.3185030447339
917,742.3028896772586
918,742.2875257641593
