frame_number,force
0,625.392700000068
1,624.6415372369743
2,623.9110633562277
3,623.2199029024581
4,622.5828869881677
5,622.0099056657112
6,621.5054482173969
7,621.0687983559164
8,620.6947507160497
9,620.3746680059353
10,620.0976986313813
11,619.8520076097744
12,619.6259228570503
13,619.4089448407906
14,619.1925895566385
15,618.9710233420909
16,618.7414166067343
17,618.5039272145492
18,618.2612584277334
19,618.0178277418835
20,617.7786974257534
21,617.5484950537599
22,617.3305456192627
23,617.1263510012565
24,616.9354415686845
25,616.7555438281321
26,616.5829780913924
27,616.4132095401591
28,616.2414950042712
29,616.06356733277
30,615.8762778919722
31,615.6781042867723
32,615.4694484437748
33,615.2526888675743
34,615.031984716761
35,614.8128554673311
36,614.6015915805634
37,614.4045840449031
38,614.2276727274481
39,614.0755970355552
40,613.9516000081544
41,613.8572047669815
42,613.7921555057756
43,613.7544928954322
44,613.7407234102957
45,613.746054910055
46,613.764699821139
47,613.7902663002467
48,613.8162478834266
49,613.8365892182358
50,613.8462702474516
51,613.8418297399526
52,613.8217469531214
53,613.7866171350657
54,613.7390882225795
55,613.6835652752628
56,613.6257267463302
57,613.5719199624434
58,613.5285032472104
59,613.501188627789
60,613.4944346420001
61,613.5109493143885
62,613.5513675204828
63,613.6141459510695
64,613.6956825202652
65,613.7906382148573
66,613.8924278313053
67,613.993847092549
68,614.0878058569833
69,614.1681251718749
70,614.2303234627465
71,614.2722819459586
72,614.294670403173
73,614.3010420687843
74,614.2975570615919
75,614.2923505063803
76,614.2946141035277
77,614.3135023199336
78,614.3570051697689
79,614.4309492515035
80,614.5382896720255
81,614.6788221057711
82,614.8493696181793
83,615.0443993933388
84,615.2569326983127
85,615.4795543475298
86,615.7053173123763
87,615.9283784397765
88,616.1442905633469
89,616.3499881150806
90,616.5435842261353
91,616.7241072769025
92,616.8912566845171
93,617.0452009205329
94,617.1864137715723
95,617.3155501732709
96,617.4333760830964
97,617.5407610675218
98,617.6387117651441
99,617.7283901728824
100,617.8110538564686
101,617.887891648554
102,617.9597937859273
103,618.027149512447
104,618.0897696749267
105,618.1469845638037
106,618.1979026893348
107,618.2417686128274
108,618.27833800815
109,618.3081935317923
110,618.3329469006284
111,618.3552918806574
112,618.3788797248577
113,618.4079991153716
114,618.4470765082332
115,618.5000656471652
116,618.5698431239225
117,618.6577425797757
118,618.7633265801586
119,618.8844248880779
120,619.0174002291435
121,619.1575691854581
122,619.2997045751249
123,619.4385542158766
124,619.5693168419006
125,619.6880266877795
126,619.7918215616029
127,619.8790937876253
128,619.9495311504504
129,620.0040466911528
130,620.0445929574842
131,620.0738762090452
132,620.0950235146465
133,620.1112812973855
134,620.1258079999346
135,620.1415661822457
136,620.1612564737538
137,620.1872133867664
138,620.2212202539106
139,620.26427253818
140,620.3163784610912
141,620.3765001236679
142,620.4426992198222
143,620.5124758757235
144,620.5832151297602
145,620.6526186863168
146,620.7190128648264
147,620.781480935891
148,620.839841763973
149,620.8945406853517
150,620.9465074090297
151,620.996995350709
152,621.0473936085036
153,621.0990135233355
154,621.152877238647
155,621.2095494762166
156,621.269046354986
157,621.3308362616797
158,621.3939283848456
159,621.4570236788114
160,621.5186846804585
161,621.5774848167653
162,621.6321320092082
163,621.6815964191321
164,621.7252714550466
165,621.7631600759263
166,621.7960373787267
167,621.8255218214309
168,621.853995475765
169,621.8843474079895
170,621.9195705781847
171,621.9622988020941
172,622.014392148669
173,622.0766579933638
174,622.1487558632834
175,622.2293009310096
176,622.3161531229997
177,622.4068468541433
178,622.4990807785841
179,622.5911608159901
180,622.6822937338187
181,622.7726738612175
182,622.8633727136283
183,622.9560908799829
184,623.0528433943143
185,623.1556362980137
186,623.2661699669927
187,623.3855804991844
188,623.5142130983425
189,623.6514215655496
190,623.7954041562097
191,623.9431083111319
192,624.0902557773746
193,624.2315441151441
194,624.3610593678375
195,624.4728874848136
196,624.5618522546314
197,624.6242543822235
198,624.658461524721
199,624.6652219023306
200,624.647643263717
201,624.6108632748233
202,624.5614977432983
203,624.5069705071287
204,624.4548114681104
205,624.4119823565268
206,624.3842775472292
207,624.3758561683221
208,624.3889732681813
209,624.4239580934704
210,624.4794226090011
211,624.5526079237299
212,624.639746093137
213,624.736347175061
214,624.8373840645035
215,624.9374033400735
216,625.0306257587629
217,625.111112049664
218,625.1730501321789
219,625.2111645071863
220,625.2211775143703
221,625.2002085932727
222,625.1470116523569
223,625.062009447126
224,624.9471456277201
225,624.8056075314267
226,624.6414765725476
227,624.4593584298372
228,624.2640437565893
229,624.0602471506724
230,623.8524556497239
231,623.6448827744036
232,623.4414855964517
233,623.2459857345243
234,623.0618460928182
235,622.8921792868075
236,622.739589625688
237,622.605972070255
238,622.4923044602428
239,622.3984774406608
240,622.3232110687521
241,622.2640944519355
242,622.2177481415142
243,622.1800675418516
244,622.146487597638
245,622.1122268557974
246,622.0725071941811
247,622.0227691822673
248,621.9588933906819
249,621.8774134922357
250,621.7756941492021
251,621.6520512098409
252,621.5058106688808
253,621.3373328350325
254,621.1480519882653
255,620.9405728024092
256,620.7188132285921
257,620.4881133123193
258,620.2551874227694
259,620.0278175396826
260,619.8142600371882
261,619.6224305752008
262,619.459003706506
263,619.3285908072895
264,619.2331366881228
265,619.171621640029
266,619.1400989140201
267,619.1320477204478
268,619.1389811903074
269,619.1512303722495
270,619.1588348724706
271,619.1524872746386
272,619.1244751405595
273,619.0695353877235
274,618.9854990392699
275,618.8735926230376
276,618.7383050995854
277,618.5868213543973
278,618.4281217765262
279,618.2719104734044
280,618.127552448853
281,618.0031785147637
282,617.9050585802346
283,617.8372640088041
284,617.801574644062
285,617.7975641403538
286,617.8228094732663
287,617.8731894461629
288,617.9432481563724
289,618.0266009797782
290,618.1163551712186
291,618.205516088175
292,618.2873635091798
293,618.3557984466728
294,618.4056581644803
295,618.4329808589309
296,618.4351985460519
297,618.411254888954
298,618.361662425787
299,618.2885141922092
300,618.1954552043339
301,618.0876113567193
302,617.9714649910154
303,617.8546485354195
304,617.7456037911162
305,617.6530510592438
306,617.5852556823049
307,617.5491577736908
308,617.5494961097716
309,617.588074413225
310,617.6632953202886
311,617.7700495846103
312,617.9000046292407
313,618.0422848602634
314,618.184482067076
315,618.3138890462524
316,618.4188184038944
317,618.4898541081559
318,618.5208887653406
319,618.5098177917052
320,618.4587819672017
321,618.3738857457643
322,618.264401064264
323,618.1415870749819
324,618.0173485566746
325,617.9029607577286
326,617.808019137914
327,617.7396921526421
328,617.7023095356818
329,617.6973017863075
330,617.7234816639692
331,617.7776034208546
332,617.8550708971046
333,617.9506330005044
334,618.0589268745732
335,618.174797249706
336,618.293406307328
337,618.4102138284084
338,618.5209263706873
339,618.6214896306241
340,618.7081529420549
341,618.777594451584
342,618.8270766628872
343,618.8546028284024
344,618.8590487036375
345,618.8402429544911
346,618.7989709642624
347,618.7368899403498
348,618.656366395012
349,618.5602721856025
350,618.4517930876947
351,618.3343038930961
352,618.2113407462039
353,618.0866634777526
354,617.9643655469633
355,617.8489693334184
356,617.7454438500195
357,617.6590978333209
358,617.5953247005982
359,617.5591983271912
360,617.5549397873767
361,617.5853025726626
362,617.6509629854178
363,617.7500433240209
364,617.8779086132118
365,618.02733664863
366,618.1890738581935
367,618.3526989621539
368,618.507665871569
369,618.6443955619127
370,618.7553078238116
371,618.8356956227778
372,618.8843366564471
373,618.9037263017556
374,618.8998360851818
375,618.881372940958
376,618.8586210521746
377,618.8420443606258
378,618.8408781963216
379,618.861940449676
380,618.90885742938
381,618.9818272950853
382,619.0779333449514
383,619.1918947769374
384,619.3170543258656
385,619.4463885133788
386,619.5733781902802
387,619.6926514521779
388,619.8003736189975
389,619.8944031499318
390,619.9742583272581
391,620.0409383217724
392,620.096616878416
393,620.1442109042621
394,620.1868519549282
395,620.2273434131259
396,620.2677230961932
397,620.3090357093241
398,620.3513540120441
399,620.3940016380838
400,620.4358655252662
401,620.4756761682556
402,620.5121826850118
403,620.5442221322951
404,620.5707340916854
405,620.5907832435345
406,620.6036334259126
407,620.6088817900701
408,620.6066238430715
409,620.59759557431
410,620.5832406788447
411,620.5656777971209
412,620.547582129147
413,620.5320284556049
414,620.5223459111057
415,620.5220015068152
416,620.5344815158184
417,620.5631117464192
418,620.6107675368374
419,620.6794672970607
420,620.7699037083872
421,620.8810225057852
422,621.0097816943289
423,621.1511937453611
424,621.2986790488801
425,621.4446766981432
426,621.5814054605304
427,621.7016561312681
428,621.7995103589466
429,621.870900867613
430,621.9139528032426
431,621.9290790328546
432,621.9188308557591
433,621.8875170315401
434,621.8406151074001
435,621.7840404524635
436,621.7234009970435
437,621.6633940621131
438,621.607458504101
439,621.5577047873624
440,621.5150632267774
441,621.4795544026725
442,621.4505984884207
443,621.4273181698712
444,621.4088198165082
445,621.3944412601037
446,621.3839436691716
447,621.3776244516891
448,621.3763450598645
449,621.3814859992764
450,621.3948418361468
451,621.4184491270626
452,621.4543220477755
453,621.5040838291353
454,621.5685304402487
455,621.6472145076742
456,621.7381561161015
457,621.8377624019021
458,621.9409843152753
459,622.0416818011087
460,622.1331330890989
461,622.2086225354735
462,622.2620606088129
463,622.2885958807688
464,622.2851591702711
465,622.2508640529061
466,622.187205662439
467,622.0980367190928
468,621.9893294338997
469,621.8687542894598
470,621.745122381587
471,621.6277330950965
472,621.5256501554863
473,621.4469307197367
474,621.397870650733
475,621.3823775182977
476,621.4015971135838
477,621.4538778747857
478,621.5350771771393
479,621.6391367554328
480,621.7588192309282
481,621.8865043237397
482,622.0149597588094
483,622.1380057391734
484,622.2509949803282
485,622.3510541750276
486,622.4370766110573
487,622.5094991989579
488,622.5699235905143
489,622.6206502941238
490,622.6641968194464
491,622.7028676796167
492,622.7384269118155
493,622.771896904418
494,622.8034910207955
495,622.8326857790793
496,622.8584303076772
497,622.8794635332725
498,622.8946749564781
499,622.9034230320929
500,622.9057298642947
501,622.9023046004494
502,622.894397022289
503,622.8835248471432
504,622.8711406859801
505,622.8583110976078
506,622.845475200044
507,622.8323300561041
508,622.8178560273092
509,622.8004643826339
510,622.7782396607312
511,622.7492585522306
512,622.7119692084233
513,622.665583952738
514,622.6103873816602
515,622.5478424360581
516,622.4804222410148
517,622.4111810353581
518,622.3431539995257
519,622.2787173418487
520,622.2190487396624
521,622.1638082617935
522,622.1111076840308
523,622.0577618868459
524,621.999752384865
525,621.9328062875218
526,621.8530019717193
527,621.7573327126437
528,621.6441685866059
529,621.5135547288108
530,621.3672926527599
531,621.2087827474317
532,621.0426446419293
533,620.8741591610636
534,620.708593348291
535,620.550491744449
536,620.4030412277934
537,620.2676211851377
538,620.1436195303974
539,620.0285406516252
540,619.9183776122027
541,619.8081789943781
542,619.692714798092
543,619.5671415068946
544,619.4275846746222
545,619.2715896581052
546,619.0984208693619
547,618.9092021730512
548,618.7068893168364
549,618.4960696163745
550,618.28260454387
551,618.0731528820182
552,617.8746153694361
553,617.6935275930832
554,617.5354210460821
555,617.4041930495315
556,617.3015653118528
557,617.2267361358118
558,617.1763171431958
559,617.1445958091
560,617.1241081520485
561,617.1064625065487
562,617.0833199618706
563,617.0474006681228
564,616.9933630331433
565,616.9184187818653
566,616.8226001701263
567,616.7086614207424
568,616.5816504373914
569,616.4482212698177
570,616.3157806690133
571,616.1915815703018
572,616.0818851929292
573,615.9912978547995
574,615.9223514221934
575,615.8753586706998
576,615.8485507619295
577,615.8384836759909
578,615.8406691613504
579,615.8503501399981
580,615.8633177233319
581,615.8766585316782
582,615.8893172785541
583,615.9023643337598
584,615.9188901519135
585,615.9435175331909
586,615.9816106440317
587,616.0383323920552
588,616.1177330054545
589,616.2220337480163
590,616.3512083375654
591,616.5028856728566
592,616.6725330387582
593,616.8538484926746
594,617.0392924609464
595,617.2207051684353
596,617.3899702343085
597,617.5396866081569
598,617.6638030577717
599,617.7581570905091
600,617.8208508752936
601,617.8524043186478
602,617.8556585282447
603,617.8354499586526
604,617.7981154759314
605,617.7509062407457
606,617.7013772739506
607,617.656789413951
608,617.6235373569187
609,617.6066210836943
610,617.6092040330343
611,617.6323301131393
612,617.6748783252666
613,617.7337998622663
614,617.8046143901735
615,617.8820722071478
616,617.9608499092328
617,618.0361515671327
618,618.1041281668392
619,618.16208796917
620,618.208529807121
621,618.2430690870609
622,618.2663221150771
623,618.2797693267428
624,618.2855700293219
625,618.2862953716165
626,618.284586495627
627,618.2827932557386
628,618.2826706273335
629,618.2852018014493
630,618.2905914661332
631,618.2984369198215
632,618.308044203898
633,618.3188234033012
634,618.3306823110432
635,618.3443400260124
636,618.3614924984752
637,618.3847774321
638,618.417513631252
639,618.463231601545
640,618.5250558682087
641,618.6050343077009
642,618.7035361235345
643,618.8188546493461
644,618.947135244503
645,619.0826874226256
646,619.218648422692
647,619.3478765839355
648,619.4638949199145
649,619.5616964107566
650,619.6382714985876
651,619.692807032643
652,619.7265884744795
653,619.7426753664585
654,619.7454164981965
655,619.739860297791
656,619.7311259809525
657,619.7238261624474
658,619.7216376195632
659,619.7270765382067
660,619.7414640231981
661,619.7650168876731
662,619.7969977397764
663,619.8358889069909
664,619.8795822821529
665,619.9255890179918
666,619.971275828618
667,620.0141325848076
668,620.0520642790195
669,620.0836787952759
670,620.1085219314834
671,620.1272051008756
672,620.1413798548014
673,620.1535347770217
674,620.1666293780362
675,620.183630934856
676,620.2070532875358
677,620.2385862799658
678,620.2788672358714
679,620.3274184419781
680,620.3827650737588
681,620.4427330833046
682,620.5048913945435
683,620.5670580458611
684,620.6277568935953
685,620.6865092699705
686,620.7438809867737
687,620.8012654739565
688,620.8604459661425
689,620.9230301335688
690,620.9898800468534
691,621.0606581802427
692,621.1335776032888
693,621.2054005602619
694,621.2716943840928
695,621.3273282734438
696,621.3671617395288
697,621.3868259749225
698,621.3834535496076
699,621.3562061620187
700,621.3064967551627
701,621.2378737789031
702,621.1555978673512
703,621.065986058501
704,620.9756308279589
705,620.8906176070795
706,620.8158563705881
707,620.7546085871576
708,620.7082436106257
709,620.676218946468
710,620.6562546905894
711,620.6446581911339
712,620.6367484483383
713,620.6273326230602
714,620.6111932053669
715,620.5835462949054
716,620.540434575694
717,620.479033869751
718,620.3978738174338
719,620.2969803163708
720,620.177931947692
721,620.0438028280935
722,619.8989634692895
723,619.7487339794739
724,619.5989181937254
725,619.4552809989566
726,619.323055792671
727,619.2065704454506
728,619.109044782124
729,619.0325507232254
730,618.9780746157246
731,618.9456134255089
732,618.9342708863329
733,618.9423606949895
734,618.9675380746626
735,619.0069692494225
736,619.0575332868493
737,619.1160440018804
738,619.1794750266475
739,619.2451624158342
740,619.3109500484036
741,619.3752434237406
742,619.4369546415395
743,619.4953534905115
744,619.5498747862964
745,619.599952685953
746,619.6449415416657
747,619.6841393969855
748,619.7168834589029
749,619.7426716304286
750,619.7612802036657
751,619.7728645020791
752,619.7780281427972
753,619.7778365395399
754,619.7737486796987
755,619.7674573037796
756,619.7606567579184
757,619.75478377026
758,619.7507844230204
759,619.7489509628685
760,619.7488581358756
761,619.7494202537962
762,619.7490823515847
763,619.7461384504459
764,619.7391308514915
765,619.727239564019
766,619.710552084955
767,619.6901365501678
768,619.6679136239666
769,619.6463872091863
770,619.6283132984154
771,619.6163661279634
772,619.6128346701498
773,619.6193709829502
774,619.6368113854494
775,619.6650910065443
776,619.7032647064265
777,619.7496299396967
778,619.8019244937856
779,619.8575531225946
780,619.913787790905
781,619.9678928923731
782,620.017155384909
783,620.0588381080493
784,620.0900945113102
785,620.1078775060913
786,620.1088694346894
787,620.0894720245453
788,620.0459090587599
789,619.9744849068184
790,619.8720025515595
791,619.7362922495627
792,619.5667651737792
793,619.3649018228765
794,619.1345987709237
795,618.8823041194942
796,618.6168716969831
797,618.3490817933381
798,618.0908278919098
799,617.8540425499173
800,617.6495025172429
801,617.4856864786434
802,617.3678497287403
803,617.297441283988
804,617.2719378440303
805,617.2851141655042
806,617.3277143853522
807,617.3884387833982
808,617.4551235038153
809,617.5159756259201
810,617.5607340858628
811,617.5816478028836
812,617.5741822380738
813,617.5373825519848
814,617.4738494571751
815,617.3893333553837
816,617.2920096248824
817,617.1915379653669
818,617.0980244139245
819,617.0210066072724
820,616.9685768521598
821,616.9467378868343
822,616.9590498071459
823,617.0065822520521
824,617.088145808125
825,617.200745617041
826,617.3401778492728
827,617.5016765903811
828,617.6805149739264
829,617.8724694423449
830,618.0740775776287
831,618.2826716831296
832,618.4962456018551
833,618.7132702614006
834,618.9325675268266
835,619.1532777280639
836,619.3748685814586
837,619.597101885232
838,619.8199164743818
839,620.0432559883324
840,620.2669130720767
841,620.4904565941843
842,620.713267838981
843,620.934662227819
844,621.1540391139437
845,621.3709960474221
846,621.5853633610263
847,621.7971449809842
848,622.0063760687766
849,622.2129238697171
850,622.4162724089579
851,622.6153493369776
852,622.8084640623525
853,622.9934091089688
854,623.1677262617288
855,623.3290823128932
856,623.4756692633173
857,623.6065476348546
858,623.7218726709903
859,623.8229665129362
860,623.9122231055493
861,623.9928598505261
862,624.0685579323272
863,624.1430524990185
864,624.2197373005687
865,624.3013364217247
866,624.3896737352184
867,624.4855449917527
868,624.5886758237058
869,624.6977400215859
870,624.8104204205317
871,624.9235137633893
872,625.0330975733917
873,625.1347812161924
874,625.2240535798188
875,625.2967171303849
876,625.3493635266626
877,625.3798098255082
878,625.387397361858
879,625.3730743640469
880,625.3392386718672
881,625.2893883804411
882,625.2276796808991
883,625.1584955904302
884,625.0860944083837
885,625.0143635576959
886,624.9466727346144
887,624.885798449451
888,624.8338793818172
889,624.7923709950932
890,624.762000524625
891,624.742752726105
892,624.7339138331799
893,624.7341707850037
894,624.7417353111337
895,624.754458427873
896,624.769916452976
897,624.7854716255637
898,624.7983293157281
899,624.8056219439543
900,624.804542008558
901,624.7925255178149
902,624.7674611269529
903,624.7278809211173
904,624.673088408264
905,624.6032014765965
906,624.5191190835403
907,624.422438021358
908,624.3153401176361
909,624.2004526496644
910,624.0806772789736
911,623.9589941292277
912,623.8382648597783
913,623.721064377041
914,623.6095634174984
915,623.5054710738463
916,623.4100294900344
917,623.324037216057
