acceleration,velocity,displacement
0.0894189147209141,0.0,0.0
0.07752866581809988,8.3473790269507e-05,4.17368951347535e-08
0.06596590380989083,0.00015522107508350233,1.6108432781125818e-07
0.05502543893213762,0.00021571674645451654,3.4655323858026763e-07
0.04494203471123183,0.0002657004832762013,5.872618534456266e-07
0.03587224201728623,0.0003061076216404603,8.731659059039573e-07
0.02788712225890927,0.00033798730377855807,1.1952133686134664e-06
0.020975337235116933,0.00036241853352557115,1.545416287265531e-06
0.015054490571727844,0.00038043344742899355,1.916842277742813e-06
0.00998786150045532,0.0003929546234650851,2.3035363131898522e-06
0.005603678785725409,0.00040075039360817547,2.7003888217264824e-06
0.0017146050142031288,0.00040440953550813973,3.10296878628464e-06
-0.001864118686036139,0.0004043347786722232,3.5073409433748217e-06
-0.005298690720919576,0.00040075337396874535,3.909885019695306e-06
-0.008723405451735515,0.0003937423258824178,4.307132869620887e-06
-0.012230604648584435,0.0003832653208322578,4.695636692978225e-06
-0.015865078250428575,0.0003692174793827513,5.07187809308573e-06
-0.01962432740866587,0.0003514727765532041,5.4322232210537075e-06
-0.02346556184938814,0.0003299278319241771,5.772923525292398e-06
-0.02731885648478468,0.00030453562275709067,6.090155252633032e-06
-0.031104080032454542,0.00027532415449847106,6.380085141260813e-06
-0.034747982040786426,0.00024239812346185056,6.6389462802409735e-06
-0.038197930775899704,0.00020592516705350748,6.863107925498653e-06
-0.04143015280819211,0.00016611112526146156,7.049126071656137e-06
-0.04445208198613326,0.00012317000786429887,7.193766638219017e-06
-0.047299705720052515,7.729411401120598e-05,7.293998699156769e-06
-0.050031270252726565,2.8628626024816436e-05,7.34696006917478e-06
-0.052718557787748914,-2.2746287995421302e-05,7.349901238189478e-06
-0.0554366485561585,-7.682389116737501e-05,7.30011614860808e-06
-0.058253087821776024,-0.00013366875935634227,7.194869823346221e-06
-0.061217715699206164,-0.00019340416111683336,7.031333363109633e-06
-0.06435463037012336,-0.00025619033415149814,6.806536115475467e-06
-0.06765746968826059,-0.0003221963841806901,6.517342756309374e-06
-0.0710885840082485,-0.00039156941102894464,6.1604598587045565e-06
-0.07458213749091328,-0.0004644047717785255,5.732472767300822e-06
-0.07805076166349266,-0.0005407212213557284,5.229909770733695e-06
-0.0813948840311914,-0.0006204440442030704,4.6493271379542955e-06
-0.08451334084218065,-0.0007033981566397564,3.987406037532882e-06
-0.0873136921130582,-0.0007893116731173759,3.2410511226543157e-06
-0.08972091717467631,-0.0008778289777612432,2.407480797215006e-06
-0.09168368156003104,-0.0009685312771285969,1.484300669770086e-06
-0.09317787558552416,-0.0010609620557013744,4.695540033551004e-07
-0.09420754844030843,-0.0011546547677142908,-6.382544083527321e-07
-0.09480371458873063,-0.0012491603992288102,-1.8401619918242825e-06
-0.0950216734833687,-0.00134407309326486,-3.1367787380711177e-06
-0.09493728050986358,-0.001439052570261476,-4.528341569834286e-06
-0.09464214789087477,-0.0015338422844618452,-6.014788997195946e-06
-0.09423745290984617,-0.0016282820848622058,-7.595851181857972e-06
-0.09382618719477485,-0.0017223139049145162,-9.271149176746332e-06
-0.09350420167342137,-0.0018159790993486143,-1.1040295678877898e-05
-0.09335095945659828,-0.001909406679913624,-1.2902988568509018e-05
-0.09342124880267882,-0.002002792784043263,-1.485908830048746e-05
-0.09373914173589759,-0.002096372979312551,-1.690867118216537e-05
-0.09429521599984576,-0.0021903901581804227,-1.9052052750911857e-05
-0.0950475570733216,-0.0022850615447170064,-2.1289778602360573e-05
-0.09592643671945132,-0.0023805485416133927,-2.362258364552577e-05
-0.09684196999528769,-0.0024769327449707624,-2.605132428881785e-05
-0.09769368427680886,-0.0025742005721068107,-2.8576890947356638e-05
-0.09838093286796183,-0.0026722378806791963,-3.120011017374964e-05
-0.0988132993796732,-0.0027708349968030136,-3.392164661249075e-05
-0.09892020906165154,-0.002869701751023676,-3.6741914986404094e-05
-0.09865879625620542,-0.0029684912536826046,-3.966101148875724e-05
-0.09801901143954753,-0.0030668301575304813,-4.267867219436378e-05
-0.09702528384537097,-0.0031643523051729404,-4.579426342571549e-05
-0.09573463133961388,-0.003260732262765433,-4.900680570968468e-05
-0.0942315658271689,-0.003355715361348824,-5.2315029521741805e-05
-0.09262032531478685,-0.003449141306919802,-5.571745785587612e-05
-0.09101494720104716,-0.003540958943177719,-5.921250798092488e-05
-0.08952766222019465,-0.0036312302478883397,-6.27986025764579e-05
-0.08825627778437592,-0.003720122217890625,-6.647427880934738e-05
-0.08727173329398193,-0.003807886223429804,-7.02382830300076e-05
-0.08660756723904794,-0.003894825873696319,-7.408963907857065e-05
-0.08625317756225932,-0.0039812562460969725,-7.802768013846729e-05
-0.08615231967397337,-0.004067458994715089,-8.205203775887332e-05
-0.08620748428673433,-0.004153638896695443,-8.616258670457859e-05
-0.08628989949743585,-0.004239887588587528,-9.035934994722008e-05
-0.08625406873635422,-0.004326159572704423,-9.464237352786606e-05
-0.08595508480713021,-0.004412264149476166,-9.901158538895635e-05
-0.08526647278063344,-0.004497874928270047,-0.00010346665492782946
-0.08409600270422243,-0.004582556166012475,-0.00010800687047497072
-0.08239689782303503,-0.004665802616276104,-0.00011263104986611501
-0.08017239243185716,-0.00474708726140355,-0.00011733749480495484
-0.07747277462341239,-0.0048259098449311855,-0.0001221239933581222
-0.07438562402963614,-0.00490183904425771,-0.00012698786780271666
-0.07102140788310016,-0.0049745425602140785,-0.00013192605860495255
-0.06749750207945723,-0.005043802015195357,-0.00013693523089265726
-0.06392387199959626,-0.005109512702234884,-0.00014201188825137238
-0.06039300964107588,-0.0051716711430552205,-0.00014715248017401744
-0.056975309754283984,-0.005230355302752901,-0.0001523534933969215
-0.053719297596892195,-0.005285702606428489,-0.0001576115223515122
-0.050654840650734584,-0.005337889675552302,-0.0001629233184925026
-0.047797318803569314,-0.005387115755279454,-0.00016828582120791846
-0.04515149001899251,-0.005433590159690735,-0.00017369617416540355
-0.04271468753980268,-0.005477523248470132,-0.00017915173086948397
-0.04047941173856417,-0.005519120298109316,-0.0001846500526427737
-0.03843529555755684,-0.005558577651757376,-0.00019018890161770705
-0.03657021456065651,-0.005596080406816482,-0.00019576623064699399
-0.03487040427189314,-0.005631800716232757,-0.0002013801712085186
-0.033319930483580146,-0.005665895883610494,-0.00020702901950844023
-0.031900399801807,-0.005698506048753187,-0.00021271122047462207
-0.030591906062028794,-0.005729752201685105,-0.00021842534959984122
-0.029375631084184704,-0.005759735970258212,-0.00022417009368581287
-0.028237483199308706,-0.005788542527399959,-0.00022994423293464195
-0.027171301017900055,-0.005816246919508563,-0.0002357466276580962
-0.02618007866929373,-0.005842922609352159,-0.00024157621242252658
-0.02527441706954667,-0.005868649857221579,-0.0002474319986558135
-0.024468427720798873,-0.005893521279616752,-0.00025331308422423264
-0.023774068556174255,-0.005917642527755239,-0.00025921866612791864
-0.02319520704442993,-0.005941127165555541,-0.00026514805097457405
-0.02272262024344213,-0.005964086079199476,-0.0002711006575969516
-0.022330796086142694,-0.005986612787364269,-0.00027707600703023345
-0.021977094615133003,-0.0060087667327149066,-0.00028307369679027305
-0.02160371969241052,-0.006030557139868678,-0.00028909335872656487
-0.021142785234368213,-0.0060519303923320675,-0.00029513460249266525
-0.02052422431731232,-0.006072763897107908,-0.0003011969496373852
-0.019685452639583056,-0.006092868735586356,-0.00030727976595373234
-0.018580936272135126,-0.006112001930042215,-0.00031338220128654664
-0.017189564841246167,-0.006129887180598905,-0.0003195031458418672
-0.015518262553127911,-0.006146241094296092,-0.0003256412099793147
-0.013601382359360512,-0.0061608009167523365,-0.0003317947309848389
-0.011496499129133668,-0.006173349857496584,-0.00033796180637196336
-0.009277747267467782,-0.006183736980694885,-0.00034414034979105907
-0.00702786848743302,-0.006191889788572336,-0.0003503281631756927
-0.004830000236077827,-0.006197818722934091,-0.0003565230174314459
-0.002760142347746089,-0.006201613794226003,-0.00036272273369002594
-0.0008810694169982438,-0.006203434400108375,-0.00036892525778719316
0.0007619125640488015,-0.0062034939785348495,-0.0003751287219765148
0.002143355495850908,-0.0062020413445049,-0.00038133148963803465
0.003258317282028192,-0.00619934050811596,-0.00038753218056434505
0.004121250563429152,-0.006195650724193232,-0.00039372967618049966
0.0047630624615246815,-0.006191208567680755,-0.00039992310582643664
0.005226590696485339,-0.00618621374110175,-0.0004061118169808279
0.0055613340298577355,-0.0061808197787385786,-0.00041229533374074806
0.005818680497057879,-0.0061751297714751205,-0.0004184733085158549
0.006048625480399164,-0.006169196118486392,-0.0004246454714608356
0.006298063710221346,-0.006163022773891081,-0.0004308115809070244
0.006609743786103329,-0.006156568870142919,-0.0004369713767290414
0.007020618994023816,-0.006149753688752855,-0.00044312453800848925
0.007558917928177308,-0.006142463920291754,-0.00044927064681301156
0.008240397896232876,-0.006134564262379549,-0.00045540916090434724
0.009065189037600794,-0.006125911468912632,-0.00046153939876999333
0.01001686232015878,-0.006116370443233752,-0.0004676605397260665
0.011064736055504397,-0.006105829644045921,-0.00047377163976970634
0.012169239429520017,-0.006094212656303409,-0.000479871660919881
0.013288979889273923,-0.006081483546644012,-0.0004859595090213547
0.01438757742730933,-0.00606764526798572,-0.0004920340734286695
0.015438539145545934,-0.0060527322096992926,-0.000498094262167512
0.016427354020204413,-0.006036799263116417,-0.0005041390279039199
0.017351154834307908,-0.006019910008689161,-0.0005101673825398227
0.01821699087126601,-0.006002125935836374,-0.0005161784005120855
0.019039578610639908,-0.0059834976510954214,-0.0005221712123055514
0.01983875852563637,-0.005964058482527283,-0.0005281449903723627
0.020636518823256293,-0.005943820843852837,-0.0005340989300355528
0.02145361688222518,-0.0059227757760000966,-0.0005400322283454792
0.02230623233835535,-0.0059008958513898065,-0.0005459440641591742
0.023203304242994046,-0.005878141083099132,-0.0005518335826264186
0.02414508774487528,-0.005854466887105197,-0.0005576998866115208
0.025123167871269475,-0.005829832759297124,-0.000563542036434722
0.026121860944339406,-0.0058042102448893195,-0.0005693590579368153
0.027120604208395967,-0.0057775890123129515,-0.0005751499575654163
0.028096643880757683,-0.005749980388268375,-0.000580913742265707
0.02902739855944757,-0.005721418367048273,-0.0005866494416433653
0.029892415772642452,-0.005691958459882227,-0.0005923561300568306
0.030675394076044183,-0.005661674554957884,-0.0005980329465642507
0.031366731657427566,-0.0056306534920911476,-0.0006036791105877751
0.03196647535477027,-0.005598986888585049,-0.0006092939307781132
0.032486894274287054,-0.00556676020377052,-0.000614876804324291
0.03295360718890184,-0.005534039953038926,-0.0006204272044026957
0.033404320208555334,-0.005500860989340197,-0.0006259446548738853
0.033884764722795745,-0.005467216446874521,-0.0006314286935919926
0.0344423166693834,-0.005433052906178432,-0.0006368788282685191
0.03511866704565308,-0.0053982724143209135,-0.0006422944909287687
0.0359432591146278,-0.005362741451240773,-0.0006476749978615496
0.03692887292290045,-0.005326305385222009,-0.000653019521279781
0.038070119082622596,-0.0052888058892192474,-0.0006583270769170016
0.03934507698816794,-0.005250098291183852,-0.0006635965290072032
0.04071987114897624,-0.00521006581711528,-0.0006688266110613527
0.04215547351134666,-0.0051686281447851186,-0.000674015958042303
0.043615455785186066,-0.005125742680136852,-0.0006791631434547639
0.04507300216198968,-0.005081398451163265,-0.000684266714020414
0.046515556465080356,-0.00503560417184973,-0.0006893252153319204
0.04794619475472882,-0.004988373296239825,-0.0006943372040659652
0.04938187818227595,-0.004939709259771323,-0.0006993012453439708
0.05084952558165905,-0.004889593557889356,-0.0007042158967528011
0.05238103317747767,-0.004837978278509787,-0.0007090796826710007
0.0540081548486789,-0.004784783684496708,-0.000713891063652504
0.05575780605727765,-0.00472990070404373,-0.0007186484058467742
0.05764797023891049,-0.004673197815895636,-0.0007233499551067439
0.05968411166677689,-0.004614531774942793,-0.0007279938199021631
0.061856001577756906,-0.004553761718320526,-0.0007325779666487947
0.06413511993230459,-0.004490766157565496,-0.0007371002305867377
0.06647314739092432,-0.004425462023903881,-0.0007415583446774725
0.06880236295512275,-0.004357824268730858,-0.0007459499878237899
0.07103883364520909,-0.004287903670430692,-0.0007502728517933706
0.07308894670578343,-0.004215839780255195,-0.0007545247235187136
0.07485908789289765,-0.0041418657629558545,-0.0007587035762903191
0.07626732231117335,-0.004066302557853819,-0.000762807660450724
0.0772550933583957,-0.003989541350019034,-0.0007668355824046604
0.07779656247605304,-0.003912015522101809,-0.0007707863608407209
0.07790357333495625,-0.0038341654541963048,-0.0007746594513288699
0.07762531887565972,-0.003756401008090997,-0.0007784547345600135
0.07704312385205656,-0.0036790667867271387,-0.0007821724684574226
0.07626171070714287,-0.003602414369447539,-0.0007858132090355099
0.0753985922967344,-0.0035265842179456,-0.0007893777083292066
0.07457296037389387,-0.003451598441610286,-0.0007928667996589845
0.07389501303406805,-0.003377364454906305,-0.0007962812811072428
0.07345647015822522,-0.0033036887133101583,-0.000799621807691351
0.07332316710297554,-0.003230298894679558,-0.0008028888014953459
0.07353079930983102,-0.0031568719114731547,-0.0008060823868984222
0.07408457846522493,-0.0030830642225856265,-0.0008092023549654516
0.07496253318733721,-0.0030085406667593453,-0.0008122481574101241
0.07612099264633937,-0.002932998903842507,-0.0008152189271954251
0.07750031357928754,-0.0028561882507296935,-0.0008181135207727112
0.07902942413267498,-0.002777923381873712,-0.0008209305765890129
0.08062874963556409,-0.0026980942949895925,-0.0008236685854274445
0.08221196720176642,-0.002616673936570927,-0.0008263259695432248
0.08368759647414133,-0.002533724154732973,-0.0008289011685888767
0.084961623994006,-0.0024493995444988996,-0.0008313927304384927
0.08594204961392321,-0.002363947707694935,-0.0008337994040645896
0.08654536680146076,-0.0022777039994872432,-0.0008361202299181807
0.08670386393887711,-0.0021910793841170744,-0.0008383546216099829
0.0863719442760236,-0.002104541480009624,-0.0008405024320420463
0.08552988327482101,-0.0020185905662342017,-0.0008425639980651682
0.08418437278476272,-0.0019337334382044098,-0.0008445401600673875
0.08236617908591833,-0.0018504581622690692,-0.0008464322558676242
0.08012575493705898,-0.0017692121952575805,-0.0008482420910463876
0.07752770555333714,-0.0016903854650123825,-0.0008499718898765226
0.07464493479720004,-0.001614299144837114,-0.0008516242321814473
0.07155327451611296,-0.0015412000401804574,-0.0008532019817739561
0.06832735266673698,-0.0014712597265890324,-0.0008547082116573409
0.0650381951265109,-0.0014045769526924085,-0.0008561461299969816
0.06175249823857481,-0.0013411816060098657,-0.0008575190092763328
0.058532898984189154,-0.0012810389073984836,-0.000858830119533037
0.05543830732843596,-0.001224053304242171,-0.0008600826656388574
0.052523538013003905,-0.0011700723815714512,-0.0008612797284817642
0.049837861015778986,-0.0011188916820570598,-0.0008624242105135784
0.04742250027127923,-0.0010702615014135308,-0.0008635187871053137
0.04530745134986969,-0.0010238965256029564,-0.0008645658661188219
0.043508192598455814,-0.0009794887036287936,-0.0008655675587334378
0.04202299302327359,-0.0009367231108179289,-0.0008665256646406611
0.040831592251062324,-0.0008952958181807609,-0.0008674416741051605
0.03989582796297829,-0.0008549321080737406,-0.0008683167880682878
0.03916220644483101,-0.0008154030908698359,-0.0008691519556677595
0.03856575554123373,-0.0007765391098768035,-0.0008699479267681329
0.03803421442330428,-0.0007382391248945345,-0.0008707053158855185
0.03749189687497116,-0.0007004760692453967,-0.0008714246734825885
0.03686316940582878,-0.0006632985361049968,-0.0008721065607852637
0.036075860222463674,-0.0006268290212908506,-0.0008727516245639616
0.03506476236440754,-0.0005912587099974149,-0.0008733606684296057
0.033775006907001616,-0.0005568388253617103,-0.0008739347171972853
0.03216487876124562,-0.0005238688825275867,-0.00087447507105123
0.030207719279557652,-0.0004926825835071851,-0.0008749833467842473
0.027892859548577086,-0.0004636322940931177,-0.0008754615042230474
0.02522600293974688,-0.00043707286284895574,-0.0008759118568015185
0.02222985284928073,-0.00041334493495444194,-0.0008763370657004202
0.018945638983538002,-0.0003927571890380326,-0.0008767401167624165
0.015435379078737793,-0.0003755666800068947,-0.000877124278696939
0.011783601380061307,-0.00036195718977749514,-0.0008774930406318311
0.008096588473228809,-0.0003520170948508501,-0.0008778500277741453
0.00449752228446925,-0.00034572003947200107,-0.0008781988963413067
0.0011170939878594344,-0.00034291273133583674,-0.0008785432127267106
-0.0019193984502490985,-0.0003433138835670316,-0.000878886326034162
-0.0045063027027789915,-0.00034652673414354565,-0.0008792312463430172
-0.006570624721931245,-0.00035206519785590076,-0.000879580542309017
-0.008081579859025911,-0.00035939130014637935,-0.000879936270558018
-0.009055309214421397,-0.000367959744683103,-0.0008802999460804328
-0.009554286369249385,-0.0003772645424749384,-0.0008806725582240118
-0.009681729714744102,-0.0003868825505169351,-0.0008810546317705078
-0.009571978957063236,-0.0003965094048528388,-0.0008814463277481927
-0.009378085130979482,-0.00040598443689686013,-0.0008818475746690675
-0.00925771255015862,-0.00041530233573742917,-0.0008822582180553846
-0.00935818946656861,-0.00042461028674579276,-0.0008826781743666263
-0.00980159702464203,-0.0004341901799913981,-0.0008831075745999949
-0.010671245212724835,-0.0004444266011100815,-0.0008835468829905456
-0.012001467035596985,-0.0004557629572342424,-0.0008839969777697178
-0.013772847631388077,-0.00046865011456773495,-0.0008844591843056188
-0.01591433068449619,-0.00048349370372567706,-0.0008849352562147655
-0.018312185748022992,-0.0005006069619419366,-0.0008854273065475993
-0.020824261125519352,-0.0005201751853787077,-0.0008859376976212596
-0.023296949292196403,-0.0005422357905875656,-0.0008864689031092427
-0.025582010436556592,-0.0005666752704519422,-0.0008870233586397624
-0.027550740924810177,-0.0005932416461326256,-0.0008876033170980547
-0.029103893585192258,-0.0006215689633876268,-0.0008882107224028148
-0.030177022297334186,-0.00065120942132889,-0.0008888471115951731
-0.03074195369544973,-0.0006816689093252819,-0.0008895135507605002
-0.03080543645798816,-0.0007124426044020009,-0.0008902106065173639
-0.030405824940069184,-0.0007430482351010295,-0.0008909383519371154
-0.02960835407637684,-0.0007730553246092525,-0.0008916964037169705
-0.028499386029597326,-0.0008021091946622395,-0.0008924839859766063
-0.027179983809810345,-0.0008299488795819434,-0.0008933000150137283
-0.0257592535383814,-0.0008564184982560392,-0.0008941431987026472
-0.024347914282627198,-0.0008814720821665435,-0.0008950121439928585
-0.023052341264880257,-0.0009051722099402972,-0.0008959054661389119
-0.021969076118604318,-0.0009276829186320396,-0.000896821893703198
-0.02117984043749328,-0.0009492573769100883,-0.0008977603638509692
-0.020747346105139293,-0.0009702209701814047,-0.0008987201030245149
-0.02071224205958195,-0.0009909507642637653,-0.0008997006888917375
-0.02109124918896248,-0.0010118525098880375,-0.0009007020905288134
-0.021876254463092715,-0.001033336261714065,-0.0009017246849146144
-0.023034126959939814,-0.0010557914524255813,-0.0009027692487716842
-0.024507169265609006,-0.0010795621005383557,-0.0009038369255481662
