frame_number,force
0,739.8967900089307
1,740.0183991277006
2,740.1397130431736
3,740.2604380399088
4,740.3802833586722
5,740.498962627507
6,740.6161952405762
7,740.7317076732537
8,740.8452347255882
9,740.9565206895232
10,741.0653204376229
11,741.1714004326986
12,741.2745396590489
13,741.3745304766773
14,741.4711793990605
15,741.5643077926114
16,741.6537524930741
17,741.7393663322641
18,741.8210185682779
19,741.8985952127216
20,741.9719992489942
21,742.0411507364225
22,742.1059867965098
23,742.1664614794939
24,742.2225455112872
25,742.274225922515
26,742.3215055632415
27,742.3644025092457
28,742.4029493677688
29,742.4371924919017
30,742.4671911135424
31,742.4930164056868
32,742.5147504856435
33,742.5324853710601
34,742.5463219002194
35,742.5563686271978
36,742.5627407016498
37,742.5655587424728
38,742.5649477145204
39,742.5610358177256
40,742.5539533981548
41,742.5438318901737
42,742.5308027979755
43,742.5149967234918
44,742.4965424464901
45,742.4755660613165
46,742.4521901729153
47,742.4265331526235
48,742.3987084525581
49,742.3688239768431
50,742.3369815083211
51,742.3032761901524
52,742.2677960624774
53,742.230621655018
54,742.1918256371225
55,742.1514725274926
56,742.10961846707
57,742.0663110603713
58,742.0215892924989
59,741.9754835304011
60,741.9280156170088
61,741.8791990653427
62,741.82903935684
63,741.7775343447048
64,741.724674759792
65,741.6704448138872
66,741.6148228934071
67,741.5577823352197
68,741.4992922752168
69,741.4393185597565
70,741.3778247104807
71,741.3147729337962
72,741.2501251665673
73,741.1838441489758
74,741.1158945144786
75,741.0462438855426
76,740.9748639622593
77,740.9017315891654
78,740.8268297842507
79,740.750148713612
80,740.6716865954763
81,740.5914505183358
82,740.5094571598929
83,740.4257333964043
84,740.3403167953686
85,740.2532559875317
86,740.1646109163337
87,740.0744529640492
88,739.9828649544102
89,739.8899410322257
90,739.7957864219773
91,739.7005170694601
92,739.6042591729238
93,739.5071486123644
94,739.4093302870064
95,739.3109573712121
96,739.2121904984983
97,739.1131968827387
98,739.01414938531
99,738.9152255367334
100,738.8166065212674
101,738.7184761331703
102,738.6210197140731
103,738.5244230817871
104,738.4288714615851
105,738.3345484314044
106,738.2416348922721
107,738.150308074304
108,738.0607405868842
109,737.9730995194903
110,737.8875455975397
111,737.8042323959658
112,737.7233056121402
113,737.6449023992039
114,737.5691507606655
115,737.4961690069468
116,737.426065274254
117,737.3589371058865
118,737.2948710961895
119,737.2339425977731
120,737.1762154930234
121,737.1217420309662
122,737.0705627303919
123,737.0227063502317
124,736.9781899286093
125,736.9370188925004
126,736.8991872402088
127,736.8646777988121
128,736.8334625582728
129,736.8055030829299
130,736.7807509996506
131,736.7591485601805
132,736.7406292732829
133,736.7251186004847
134,736.7125347082615
135,736.7027892694043
136,736.6957883064681
137,736.6914330702273
138,736.6896209460992
139,736.6902463814171
140,736.6932018256806
141,736.6983786742379
142,736.7056682038366
143,736.7149624871442
144,736.7261552734449
145,736.7391428241962
146,736.7538246941696
147,736.7701044506914
148,736.7878903249214
149,736.8070957903996
150,736.8276400654084
151,736.8494485368041
152,736.8724531034698
153,736.8965924373892
154,736.9218121601069
155,736.9480649327932
156,736.9753104594009
157,737.0035154040623
158,737.0326532254869
159,737.0627039325856
160,737.093653766882
161,737.1254948183367
162,737.1582245816909
163,737.191845460322
164,737.2263642244191
165,737.2617914305613
166,737.2981408105273
167,737.335428638012
168,737.373673082719
169,737.4128935620157
170,737.4531101008702
171,737.4943427108798
172,737.5366107985359
173,737.5799326113492
174,737.6243247283147
175,737.6698015988845
176,737.7163751325761
177,737.7640543397256
178,737.8128450226131
179,737.8627495149227
180,737.9137664661284
181,737.9658906662563
182,738.0191129059289
183,738.0734198663736
184,738.1287940336713
185,738.1852136312218
186,738.2426525649803
187,738.3010803776556
188,738.3604622101848
189,738.4207587708313
190,738.4819263138619
191,738.5439166305989
192,738.6066770554162
193,738.6701504882113
194,738.7342754340797
195,738.798986061353
196,738.864212280773
197,738.9298798501196
198,738.9959105088572
199,739.062222146103
200,739.128729003236
201,739.1953419106899
202,739.2619685573819
203,739.3285137906977
204,739.3948799447168
205,739.4609671945079
206,739.5266739351309
207,739.5918971853946
208,739.6565330178023
209,739.7204770167162
210,739.7836247661586
211,739.8458723671026
212,739.9071169824941
213,739.9672574072961
214,740.026194660233
215,740.0838325928739
216,740.1400785102473
217,740.1948437959678
218,740.2480445338955
219,740.2996021170495
220,740.3494438326342
221,740.3975034102388
222,740.4437215194067
223,740.4880462032346
224,740.5304332361926
225,740.570846396385
226,740.6092576446996
227,740.6456472059498
228,740.6800035504925
229,740.7123232787989
230,740.7426109152523
231,740.7708786201804
232,740.7971458308883
233,740.8214388441376
234,740.8437903542367
235,740.8642389615902
236,740.8828286653913
237,740.8996083518939
238,740.9146312875616
239,740.9279546246563
240,740.9396389251672
241,740.9497477076312
242,740.9583470209582
243,740.965505049732
244,740.9712917556868
245,740.9757785593167
246,740.9790380638639
247,740.9811438218816
248,740.982170142815
249,740.98219193874
250,740.9812846042987
251,740.9795239255357
252,740.9769860105462
253,740.9737472328393
254,740.9698841768053
255,740.9654735742397
256,740.9605922216826
257,740.95531687032
258,740.9497240832005
259,740.9438900579324
260,740.937890415752
261,740.9317999591883
262,740.9256924008328
263,740.9196400660147
264,740.9137135731359
265,740.9079814967591
266,740.9025100194142
267,740.8973625778026
268,740.8925995078146
269,740.8882776914363
270,740.8844502080929
271,740.8811659934038
272,740.8784695094087
273,740.8764004315128
274,740.8749933579129
275,740.8742775464037
276,740.874276681384
277,740.875008671861
278,740.876485480774
279,740.8787129871602
280,740.8816908842492
281,740.885412617243
282,740.8898653643513
283,740.8950300643205
284,740.9008814934144
285,740.9073883941361
286,740.9145136563644
287,740.9222145490612
288,740.9304429979409
289,740.9391459023053
290,740.9482654831232
291,740.9577396542879
292,740.9675024094773
293,740.9774842181469
294,740.987612426074
295,740.9978116581156
296,741.0080042224986
297,741.0181105167153
298,741.0280494353138
299,741.0377387796806
300,741.0470956690405
301,741.0560369506376
302,741.0644796061838
303,741.0723411515792
304,741.0795400275382
305,741.0859959800164
306,741.0916304309233
307,741.0963668409464
308,741.1001310669113
309,741.1028517158065
310,741.1044604964694
311,741.1048925685968
312,741.1040868880068
313,741.1019865467721
314,741.0985391061034
315,741.0936969184849
316,741.0874174344208
317,741.0796634890315
318,741.0704035644844
319,741.0596120252397
320,741.0472693240505
321,741.0333621777887
322,741.0178837136763
323,741.0008335883032
324,740.9822180833536
325,740.9620501823516
326,740.9403496314347
327,740.9171429845167
328,740.8924636303386
329,740.8663517970182
330,740.8388545292008
331,740.810025633197
332,740.779925585758
333,740.7486214024376
334,740.7161864622036
335,740.6827002862159
336,740.6482482703767
337,740.6129213734105
338,740.5768157647142
339,740.5400324382152
340,740.5026767988708
341,740.4648582271979
342,740.4266896256416
343,740.3882869499391
344,740.3497687288067
345,740.311255575422
346,740.2728696939173
347,740.2347343836652
348,740.1969735438795
349,740.1597111811288
350,740.1230709226013
351,740.0871755377225
352,740.0521464694609
353,740.0181033747602
354,739.9851636723
355,739.9534420958768
356,739.9230502522925
357,739.8940961825989
358,739.8666839249216
359,739.8409130766987
360,739.8168783544565
361,739.7946691501675
362,739.7743690846623
363,739.7560555601544
364,739.7397993149797
365,739.7256639836259
366,739.7137056644027
367,739.7039724969379
368,739.696504252949
369,739.6913319459909
370,739.688477467758
371,739.6879532589834
372,739.6897620221455
373,739.6938964821218
374,739.7003392004584
375,739.7090624488887
376,739.7200281472695
377,739.7331878698624
378,739.7484829223519
379,739.7658444906041
380,739.7851938606877
381,739.8064427078584
382,739.8294934505328
383,739.8542396644649
384,739.8805665523739
385,739.9083514645706
386,739.9374644662913
387,739.9677689473821
388,739.9991222696167
389,740.0313764464726
390,740.0643788500233
391,740.0979729398042
392,740.1319990087346
393,740.1662949413144
394,740.2006969795063
395,740.2350404919819
396,740.2691607425378
397,740.3028936537537
398,740.3360765627498
399,740.3685489669517
400,740.4001532583447
401,740.4307354445551
402,740.4601458545935
403,740.4882398265704
404,740.5148783742138
405,740.5399288285981
406,740.5632654511213
407,740.5847700132796
408,740.6043323380214
409,740.6218507965274
410,740.6372327536242
411,740.6503949552696
412,740.6612638529322
413,740.6697758619292
414,740.6758775531055
415,740.6795257790064
416,740.6806877367421
417,740.6793409701081
418,740.6754733135817
419,740.6690827811278
420,740.6601774035951
421,740.6487750193725
422,740.6349030231755
423,740.6185980770547
424,740.5999057863601
425,740.5788803419904
426,740.5555841292069
427,740.530087302945
428,740.5024673301325
429,740.4728085007579
430,740.4412014106165
431,740.407742419257
432,740.3725330867398
433,740.3356795927398
434,740.2972921413746
435,740.2574843549409
436,740.2163726598415
437,740.1740756686573
438,740.1307135633745
439,740.0864074856947
440,740.0412789407271
441,739.9954492201331
442,739.9490388502918
443,739.9021670702916
444,739.8549513434758
445,739.8075069053244
446,739.7599463504562
447,739.7123792622918
448,739.6649118891997
449,739.6176468700219
450,739.5706830103779
451,739.5241151099029
452,739.4780338395669
453,739.4325256669682
454,739.3876728260188
455,739.3435533262516
456,739.3002409962749
457,739.257805555365
458,739.2163127065388
459,739.1758242440943
460,739.1363981692532
461,739.0980888093086
462,739.0609469377808
463,739.025019894352
464,738.9903517032292
465,738.956983187435
466,738.9249520751259
467,738.8942930930967
468,738.8650380423899
469,738.8372158511866
470,738.8108526006869
471,738.7859715208299
472,738.7625929547347
473,738.7407342930552
474,738.7204098810398
475,738.7016309018009
476,738.6844052396021
477,738.6687373271549
478,738.6546279808525
479,738.6420742274823
480,738.6310691253268
481,738.6216015821051
482,738.6136561724788
483,738.6072129591344
484,738.6022473232614
485,738.5987298117027
486,738.5966260086027
487,738.5958964391098
488,738.5964965119061
489,738.5983765062624
490,738.6014816079033
491,738.605751996478
492,738.6111229865277
493,738.6175252239575
494,738.6248849405802
495,738.6331242692202
496,738.6421616207347
497,738.6519121226376
498,738.6622881174852
499,738.6731997178309
500,738.6845554129216
501,738.696262720148
502,738.7082288717966
503,738.7203615255884
504,738.7325694867261
505,738.7447634302079
506,738.7568566144465
507,738.768765579479
508,738.7804108244005
509,738.7917174592736
510,738.802615827347
511,738.8130420942804
512,738.8229388017006
513,738.8322553819988
514,738.8409486297289
515,738.8489831231147
516,738.8563315880854
517,738.8629751974526
518,738.8689037989581
519,738.8741160671888
520,738.8786195753572
521,738.8824307837016
522,738.8855749420827
523,738.8880859055107
524,738.8900058628583
525,738.8913849806371
526,738.8922809650754
527,738.8927585467466
528,738.892888892878
529,738.8927489534261
530,738.8924207479658
531,738.8919906012009
532,738.8915483353247
533,738.891186427826
534,738.8909991439842
535,738.891081653891
536,738.891529143581
537,738.8924359287536
538,738.893894578594
539,738.8959950572275
540,738.8988238912398
541,738.9024633728055
542,738.9069908087542
543,738.9124778260829
544,738.9189897436427
545,738.9265850176067
546,738.9353147653878
547,738.9452223703443
548,738.9563431687894
549,738.9687042209292
550,738.9823241672051
551,738.9972131705398
552,739.0133729434217
553,739.0307968570971
554,739.0494701286053
555,739.0693700801373
556,739.0904664645053
557,739.1127218505641
558,739.1360920629436
559,739.1605266707179
560,739.1859695192096
561,739.21235929825
562,739.2396301395192
563,739.267712235454
564,739.2965324725852
565,739.326015072923
566,739.3560822382256
567,739.3866547937062
568,739.4176528295369
569,739.4489963396185
570,739.4806058568543
571,739.5124030825745
572,739.5443115053738
573,739.5762570022553
574,739.6081684131393
575,739.6399780789496
576,739.6716223343378
577,739.7030419490321
578,739.7341825157914
579,739.7649947861239
580,739.7954349563489
581,739.8254649068574
582,739.8550523973604
583,739.8841712204663
584,739.9128013148263
585,739.9409288377822
586,739.9685461966981
587,739.9956520381671
588,740.022251194733
589,740.0483545893605
590,740.0739790985564
591,740.0991473756825
592,740.1238876364816
593,740.1482334092157
594,740.1722232522336
595,740.1959004420764
596,740.2193126351264
597,740.2425115053932
598,740.2655523606796
599,740.2884937393183
600,740.311396989941
601,740.3343258370993
602,740.357345935603
603,740.3805244159814
604,740.4039294224805
605,740.4276296436939
606,740.4516938346511
607,740.476190328603
608,740.5011865371926
609,740.5267484387867
610,740.5529400558889
611,740.5798229235993
612,740.6074555522579
613,740.635892888737
614,740.665185782129
615,740.6953804605711
616,740.7265180266082
617,740.7586339788089
618,740.791757767133
619,740.8259123885751
620,740.8611140279532
621,740.8973717469546
622,740.9346872234628
623,740.9730545433073
624,741.0124600476852
625,741.0528822407077
626,741.0942917619226
627,741.1366514279791
628,741.1799163461226
629,741.2240341003851
630,741.2689450094941
631,741.314582453863
632,741.3608732677623
633,741.4077381919648
634,741.455092381607
635,741.5028459634817
636,741.550904636408
637,741.5991703077432
638,741.6475417584568
639,741.6959153282833
640,741.7441856112016
641,741.7922461501125
642,741.8399901189115
643,741.8873109810103
644,741.9341031158176
645,741.9802624079076
646,742.0256867967086
647,742.0702767871194
648,742.1139359231406
649,742.1565712268887
650,742.1980936042954
651,742.2384182173258
652,742.2774648217156
653,742.315158069169
654,742.3514277731134
655,742.3862091371745
656,742.4194429456591
657,742.451075715743
658,742.4810598117633
659,742.5093535228931
660,742.5359211064932
661,742.5607328006107
662,742.5837648100671
663,742.6049992707333
664,742.6244241957281
665,742.6420334059566
666,742.657826446194
667,742.671808486968
668,742.6839902117956
669,742.6943876889446
670,742.7030222265428
671,742.7099202090064
672,742.7151129111265
673,742.7186362843784
674,742.7205307091547
675,742.7208407070278
676,742.7196146083847
677,742.7169041724541
678,742.712764158992
679,742.7072518536729
680,742.7004265517847
681,742.6923490061668
682,742.6830808454564
683,742.6726839687362
684,742.6612199236561
685,742.6487492769895
686,742.6353309883253
687,742.6210217982577
688,742.6058756421049
689,742.5899430996511
690,742.5732708910597
691,742.5559014285391
692,742.5378724321179
693,742.5192166161008
694,742.4999614508881
695,742.4801290032211
696,742.4597358567362
697,742.4387931139057
698,742.4173064796312
699,742.3952764255446
700,742.3726984324012
701,742.3495633060783
702,742.3258575609375
703,742.3015638628634
704,742.2766615230915
705,742.251127032954
706,742.2249346291735
707,742.1980568795733
708,742.1704652798371
709,742.1421308527191
710,742.1130247414973
711,742.0831187894743
712,742.0523860971347
713,742.0208015484715
714,741.9883422985159
715,741.9549882155366
716,741.920722273554
717,741.8855308932174
718,741.8494042310668
719,741.8123364183108
720,741.7743257504925
721,741.7353748292041
722,741.6954906566369
723,741.654684683385
724,741.612972809827
725,741.5703753417612
726,741.5269169016527
727,741.4826262977867
728,741.4375363548628
729,741.391683710898
730,741.3451085859662
731,741.2978545278106
732,741.2499681380108
733,741.20149878097
734,741.1524982772181
735,741.1030205824561
736,741.053121453829
737,741.002858104629
738,740.95228884823
739,740.9014727321962
740,740.850469164393
741,740.7993375339653
742,740.7481368307164
743,740.6969252669464
744,740.6457599064854
745,740.5946963060326
746,740.543788173458
747,740.4930870466164
748,740.4426419951722
749,740.3924993473145
750,740.3427024429
751,740.293291414011
752,740.2443029929223
753,740.1957703462748
754,740.1477229333979
755,740.1001863864395
756,740.0531824102313
757,740.0067287006991
758,739.960838882203
759,739.915522466077
760,739.8707848341405
761,739.8266272517171
762,739.7830469148943
763,739.740037036568
764,739.6975869752036
765,739.6556824091305
766,739.6143055575799
767,739.5734354476294
768,739.5330482239644
769,739.4931174966542
770,739.4536147215908
771,739.4145096086689
772,739.3757705531798
773,739.337365085438
774,739.2992603323565
775,739.2614234832605
776,739.2238222515639
777,739.1864253244768
778,739.1492027942822
779,739.1121265660339
780,739.0751707371188
781,739.0383119440434
782,739.001529671451
783,738.9648065181269
784,738.9281284148481
785,738.891484789623
786,738.8548686771229
787,738.8182767705393
788,738.7817094154586
789,738.7451705467848
790,738.7086675712275
791,738.6722111988114
792,738.6358152269806
793,738.5994962808496
794,738.5632735137706
795,738.5271682733668
796,738.4912037388199
797,738.4554045354795
798,738.4197963332435
799,738.3844054356956
800,738.3492583670989
801,738.3143814635744
802,738.2798004733901
803,738.2455401701849
804,738.2116239828296
805,738.1780736462945
806,738.1449088787294
807,738.1121470905889
808,738.0798031320514
809,738.0478890851053
810,738.0164141062546
811,737.9853843247437
812,737.9548027997082
813,737.9246695379542
814,737.8949815721201
815,737.8657330969885
816,737.8369156602527
817,737.8085184033633
818,737.7805283475495
819,737.7529307189558
820,737.725709305198
821,737.6988468343385
822,737.672325366746
823,737.6461266905038
824,737.6202327117433
825,737.5946258323231
826,737.5692893082352
827,737.544207582748
828,737.5193665888027
829,737.494754015884
830,737.4703595374995
831,737.4461749963353
832,737.4221945451966
833,737.3984147431538
834,737.3748346078971
835,737.3514556269295
836,737.3282817318735
837,737.3053192419233
838,737.2825767840725
839,737.2600651984927
840,737.2377974368488
841,737.215788459818
842,737.1940551383988
843,737.1726161623411
844,737.1514919583427
845,737.1307046203943
846,737.110277854334
847,737.0902369379164
848,737.0706086967052
849,737.051421495359
850,737.032705243641
851,737.0144914164536
852,736.9968130870311
853,736.9797049720836
854,736.9632034872177
855,736.9473468101567
856,736.9321749478623
857,736.9177298020198
858,736.9040552264745
859,736.8911970706392
860,736.8792032041334
861,736.8681235190503
862,736.8580099068275
863,736.8489162068519
864,736.8408981238399
865,736.8340131106572
866,736.8283202126429
867,736.8238798691682
868,736.8207536686092
869,736.8190040542821
870,736.8186939808166
871,736.8198865224329
872,736.8226444365478
873,736.8270296881781
874,736.8331029426078
875,736.8409230352736
876,736.8505464284581
877,736.8620266642448
878,736.8754138224677
879,736.8907539910887
880,736.908088754756
881,736.9274547057913
882,736.9488829810257
883,736.9723988278685
884,736.9980212034559
885,737.0257624113267
886,737.0556277805952
887,737.0876153930018
888,737.1217158633197
889,737.157912177964
890,737.1961795951927
891,737.2364856085361
892,737.2787899738344
893,737.3230447997681
894,737.3691947018308
895,737.4171770199703
896,737.4669221004268
897,737.5183536423506
898,737.5713891093602
899,737.6259402053321
900,737.6819134126844
901,737.7392105905832
902,737.7977296298625
903,737.857365160636
904,737.9180093070802
905,737.9795524816296
906,738.0418842084134
907,738.1048939638132
908,738.1684720209679
909,738.232510284985
910,738.296903106405
911,738.3615480617227
912,738.4263466912433
913,738.491205186281
914,738.5560350198225
915,738.6207535171094
916,738.6852843645318
917,738.7495580562955
