acceleration,velocity,displacement
-0.00011206046628526477,0.0,0.0
0.001500288504094793,3.470570094523821e-07,8.676425236309552e-11
0.0031087235349888573,1.4993100192232948e-06,5.483560095320148e-10
0.004709350413580868,3.4538285063657257e-06,1.78664064092927e-09
0.0062983141217926855,6.205744640209114e-06,4.201533927572979e-09
0.007871817810059334,9.748277623172117e-06,8.190039493418288e-09
0.009426141078651246,1.4072767345349763e-05,1.4145300735548759e-08
0.010957657413754849,1.9168716968451287e-05,2.245567181399902e-08
0.012462850673875907,2.5023843990358976e-05,3.3503812053701584e-08
0.01393833056537928,3.162413930017277e-05,4.766580787633452e-08
0.01538084707730228,3.895393371084316e-05,6.531032612908851e-08
0.016787303867454337,4.699597144703231e-05,8.679780241855738e-08
0.018154770609205624,5.5731490066197305e-05,1.1247966779686478e-07
0.019480494317109628,6.514030629777611e-05,1.4269761688785814e-07
0.020761909658896252,7.520090729177758e-05,1.7778292028524658e-07
0.02199664822927529,8.589054676382046e-05,2.1805578379914608e-07
0.023182546722378856,9.7185345501734e-05,2.638247568655347e-07
0.02431765391552869,0.0001090603956612109,3.1538619215627093e-07
0.02540023637314055,0.00012148986823337821,3.730237581299182e-07
0.026428782785281456,0.0001344471230229837,4.370080059440087e-07
0.027402006861756537,0.0001479048204347432,5.075959918084404e-07
0.0283188487127885,0.00016183503432837945,5.850309554992211e-07
0.02917847466668568,0.000176209365173248,6.695420553746279e-07
0.02998027550061826,0.000190999052715074,7.613441598467084e-07
0.030723863085425192,0.00020617508736158486,8.606376948658732e-07
0.03140906546724383,0.0002217083194997521,9.676085465812075e-07
0.0320359204335195,0.00023756956597494294,1.0824280179498813e-06
0.03260466764114518,0.0002537297129936091,1.2052528376920192e-06
0.03311573941174716,0.00027015981475683216,1.3362252196296296e-06
0.03356975031567233,0.00028683118718868706,1.4754729701160093e-06
0.03396748567634691,0.00030371549618669186,1.623109640959854e-06
0.03430988913769914,0.00032078483989020335,1.7792347249790778e-06
0.0345980494483301,0.00033801182453671065,1.9439338910858065e-06
0.03483318662003705,0.00035536963355380243,2.1172792556084346e-06
0.03501663761260374,0.0003728320896119626,2.299329686399876e-06
0.03514984168531813,0.0003903737094364431,2.4901311361619772e-06
0.03523432554463515,0.0004079697512439314,2.689717001332071e-06
0.035271688410722056,0.0004255962547327707,2.8981085028262463e-06
0.03526358712440417,0.0004432300736165523,3.1153150849135773e-06
0.035211721418665444,0.00046084890075231966,3.3413348285057954e-06
0.03511781948089734,0.00047843128597721036,3.5761548751881777e-06
0.03498362392765979,0.0004959566468293496,3.819751858389818e-06
0.034810878301318675,0.0005134052723865943,4.072092338193804e-06
0.03460131418164244,0.0005307583205073345,4.3331332364172865e-06
0.03435663898932407,0.0005479978088000761,4.602822268744139e-06
0.03407852454051369,0.0005651065996825355,4.881098370864791e-06
0.03376859638729062,0.0005820683799144866,5.167892115764047e-06
0.033428423950643785,0.0005988676349989702,5.463126119492411e-06
0.03305951143030553,0.0006154896188442075,5.766715432953206e-06
0.032663289468196105,0.0006319203190688329,6.078567917431466e-06
0.03224110754750413,0.000648146418322758,6.398584601779364e-06
0.03179422711949567,0.000664155251989508,6.72666001935743e-06
0.03132381546036715,0.0006799347626344737,7.062682523013426e-06
0.030830940269774024,0.000695473451567009,7.406534576563796e-06
0.03031656503096493,0.0007107603278921937,7.758093021428597e-06
0.029781545162212278,0.000725784855440488,8.117229317261767e-06
0.029226625005638975,0.0007405368979824508,8.483809755617502e-06
0.02865243572356134,0.0007550066631647509,8.857695645904303e-06
0.028059494198189216,0.0007691846456451885,9.238743473106788e-06
0.027448203048323957,0.0007830615699568168,9.62680502700729e-06
0.026818851877471364,0.0007966283336882657,1.002172750291856e-05
0.026171619847403186,0.0008098759516194843,1.0423353574245498e-05
0.025506579633502967,0.0008227955014897108,1.0831521437522796e-05
0.02482370277257707,0.0008353780720912309,1.124606483091803e-05
0.024122866370086052,0.0008476147143768966,1.1666813027535063e-05
0.02340386109870662,0.0008594963962440948,1.209359080519031e-05
0.022666400395727957,0.0008710139616177035,1.252621839465576e-05
0.0219101307492276,0.0008821580944039423,1.2964511408661172e-05
0.02113464294883035,0.0008929192878284568,1.3408280754219272e-05
0.020339484170028697,0.0009032878196081715,1.3857332531078429e-05
0.019524170766169534,0.0009132537333422211,1.4311467919316027e-05
0.018688201652618447,0.000922806826446918,1.4770483059263311e-05
0.017831072171019365,0.0009319366449028275,1.5234168927100747e-05
0.016952288313770113,0.0009406324850240249,1.570231120958246e-05
0.01605138117516444,0.0009488834023962585,1.6174690181437533e-05
0.015127921479155256,0.0009566782280598385,1.6651080589051556e-05
0.014181534012690832,0.0009640055919328,1.7131251544049715e-05
0.013211911770114363,0.0009708539533785013,1.761496643037754e-05
0.012218829596216597,0.000977211638720084,1.8101982828402184e-05
0.011202157108639687,0.000983066885396298,1.859205245943128e-05
0.010161870683825921,0.0009884078923444145,1.9084921153866457e-05
0.00909806430422708,0.0009932228760914277,1.958032884597542e-05
0.008010959090402366,0.000997500131940085,2.0078009597983297e-05
0.006900911379978859,0.0010012280995576803,2.057769165585774e-05
0.005768419259927716,0.001004395432217657,2.1079097538801572e-05
0.004614127498782195,0.0010069910689073345,2.158194416408282e-05
0.0034388308539163234,0.001009004308495509,2.208594300843353e-05
0.002243475743972116,0.0010104248851449812,2.2590800306843652e-05
0.0010291602836317534,0.0010112430441518822,2.3096217289167867e-05
-0.0002028673124341539,0.0010114496173946816,2.3601890454554506e-05
-0.0014512119302240239,0.0010110360975840171,2.410751188329918e-05
-0.0027143363076841216,0.0010099947105245402,2.461276958532632e-05
-0.003990567251064266,0.001008318484634853,2.5117347884116168e-05
-0.005278103201613861,0.0010060013170216835,2.56209278345303e-05
-0.00657502301955728,0.0010030380354663906,2.612318767265232e-05
-0.007879295849576,0.0009994244557491073,2.6623803295456197e-05
-0.0091887919394951,0.0009951574338018395,2.7122448767843933e-05
-0.010501294291774581,0.000990234912244022,2.7618796854355398e-05
-0.011814511031713876,0.00098465596091315,2.8112519572644692e-05
-0.013126088378971444,0.0009784208110604786,2.86032887656381e-05
-0.014433624110294675,0.000971530882938162,2.909077668913776e-05
-0.01573468139787188,0.0009639888065611203,2.957465661151258e-05
-0.017026802898115093,0.0009557984354871236,3.0054603422024642e-05
-0.018307524954026336,0.0009469648535240882,3.053029424427744e-05
-0.019574391764748213,0.0009374943743443945,3.100140905124456e-05
-0.020824969370550218,0.00092739453406057,3.14676312783458e-05
-0.022056859303390765,0.0009166740768920847,3.1928648431083963e-05
-0.023267711765841394,0.0009053429341247767,3.238415268383818e-05
-0.024455238224231925,0.0008934121966272584,3.2833841466526194e-05
-0.025617223330322896,0.0008808940812386197,3.327741803599266e-05
-0.0267515361134798,0.000867801891377669,3.371459202914674e-05
-0.027856140407429893,0.0008541499722474416,3.4145079995053014e-05
-0.02892910449019922,0.0008399536610230343,3.456860590337063e-05
-0.029968609923104888,0.0008252292324197083,3.498490162673132e-05
-0.030972959577452514,0.0008099938400445689,3.539370739484739e-05
-0.03194058483989193,0.0007942654539402328,3.579477221834359e-05
-0.03287005199145402,0.0007780627947323963,3.6187854280511746e-05
-0.03376006775873882,0.0007614052647948481,3.657272129539356e-05
-0.03460948403455971,0.0007443128768465235,3.69491508308039e-05
-0.0354173017597611,0.0007268061803979433,3.731693059511502e-05
-0.0361826739526332,0.0007089061864698447,3.767585868683197e-05
-0.03690490787184413,0.0006906342910137254,3.802574380620286e-05
-0.037583466300853456,0.0006720121974705509,3.836640542832393e-05
-0.0382179679406799,0.0006530618389101676,3.869767393741911e-05
-0.038808186892136776,0.0006338053002019634,3.9019390722197144e-05
-0.039354051201910704,0.0006142647406784515,3.9331408232417244e-05
-0.03985564044322071,0.0005944623177671686,3.963358999702865e-05
-0.040313182302476054,0.0005744201120807444,3.992581060449062e-05
-0.040727048149484406,0.0005541600544677542,4.0207955646127746e-05
-0.04109774758170979,0.0005337038555349557,4.0479921623628423e-05
-0.04142592195213357,0.0005130729381514948,4.074161582205003e-05
-0.04171233691336095,0.0004922883734351212,4.099295614994669e-05
-0.04195787403642789,0.00047137082069767397,4.123387094847989e-05
-0.04216352158629127,0.00045034047179199417,4.146429877160231e-05
-0.042330364549012595,0.0004292170002581682,4.168418813961485e-05
-0.04245957400687409,0.0004080195156191965,4.189349726858419e-05
-0.04255239595555736,0.00038676652312858866,4.209219377827114e-05
-0.042610139657178484,0.0003654758892254047,4.228025438135964e-05
-0.04263416562251394,0.0003441648129054816,4.245766455689236e-05
-0.04262587331679754,0.00032284980317065374,4.2624418210911394e-05
-0.04258668869344425,0.0003015466626680933,4.278051732737108e-05
-0.04251805168229226,0.00028027047757415915,4.2925971612431644e-05
-0.04242140378563905,0.0002590356137071763,4.306079813525198e-05
-0.042298175953112034,0.00023785571877248853,4.3185020968371896e-05
-0.04214977690499755,0.00021674373055796114,4.329867083070451e-05
-0.04197758205404052,0.00019571189081820162,4.340178473604855e-05
-0.04178292314873546,0.00017477176451750762,4.349440564988247e-05
-0.041567078737300436,0.00015393426404599866,4.357658215702335e-05
-0.04133126553273116,0.00013320967797849075,4.3648368142529475e-05
-0.04107663074216072,0.00011260770390976778,4.370982248800154e-05
-0.040804245406317156,9.213748487264831e-05,4.376100878519714e-05
-0.04051509878017632,7.180764882602494e-05,4.380199506862181e-05
-0.04021009377929608,5.162635068615684e-05,4.3832853568499854e-05
-0.039890043518390976,3.160131636173508e-05,4.385366048526183e-05
-0.03955566897174163,1.1739888239201928e-05,4.3864495786412066e-05
-0.0392075977790677,-7.950928448500404e-06,4.386544302635974e-05
-0.03884636420367593,-2.7464418944186315e-05,4.3856589189511566e-05
-0.03847241022765469,-4.6794112552018974e-05,4.3838024556637515e-05
-0.03808608774749672,-6.593373704580683e-05,4.380984259423806e-05
-0.037687661814147136,-8.48771744362178e-05,4.377213986636755e-05
-0.03727731484373915,-0.00010361841860068937,4.3725015968108325e-05
-0.03685515171116984,-0.00012215153523941662,4.36685734796483e-05
-0.03642120563230141,-0.00014047062457528444,4.360291793969463e-05
-0.03597544474206115,-0.00015856978716887506,4.352815783675859e-05
-0.03551777927820797,-0.00017644309317394233,4.344440461667289e-05
-0.0350480692768146,-0.00019408455531269797,4.335177270455123e-05
-0.0345661326757189,-0.00021148810580083136,4.325037953927285e-05
-0.034071753710878894,-0.0002286475773974808,4.314034561847327e-05
-0.033564691480102854,-0.00024555668869522625,4.302179455195009e-05
-0.03304468853911106,-0.0002622090337000297,4.289485312135128e-05
-0.032511479387773455,-0.0002785980756817508,4.275965134400583e-05
-0.031964798703236444,-0.00029471714520450326,4.261632253878427e-05
-0.03140438918541729,-0.0003105594421766667,4.246500339193898e-05
-0.030830008900524595,-0.00032611804169815217,4.2305834020970276e-05
-0.03024143803670903,-0.00034138590343246055,4.213895803468762e-05
-0.029638485016565273,-0.00035635588419577913,4.1964522587780565e-05
-0.02902099193829837,-0.00037102075343449503,4.1782678428373e-05
-0.028388839338776183,-0.00038537321125376367,4.159357993720093e-05
-0.027741950288731138,-0.0003994059086606405,4.139738515722233e-05
-0.027080293847120882,-0.00041311146969460355,4.119425581263352e-05
-0.026403887919830976,-0.0004264825151363415,4.098435731642578e-05
-0.025712801583064816,-0.00043951168751206547,4.076785876576368e-05
-0.025007156938934898,-0.0004521916771425654,4.054493292460002e-05
-0.024287130573780884,-0.0004645152490207443,4.0315756193059196e-05
-0.023552954695103254,-0.00047647527033796536,4.008050856321952e-05
-0.022804918026965243,-0.0004880647385184825,3.983937356100541e-05
-0.022043366536073992,-0.0004992768096592423,3.959253817396098e-05
-0.021268704039038765,-0.0005101048273030205,3.934019276472041e-05
-0.02048139271315971,-0.0005205423514910701,3.9082530970021887e-05
-0.019681953506139327,-0.0005305831880458949,3.881974958513764e-05
-0.018870966418792358,-0.0005402214180271278,3.8552048433619385e-05
-0.018049070623678738,-0.0005494514272877456,3.8279630222290665e-05
-0.01721696438560799,-0.0005582679360400673,3.8002700381458714e-05
-0.016375404763690423,-0.0005666660283273919,3.772146689036685e-05
-0.015525207085322984,-0.0005746411812896453,3.743614008796259e-05
-0.01466724417668401,-0.000582189294105147,3.714693246911389e-05
-0.013802445313018696,-0.0005893067164775727,3.6854058466468215e-05
-0.012931794831423902,-0.0005959902765136834,3.6557734218220404e-05
-0.012056330345652906,-0.0006022373078079526,3.6258177322139994e-05
-0.011177140519109004,-0.000608045675524143,3.595560657630697e-05
-0.010295362378568729,-0.0006134138012485624,3.565024170711379e-05
-0.009412178174673025,-0.0006183406863868729,3.534230308520493e-05
-0.008528811809712905,-0.0006228259338829694,3.503201143013747e-05
-0.007646524860299465,-0.0006268697680504725,3.471958750465411e-05
-0.006766612225596536,-0.0006304730523219465,3.4405251799561006e-05
-0.005890397429914703,-0.0006336373047358243,3.408922421029656e-05
-0.005019227597733303,-0.0006363647109927363,3.377172370636442e-05
-0.004154468100491735,-0.0006386581349172926,3.3452967994886915e-05
-0.0032974968561775217,-0.0006405211261564599,3.3133173179618476e-05
-0.002449698254775475,-0.0006419579249341981,3.2812553416845814e-05
-0.0016124566907787779,-0.0006429734636705867,3.249132056969462e-05
-0.0007871497047079099,-0.0006435733652694583,3.216968386245961e-05
2.4859243030896918e-05,-0.0006437639378848775,3.184784953667103e-05
0.0008222283300570735,-0.0006435521659916055,3.1526020510701904e-05
0.0016036452176322485,-0.0006429456976046831,3.120439604480283e-05
0.0023678351261553934,-0.0006419528275187363,3.0883171413521976e-05
0.0031135690635641935,-0.0006405824764713063,3.056253758752447e-05
0.0038396721135420323,-0.0006388441661770298,3.0242680926862384e-05
0.004545031677765527,-0.0006367479902292029,2.9923782887760826e-05
0.005228605549153778,-0.000634304580922473,2.9606019744972907e-05
0.005889429668411828,-0.0006315250721180817,2.9289562331712767e-05
0.006526625392313623,-0.0006284210583529003,2.8974575799095023e-05
0.00713940609069916,-0.0006250045504821471,2.866121939688626e-05
0.007727082895326907,-0.0006212879282356406,2.8349646277206812e-05
0.00828906944402152,-0.0006172838901508035,2.8040003322610202e-05
0.008824885490426275,-0.0006130054014171915,2.7732430999718203e-05
0.00933415927924605,-0.0006084656402247735,2.742706323930771e-05
0.009816628622069994,-0.0006036779432494444,2.7124027343439158e-05
0.010272140653649772,-0.0005986557509305145,2.6823443919894168e-05
0.010700650301485225,-0.0005934125531917308,2.6525426843863607e-05
0.011102217551909014,-0.0005879618362283822,2.6230083246508578e-05
0.011477003632071946,-0.000582317030932387,2.5937513529718385e-05
0.011825266250600033,-0.000576491463461719,2.564781140611986e-05
0.012147354061909126,-0.0005704983083835918,2.536106396315853e-05
0.01244370054200324,-0.0005643505447326136,2.507735174987948e-05
0.012714817472588852,-0.0005580609152289656,2.4796748884889083e-05
0.012961288214968975,-0.0005516418888070762,2.4519323183880072e-05
0.013183760925316356,-0.0005451056265220049,2.42451363050478e-05
0.013382941834617877,-0.0005384639508320213,2.3974243910709295e-05
0.013559588693536974,-0.0005317283181999826,2.3706695843451293e-05
0.01371450446045365,-0.000524909794911485,2.3442536315173428e-05
0.013848531293001745,-0.0005180190359731212,2.3181804107452275e-05
0.013962544897646981,-0.000511066266925459,2.292453278172763e-05
0.01405744929659444,-0.0005040612683768986,2.267075089790204e-05
0.014134172074315094,-0.0004970133630341712,2.242048224004927e-05
0.014193660156180543,-0.0004899314049765473,2.2173746048046592e-05
0.014236876148975309,-0.00048282377090025835,2.193055725407739e-05
0.01426479524588235,-0.00047569835305154393,2.169092672308944e-05
0.014278402675300613,-0.0004685625535712482,2.1454861496433742e-05
0.014278691655581231,-0.00046142327998852773,2.1222365038043797e-05
0.014266661803157077,-0.00045428694162384317,2.0993437482640704e-05
0.014243317923853568,-0.0004471594466920905,2.076807588556172e-05
0.014209669093390812,-0.0004400461999377794,2.0546274473904254e-05
0.014166727906464994,-0.00043295210068781546,2.0328024898747854e-05
0.014115509753731626,-0.0004258815412727663,2.011331648825771e-05
0.014057031980211585,-0.0004188384058392805,1.9902136501479696e-05
0.013992312789339796,-0.0004118260696468927,1.9694470382608154e-05
0.013922369783222725,-0.0004048473990037521,1.9490302015445494e-05
0.013848218069561808,-0.00039790475204055595,1.9289613977684416e-05
0.01377086791087867,-0.00039099998054544584,1.9092387794537916e-05
0.013691321927895584,-0.00038413443308575227,1.8898604191130115e-05
0.013610571886542184,-0.0003773089596321428,1.870824334295064e-05
0.013529595101859275,-0.00037052391788504243,1.8521285123571344e-05
0.013449350495936924,-0.0003637791814855934,1.8337709348728686e-05
0.013370774359641664,-0.0003570741502716987,1.8157496015789364e-05
0.013294775885698077,-0.0003504077627103638,1.798062553754385e-05
0.013222232552165146,-0.000343778510600898,1.7807078969216034e-05
0.01315398543166546,-0.0003371844561049403,1.7636838227539576e-05
0.013090834484855478,-0.0003306232511258101,1.7469886300731887e-05
0.013033533878962358,-0.00032409215903485565,1.7306207448191722e-05
0.012982787365128593,-0.0003175880787238329,1.714578738875205e-05
0.012939243754040888,-0.0003111075709440405,1.6988613476335084e-05
0.012903492543628709,-0.0003046468868696231,1.6834674861881667e-05
0.012876059768449202,-0.0002982019987916036,1.668396264046636e-05
0.012857404147118912,-0.0002917686328127116,1.653646998256528e-05
0.012847913592780013,-0.0002853423033777369,1.6392192248517668e-05
0.012847902123955281,-0.00027891834944855306,1.6251127085311097e-05
0.012857607186403275,-0.0002724919721209634,1.6113274504918718e-05
0.01287718739021077,-0.0002660582734768099,1.5978636943519275e-05
0.012906720682323458,-0.00025961229645867634,1.5847219301035403e-05
0.012946202995442918,-0.0002531490655392347,1.5719028960535924e-05
0.01299554742307489,-0.0002466636279346053,1.5594075787167466e-05
0.01305458396809762,-0.00024015109508681217,1.547237210641211e-05
0.013123059907746837,-0.00023360668411785107,1.5353932661610943e-05
0.013200640814263295,-0.00022702575893734854,1.5238774550847143e-05
0.013286912261545006,-0.00022040387066839647,1.5126917143445706e-05
0.013381382226739541,-0.00021373679704632533,1.5018381976517025e-05
0.013483484162320265,-0.00020702058044906038,1.4913192632143178e-05
0.013592580677558157,-0.00020025156423909078,1.481137459597114e-05
0.013707967739262548,-0.0001934264271348856,1.4712955098127647e-05
0.013828879286774834,-0.00018654221537837626,1.4617962937499331e-05
0.013954492154272911,-0.00017959637251811433,1.4526428290525208e-05
0.01408393119993758,-0.0001725867666795617,1.443838250572579e-05
0.01421627455620582,-0.00016551171524052584,1.4353857885245767e-05
0.014350558940372305,-0.00015837000686638131,1.4272887454719041e-05
0.01448578499453074,-0.00015116092088265554,1.4195504722781782e-05
0.014620922645841306,-0.00014388424397256252,1.4121743431567977e-05
0.014754916488075307,-0.00013654028418908336,1.4051637299527566e-05
0.01488669118828822,-0.00012912988226999249,1.3985219757912797e-05
0.015015156919899337,-0.0001216544202429456,1.3922523682284564e-05
0.015139214811922245,-0.0001141158273099902,1.386358112039633e-05
0.015257762387324588,-0.00010651658301017849,1.3808423017816287e-05
