frame_number,force
0,695.1485600049614
1,694.9908553263896
2,694.8336439436343
3,694.6774156741959
4,694.5226534256426
5,694.369829853894
6,694.2194041492611
7,694.07181898273
8,693.9274976405717
9,693.7868413719898
10,693.6502269716354
11,693.5180046158341
12,693.3904959680166
13,693.2679925654086
14,693.1507544958116
15,693.0390093700336
16,692.9329515915821
17,692.8327419205865
18,692.7385073244152
19,692.6503411040302
20,692.5683032829663
21,692.4924212443433
22,692.422690599601
23,692.3590762702225
24,692.3015137609715
25,692.249910600966
26,692.2041479277747
27,692.1640821895674
28,692.1295469409898
29,692.1003547098078
30,692.076298913364
31,692.0571558060408
32,692.0426864406647
33,692.0326386281124
34,692.0267488808705
35,692.024744328419
36,692.0263445947814
37,692.0312636306742
38,692.0392114939629
39,692.0498960727967
40,692.0630247463245
41,692.0783059785067
42,692.0954508409495
43,692.1141744606905
44,692.1341973885649
45,692.1552468833632
46,692.1770581067703
47,692.199375224331
48,692.2219524083708
49,692.2445547394025
50,692.2669590027709
51,692.2889543774174
52,692.310343014288
53,692.3309405032792
54,692.3505762290862
55,692.3690936171199
56,692.3863502709828
57,692.4022180038784
58,692.4165827681912
59,692.4293444896034
60,692.440416813536
61,692.4497267719034
62,692.4572143774452
63,692.4628321522014
64,692.46654459683
65,692.4683276084237
66,692.4681678556927
67,692.4660621212751
68,692.4620166213699
69,692.4560463130923
70,692.4481742002152
71,692.4384306482173
72,692.4268527192369
73,692.4134835361456
74,692.3983716827051
75,692.3815706443642
76,692.3631382920981
77,692.3431364098524
78,692.321630264597
79,692.2986882166291
80,692.274381366388
81,692.2487832329366
82,692.221969458826
83,692.1940175364049
84,692.1650065514697
85,692.1350169412508
86,692.1041302650078
87,692.0724289869419
88,692.0399962725563
89,692.0069158006148
90,691.9732715929571
91,691.9391478636182
92,691.9046288875171
93,691.8697988878645
94,691.8347419403244
95,691.7995418906099
96,691.7642822806896
97,691.7290462775276
98,691.6939165977933
99,691.6589754223692
100,691.6243042952574
101,691.5899840020703
102,691.5560944235522
103,691.5227143596749
104,691.4899213198036
105,691.4577912744812
106,691.4263983650276
107,691.395814568779
108,691.3661093201858
109,691.3373490906015
110,691.3095969322625
111,691.2829119947709
112,691.2573490251339
113,691.2329578645364
114,691.2097829562088
115,691.1878628790562
116,691.1672299211406
117,691.1479097055804
118,691.129920879149
119,691.1132748712687
120,691.0979757287982
121,691.0840200303679
122,691.0713968828803
123,691.0600880015372
124,691.0500678729413
125,691.0413039986581
126,691.0337572147088
127,691.0273820811515
128,691.0221273351381
129,691.0179364003885
130,691.014747945969
131,691.0124964878906
132,691.0111130283775
133,691.0105257290943
134,691.0106606153474
135,691.0114423077969
136,691.0127947765845
137,691.0146421106814
138,691.01690929369
139,691.0195229769073
140,691.0224122407479
141,691.0255093359661
142,691.0287503961705
143,691.0320761128445
144,691.0354323635079
145,691.0387707831084
146,691.0420492688622
147,691.0452324100219
148,691.0482918362
149,691.0512064801229
150,691.0539627525485
151,691.0565546287457
152,691.0589836475277
153,691.0612588249401
154,691.0633964851027
155,691.0654200107034
156,691.0673595155107
157,691.0692514410273
158,691.071138079447
159,691.0730670260122
160,691.0750905656839
161,691.0772650010074
162,691.0796499295566
163,691.0823074802598
164,691.0853015184324
165,691.088696829635
166,691.0925582925556
167,691.0969500509416
168,691.1019346940947
169,691.1075724546174
170,691.1139204311976
171,691.1210318436121
172,691.1289553270308
173,691.1377342730261
174,691.1474062252508
175,691.1580023381645
176,691.1695469070868
177,691.1820569771744
178,691.1955420381111
179,691.2100038107031
180,691.2254361307891
181,691.2418249341871
182,691.2591483436586
183,691.2773768557197
184,691.2964736223157
185,691.3163948200666
186,691.3370900979618
187,691.3585030933325
188,691.3805720059578
189,691.4032302208919
190,691.4264069712714
191,691.4500280325896
192,691.4740164399271
193,691.4982932196574
194,691.5227781272825
195,691.5473903832229
196,691.5720493982441
197,691.5966754794687
198,691.6211905070608
199,691.6455185716244
200,691.6695865632714
201,691.6933247044491
202,691.716667019616
203,691.73955173625
204,691.7619216139312
205,691.7837242010074
206,691.8049120208134
207,691.8254426911082
208,691.8452789813155
209,691.8643888125513
210,691.8827452055424
211,691.9003261816492
212,691.917114622417
213,691.9330980933169
214,691.9482686373432
215,691.9626225436955
216,691.9761600958427
217,691.9888853018699
218,692.00080560837
219,692.0119315979077
220,692.0222766699893
221,692.0318567067383
222,692.04068972657
223,692.0487955311039
224,692.0561953514598
225,692.0629114995357
226,692.068967028202
227,692.0743854025548
228,692.079190183433
229,692.0834047244792
230,692.0870518844966
231,692.0901537571689
232,692.0927314202951
233,692.0948047067434
234,692.0963919994522
235,692.097510052979
236,692.0981738442769
237,692.0983964556426
238,692.0981889931675
239,692.0975605444288
240,692.0965181794273
241,692.0950669985468
242,692.0932102301084
243,692.0909493777344
244,692.0882844147302
245,692.0852140198679
246,692.0817358469076
247,692.0778468190188
248,692.0735434387137
249,692.0688221038068
250,692.0636794204001
251,692.0581125050516
252,692.0521192698974
253,692.045698686244
254,692.0388510237254
255,692.0315780634305
256,692.0238832843205
257,692.0157720227184
258,692.0072516048601
259,691.9983314529704
260,691.9890231663745
261,691.9793405804104
262,691.969299806649
263,691.9589192578254
264,691.9482196601434
265,691.9372240546752
266,691.9259577886282
267,691.9144484961384
268,691.9027260668203
269,691.8908225988976
270,691.878772332964
271,691.8666115625908
272,691.8543785188142
273,691.8421132263519
274,691.8298573298902
275,691.8176538892584
276,691.8055471433794
277,691.7935822446292
278,691.7818049671591
279,691.7702613942948
280,691.7589975911305
281,691.7480592687106
282,691.737491445539
283,691.7273381108561
284,691.7176418929154
285,691.7084437347767
286,691.6997825796614
287,691.6916950674736
288,691.6842152438213
289,691.6773742830135
290,691.6712002268666
291,691.6657177413161
292,691.6609478928235
293,691.6569079467828
294,691.653611190768
295,691.651066786319
296,691.6492796535354
297,691.6482503923442
298,691.6479752426467
299,691.6484460833476
300,691.6496504687509
301,691.6515717005499
302,691.6541889343421
303,691.6574773206236
304,691.6614081811075
305,691.6659492216833
306,691.6710647831268
307,691.6767161297605
308,691.6828617751036
309,691.6894578424586
310,691.6964584571614
311,691.7038161656923
312,691.7114823754197
313,691.7194078080564
314,691.7275429601784
315,691.7358385650008
316,691.7442460504753
317,691.7527179893692
318,691.7612085373275
319,691.7696738551373
320,691.7780725113781
321,691.7863658612173
322,691.7945183964845
323,691.8024980617329
324,691.8102765309591
325,691.8178294400029
326,691.8251365703787
327,691.832181981287
328,691.838954087638
329,691.845445683004
330,691.8516539075266
331,691.857580161914
332,691.8632299697061
333,691.8686127907959
334,691.8737417896679
335,691.8786335620683
336,691.8833078241506
337,691.8877870688082
338,691.892096194824
339,691.8962621152389
340,691.9003133514524
341,691.9042796188526
342,691.9081914086069
343,691.9120795695253
344,691.9159748940967
345,691.9199077133248
346,691.9239075048678
347,691.9280025180119
348,691.9322194179153
349,691.936582951086
350,691.9411156343881
351,691.9458374707245
352,691.9507656954149
353,691.9559145575504
354,691.9612951398866
355,691.9669152193956
356,691.9727791692417
357,691.9788879023621
358,691.985238856973
359,691.9918260246088
360,691.9986400212392
361,692.0056682017047
362,692.0128948175512
363,692.0203012182637
364,692.02786609527
365,692.0355657664268
366,692.0433744963742
367,692.051264845897
368,692.0592080417866
369,692.0671743581134
370,692.0751335005377
371,692.083054986846
372,692.0909085182191
373,692.0986643362933
374,692.1062935614344
375,692.1137685085652
376,692.1210629781375
377,692.1281525204616
378,692.1350146710953
379,692.1416291538119
380,692.147978046623
381,692.1540459059468
382,692.1598198442719
383,692.1652895575072
384,692.1704472997283
385,692.1752878050892
386,692.1798081586345
387,692.1840076191754
388,692.1878873986185
389,692.191450403786
390,692.1947009488691
391,692.1976444485291
392,692.2002871026319
393,692.2026355834577
394,692.2046967351785
395,692.2064772938681
396,692.2079836347624
397,692.2092215521703
398,692.2101960763778
399,692.2109113309309
400,692.2113704326304
401,692.2115754354859
402,692.2115273191505
403,692.2112260220525
404,692.210670519086
405,692.2098589426114
406,692.2087887435246
407,692.2074568867938
408,692.2058600739383
409,692.2039949839142
410,692.2018585238565
411,692.1994480818585
412,692.1967617750317
413,692.1937986869476
414,692.1905590888821
415,692.1870446393332
416,692.1832585567254
417,692.179205761475
418,692.1748929855084
419,692.1703288492154
420,692.1655239069629
421,692.160490662503
422,692.1552435551702
423,692.1497989170741
424,692.1441749009762
425,692.1383913786935
426,692.1324698108078
427,692.1264330897801
428,692.1203053599925
429,692.1141118196731
430,692.1078785107967
431,692.1016321033491
432,692.0953996796779
433,692.0892085235876
434,692.083085917947
435,692.0770589538158
436,692.0711543530792
437,692.0653983053697
438,692.0598163191027
439,692.054433086125
440,692.0492723597293
441,692.0443568462154
442,692.0397081103157
443,692.0353464945943
444,692.0312910527532
445,692.0275594968746
446,692.0241681587164
447,692.0211319651428
448,692.0184644278037
449,692.0161776474263
450,692.0142823332422
451,692.0127878378502
452,692.0117022074172
453,692.0110322472357
454,692.0107836035526
455,692.0109608637098
456,692.0115676769453
457,692.0126068970479
458,692.0140807455697
459,692.0159909910592
460,692.0183391362528
461,692.0211266020589
462,692.0243548956437
463,692.0280257508463
464,692.0321412320861
465,692.0367037963955
466,692.041716310956
467,692.0471820256053
468,692.0531045020166
469,692.059487503846
470,692.066334854382
471,692.0736502693452
472,692.0814371725414
473,692.0896985017309
474,692.098436511699
475,692.1076525810192
476,692.117347028265
477,692.1275189424119
478,692.1381660308583
479,692.1492844869879
480,692.1608688779049
481,692.1729120521635
482,692.1854050668663
483,692.1983371332373
484,692.2116955797919
485,692.2254658327964
486,692.239631414745
487,692.2541739625925
488,692.2690732677906
489,692.2843073394571
490,692.2998524905955
491,692.3156834459712
492,692.3317734695981
493,692.3480945098371
494,692.3646173605872
495,692.3813118376275
496,692.3981469694272
497,692.4150912018076
498,692.4321126163227
499,692.4491791631713
500,692.4662589100378
501,692.4833203076968
502,692.5003324715783
503,692.5172654764142
504,692.534090659342
505,692.5507809258737
506,692.5673110527393
507,692.5836579812521
508,692.5998010940759
509,692.6157224674295
510,692.6314070906468
511,692.6468430461035
512,692.6620216445168
513,692.6769375130187
514,692.6915886359252
515,692.7059763503722
516,692.7201053003455
517,692.7339833528421
518,692.7476214794001
519,692.7610336055268
520,692.7742364299855
521,692.7872492159556
522,692.8000935571062
523,692.812793123219
524,692.8253733914502
525,692.837861370349
526,692.8502853243141
527,692.8626745060609
528,692.8750589038575
529,692.8874690091036
530,692.8999356084803
531,692.912489603235
532,692.9251618560832
533,692.9379830639305
534,692.9509836524455
535,692.9641936866831
536,692.9776427907169
537,692.9913600685932
538,693.0053740185822
539,693.0197124324686
540,693.0344022717896
541,693.0494695142946
542,693.0649389669252
543,693.0808340458415
544,693.0971765283532
545,693.1139862850137
546,693.1312810020215
547,693.1490759043058
548,693.1673834884001
549,693.1862132716519
550,693.2055715608532
551,693.2254612400557
552,693.2458815754769
553,693.2668280354555
554,693.2882921244599
555,693.3102612310565
556,693.3327184903178
557,693.3556426617893
558,693.3790080248851
559,693.402784294202
560,693.4269365578934
561,693.4514252432011
562,693.4762061145209
563,693.5012303108327
564,693.5264444302728
565,693.5517906690387
566,693.5772070192897
567,693.6026275270991
568,693.6279826081084
569,693.6531994160811
570,693.6782022582181
571,693.7029130508275
572,693.7272518095901
573,693.7511371698016
574,693.7744869328538
575,693.7972186350635
576,693.8192501333466
577,693.8405001997573
578,693.8608891149286
579,693.8803392500384
580,693.898775627915
581,693.9161264553975
582,693.9323236202744
583,693.9473031468178
584,693.9610056046052
585,693.9733764665194
586,693.9843664134413
587,693.9939315846734
588,694.0020337746143
589,694.0086405780319
590,694.0137254882659
591,694.0172679539461
592,694.0192533998152
593,694.0196732163286
594,694.0185247214426
595,694.0158110967672
596,694.0115412991443
597,694.0057299475272
598,693.998397183583
599,693.9895685030664
600,693.979274554487
601,693.9675509023449
602,693.9544377539312
603,693.9399796505596
604,693.924225125418
605,693.9072263307584
606,693.8890386370722
607,693.8697202068391
608,693.849331546227
609,693.8279350399669
610,693.8055944767449
611,693.7823745738751
612,693.758340510381
613,693.73355747705
614,693.708090250859
615,693.6820027998675
616,693.6553579236119
617,693.6282169331043
618,693.600639373547
619,693.5726827917383
620,693.5444025487436
621,693.5158516765096
622,693.487080774837
623,693.458137942912
624,693.4290687378561
625,693.3999161519399
626,693.3707206005708
627,693.3415199147635
628,693.3123493339801
629,693.2832414976891
630,693.2542264367789
631,693.225331568804
632,693.1965817029953
633,693.1679990612814
634,693.1396033204497
635,693.1114116790425
636,693.0834389513277
637,693.0556976896971
638,693.0281983357409
639,693.000949398898
640,692.9739576602102
641,692.9472283976011
642,692.9207656283683
643,692.8945723642194
644,692.8686508743168
645,692.8430029524322
646,692.8176301851074
647,692.7925342181057
648,692.7677170182036
649,692.7431811269172
650,692.718929902572
651,692.6949677471762
652,692.671300314525
653,692.647934695664
654,692.6248795774072
655,692.6021453691865
656,692.5797442933388
657,692.5576904342106
658,692.5359997422917
659,692.5146899908475
660,692.4937806838958
661,692.47329291543
662,692.4532491803449
663,692.4336731380433
664,692.4145893309208
665,692.3960228619834
666,692.3779990381981
667,692.3605429881824
668,692.3436792640833
669,692.3274314375783
670,692.3118216986493
671,692.2968704634458
672,692.282595995001
673,692.269014038708
674,692.2561374736041
675,692.243975980375
676,692.2325357270807
677,692.2218190736193
678,692.2118242959938
679,692.202545331972
680,692.1939715508421
681,692.1860875512804
682,692.1788729924301
683,692.1723024640762
684,692.1663454023677
685,692.1609660578353
686,692.1561235221818
687,692.1517718192965
688,692.1478600644136
689,692.1443326938914
690,692.1411297670866
691,692.1381873409312
692,692.1354379163441
693,692.132810953207
694,692.1302334479902
695,692.1276305663542
696,692.1249263224598
697,692.1220442965905
698,692.1189083823067
699,692.1154435537718
700,692.1115766436241
701,692.1072371219393
702,692.1023578669564
703,692.0968759177284
704,692.0907331976374
705,692.0838771961699
706,692.0762615951886
707,692.0678468259283
708,692.0586005445057
709,692.04849801659
710,692.0375224053724
711,692.0256649606588
712,692.0129251105502
713,691.9993104604881
714,691.9848367069164
715,691.9695274741052
716,691.9534140828332
717,691.9365352588106
718,691.918936787103
719,691.9006711168424
720,691.8817969189895
721,691.8623785992892
722,691.8424857684648
723,691.8221926714873
724,691.80157757762
725,691.7807221336601
726,691.7597106846977
727,691.7386295691855
728,691.7175663971096
729,691.69660932088
730,691.6758463082338
731,691.6553644253324
732,691.6352491367669
733,691.6155836278845
734,691.5964481541658
735,691.5779194221016
736,691.5600700054658
737,691.5429677996976
738,691.5266755155809
739,691.5112502122662
740,691.4967428694351
741,691.4831979990113
742,691.4706532978091
743,691.4591393435287
744,691.4486793375808
745,691.4392888993876
746,691.4309759178118
747,691.4237404657441
748,691.417574783296
749,691.4124633334702
750,691.4083829318571
751,691.4053029492512
752,691.4031855837455
753,691.4019861972795
754,691.4016537107833
755,691.4021310516981
756,691.4033556475539
757,691.405259959343
758,691.4077720485507
759,691.4108161717104
760,691.4143133960201
761,691.418182229063
762,691.4223392557166
763,691.4266997763434
764,691.4311784420365
765,691.4356898844684
766,691.4401493394747
767,691.4444732646151
768,691.4485799510062
769,691.45239012853
770,691.4558275617694
771,691.4588196325951
772,691.4612979046814
773,691.4631986653328
774,691.4644634404948
775,691.4650394790893
776,691.4648802025482
777,691.4639456148255
778,691.4622026675669
779,691.4596255745436
780,691.4561960691823
781,691.4519035995755
782,691.4467454567207
783,691.4407268330472
784,691.4338608087879
785,691.4261682635279
786,691.4176777098791
787,691.4084250461731
788,691.398453225665
789,691.3878118412638
790,691.376556627191
791,691.3647488817151
792,691.3524548177617
793,691.3397448508483
794,691.3266928365615
795,691.3133752721284
796,691.2998704775952
797,691.2862577713295
798,691.2726166526112
799,691.2590260018507
800,691.2455633070418
801,691.2323039234587
802,691.2193203721426
803,691.2066816814455
804,691.1944527750071
805,691.1826939090464
806,691.1714601616927
807,691.1608009776742
808,691.1507597732832
809,691.1413736084113
810,691.1326729333398
811,691.1246814174475
812,691.1174158654206
813,691.1108862242062
814,691.1050956810548
815,691.1000408502159
816,691.0957120439173
817,691.092093622169
818,691.0891644149478
819,691.086898208836
820,691.0852642884911
821,691.0842280221294
822,691.0837514797587
823,691.0837940725634
824,691.0843132011419
825,691.0852648997134
826,691.0866044639351
827,691.0882870517025
828,691.0902682483787
829,691.09250458963
830,691.09495403667
831,691.0975764008186
832,691.1003337168719
833,691.1031905670712
834,691.1061143584657
835,691.1090755557136
836,691.1120478693935
837,691.1150083977066
838,691.1179377180239
839,691.1208199246187
840,691.1236426101719
841,691.1263967907404
842,691.1290767762791
843,691.1316799912627
844,691.1342067523095
845,691.1366600116794
846,691.1390450765664
847,691.1413693139831
848,691.1436418501454
849,691.1458732725105
850,691.1480753424047
851,691.15026072611
852,691.1524427516321
853,691.1546351966299
854,691.1568521102403
855,691.1591076686573
856,691.1614160623228
857,691.1637914116776
858,691.1662477081799
859,691.1687987772083
860,691.1714582592372
861,691.1742396052522
862,691.1771560819768
863,691.1802207823448
864,691.1834466368416
865,691.1868464216568
866,691.1904327597372
867,691.1942181106565
868,691.1982147449833
869,691.2024346990517
870,691.2068897069663
871,691.2115911080592
872,691.2165497294471
873,691.2217757446685
874,691.2272785107872
875,691.2330663880484
876,691.2391465480567
877,691.2455247781714
878,691.2522052910986
879,691.2591905490921
880,691.2664811112232
881,691.2740755097991
882,691.2819701591413
883,691.2901592978762
884,691.2986349650411
885,691.3073870100841
886,691.3164031365097
887,691.3256689783169
888,691.3351682075329
889,691.3448826700699
890,691.354792546204
891,691.3648765319301
892,691.3751120386593
893,691.3854754105218
894,691.3959421598717
895,691.4064872219939
896,691.417085229709
897,691.4277108075779
898,691.4383388837391
899,691.4489450156449
900,691.459505724987
901,691.4699988369894
902,691.4804038192735
903,691.4907021150932
904,691.5008774650154
905,691.5109162107013
906,691.5208075750062
907,691.5305439143171
908,691.5401209411118
909,691.5495379160559
910,691.5587978091746
911,691.5679074290323
912,691.5768775178631
913,691.5857228095837
914,691.5944620469278
915,691.6031179535918
916,691.6117171570811
917,691.6202900581028
