acceleration,velocity,displacement
0.045440862976534796,0.0,0.0
0.04320501121346987,2.2161468547501166e-05,5.540367136875291e-09
0.040976153132083734,4.320675963388957e-05,2.188242418222298e-08
0.038761233100364736,6.314110619200168e-05,4.846939063869579e-08
0.036567097521018145,8.19731888473474e-05,8.474796439853307e-08
0.0344004474544098,9.971507509120439e-05,1.30170030383171e-07
0.032267793052780394,0.00011638213521800194,1.8419433296047258e-07
0.030175410266301123,0.00013199293604777233,2.4628810077691615e-07
0.02812930021912499,0.00014656911366912886,3.1592861320614145e-07
0.026135151605761114,0.0001601352266253504,3.926046982797613e-07
0.02419830641728276,0.00017271859113111138,4.758181527188767e-07
0.022323729264516784,0.00018434910005156127,5.650850755145448e-07
0.02051598051786779,0.00019505902749715741,6.599371074017245e-07
0.01877919343467514,0.00020488282098529316,7.599225695223371e-07
0.01711705539932602,0.00021385688319379344,8.646074955671087e-07
0.015532793354931483,0.0002220193453823578,9.735765527111466e-07
0.014029163449433541,0.00022940983458344906,1.0864338477025983e-06
0.012608444853126234,0.000236069236659089,1.2028036155132328e-06
0.011272437640788575,0.0002420394572825677,1.3223307889986469e-06
0.01002246458307214,0.0002473631828385329,1.444681449028922e-06
0.008859376661237721,0.00025208364314961034,1.5695431555259578e-06
0.00778356209836775,0.0002562443778395117,1.6966251607732384e-06
0.006794958675827004,0.0002598890080330604,1.8256585072413814e-06
0.005893069069348501,0.0002630610149693543,1.9563960129919852e-06
0.005076978900299922,0.0002658035269617664,2.0886121484747656e-06
0.0043453771664590315,0.00026815911597845613,2.2221028092098213e-06
0.0036965787004651844,0.0002701696049451872,2.356684989440732e-06
0.0031285483019976956,0.0002718758866958029,2.4921963623509793e-06
0.0026389261987143655,0.0002733177553209809,2.628494772855175e-06
0.002225054510523206,0.0002745337504982903,2.765457649309993e-06
0.0018840044200763247,0.00027556101523094017,2.9029813407423003e-06
0.0016126037828426256,0.0002764351672816699,3.040980386370453e-06
0.0014074649348424432,0.00027719018446109117,3.1793867243061432e-06
0.001265012474880431,0.0002778583038135219,3.3181488463747964e-06
0.0011815108192919342,0.000278469934637065,3.457230905987443e-06
0.0011530913572102923,0.00027905358518119053,3.596611785942007e-06
0.0011757790694592433,0.0002796358027878579,3.736284132934269e-06
0.0012455185037799827,0.00028024112718116775,3.876253365426526e-06
0.00135819901717704,0.000280892056561407,4.01653666136217e-06
0.0015096792055880606,0.0002816090261170983,4.157161932031796e-06
0.0016958104486144703,0.0002824103985306489,4.2981667881937325e-06
0.001912459505737556,0.0002833124660192369,4.439597504331204e-06
0.0021555301062259873,0.0002843294634222278,4.58150798669157e-06
0.002420983475066524,0.0002854735918175509,4.723958750501515e-06
0.002704857732920384,0.00028675505211954764,4.8670159114857894e-06
0.00300328610221665,0.0002881820880783319,5.010750196535259e-06
0.003312513848349499,0.0002897610380659734,5.1552359780713355e-06
0.003628913888578999,0.00029149639500020553,5.3005503363378806e-06
0.003949001010899525,0.0002933908737250752,5.446772153519201e-06
0.004269444653688784,0.00029544548514122225,5.593981243235775e-06
0.004587080200117607,0.0002976596163546739,5.742257518609749e-06
0.004898918743070391,0.00030003111609047087,5.8916802017210354e-06
0.005202155285510103,0.000302556384597616,6.0423270768930574e-06
0.005494175360580923,0.00030523046725913875,6.194273789857246e-06
0.005772560076635279,0.0003080471511184428,6.347593194451642e-06
0.006035089603707739,0.00031099906353852856,6.502354748115885e-06
0.006279745122576001,0.0003140777722200995,6.658623957055541e-06
0.006504709270068013,0.0003172738858182605,6.816461871565131e-06
0.0067083651406850305,0.0003205771544209488,6.975924631624934e-06
0.00688929393479284,0.0003239765691898183,7.137063062527625e-06
0.007046271363808143,0.00032746046051446853,7.299922319953697e-06
0.007178262925621277,0.0003310165940868259,7.46454158360402e-06
0.007284418153248697,0.0003346322643565434,7.630953798214862e-06
0.00736406392981546,0.00033829438487730944,7.799185460523325e-06
0.007416696964823148,0.0003419895751009691,7.969256450517895e-06
0.007441975540268579,0.000345704243227242,8.141179905099948e-06
0.0074397106523249445,0.00034942466477539037,8.314962132100606e-06
0.007409856686970465,0.00035313705661021424,8.490602562447008e-06
0.0073525017741212445,0.0003568276462254872,8.668093738155932e-06
0.007267857967676224,0.00036048273616093654,8.847421333752538e-06
0.0071562514027053445,0.0003640887635035319,9.028564208668655e-06
0.007018112584564376,0.00036763235450034933,9.211494488169626e-06
0.006853966960237498,0.0003711003743865498,9.396177670391352e-06
0.006664425902507814,0.0003744799726022361,9.582572757138549e-06
0.006450178205711797,0.000377758623629291,9.77063240619643e-06
0.006211982157654082,0.0003809241637201325,9.960303103033786e-06
0.005950658221771953,0.000383964823814989,1.0151525349917567e-05
0.005667082337474716,0.00038686925895480066,1.0344233870610015e-05
0.005362179824617643,0.0003896265744953238,1.0538357828972546e-05
0.005036919858572347,0.0003922263494161213,1.0733821059950406e-05
0.004692310462970445,0.000394658656996507,1.0930542311553563e-05
0.004329393951382482,0.0003969140831000952,1.1128435496577713e-05
0.003949242743045094,0.00039898374227370214,1.1327409952921162e-05
0.003552955482626671,0.00040085929183012007,1.1527370711447117e-05
0.0031416534058394518,0.0004025329440522366,1.1728218770417706e-05
0.0027164769082951745,0.00040399747663077024,1.1929851375588458e-05
0.002278582293129265,0.00040524624143112634,1.2132162305103932e-05
0.0018291386932496369,0.00040627317167772105,1.2335042158381144e-05
0.0013693251842490377,0.00040707278764709573,1.2538378648212347e-05
0.0009003281184470051,0.00040764020097276975,1.2742056895367315e-05
0.0004233387121102748,0.00040797111768040907,1.294595972503061e-05
-6.044909365121536e-05,0.0004080618400850238,1.3149967964471967e-05
-0.0005498404945524199,0.0004079092676879729,1.3353960741415217e-05
-0.0010436414193957825,0.00040751089720948583,1.3557815782639582e-05
-0.0015406598888219845,0.0004068648218824314,1.376140971241256e-05
-0.0020397071835937873,0.00040596973011432745,1.3964618350411751e-05
-0.0025395988907980192,0.0004048249035957295,1.4167317008839265e-05
-0.003039155914132035,0.000403430214894497,1.4369380788461822e-05
-0.00353720554132815,0.0004017861245306319,1.4570684873318105e-05
-0.004032582656218551,0.0003998936774812452,1.4771104823821074e-05
-0.004524131171978168,0.00039775449902419604,1.4970516867947435e-05
-0.005010705753824186,0.00039537078979274545,1.516879819015167e-05
-0.005491173895705061,0.00039274531988036315,1.536582721756995e-05
-0.005964418414175743,0.0003898814218028929,1.5561483902990763e-05
-0.006429340423316638,0.0003867829820935198,1.5755650003964865e-05
-0.006884862853797899,0.0003834544312742412,1.5948209357306804e-05
-0.007329934570029248,0.0003799007319182844,1.6139048148104934e-05
-0.007763535116207917,0.0003761273644967251,1.6328055172208687e-05
-0.008184680088194247,0.0003721403106956245,1.6515122091006776e-05
-0.008592427091039459,0.0003679460339008161,1.6700143677155886e-05
-0.008985882204185558,0.00036355145657700986,1.6883018049775342e-05
-0.009364206836518684,0.0003589639343168338,1.7063646897498804e-05
-0.009726624814537364,0.0003541912264040698,1.724193568767903e-05
-0.010072429516838781,0.00034924146282122576,1.7417793859985354e-05
-0.010400990851305554,0.00034412310772918966,1.7591135002622957e-05
-0.010711761867054354,0.0003388449195495997,1.7761877009442653e-05
-0.011004284801380963,0.00033341590788249086,1.7929942216300675e-05
-0.011278196383549018,0.00032784528758625836,1.8095257515167863e-05
-0.011533232249677842,0.0003221424304279516,1.8257754444671414e-05
-0.011769230359590202,0.00031631681477563463,1.841736925597231e-05
-0.011986133339106687,0.0003103779738509604,1.8574042953128957e-05
-0.012183989694560544,0.0003043354430925436,1.8727721307364832e-05
-0.012362953862403755,0.0002981987072033025,1.8878354844938793e-05
-0.012523285074630568,0.00029197714746904393,1.902589880860688e-05
-0.012665345046409236,0.000285679989938784,1.9170313092958834e-05
-0.012789594522993152,0.0002793162550464334,1.931156215420514e-05
-0.01289658875012348,0.00027289470922815427,1.9449614895273787e-05
-0.01298697195075485,0.0002664238190529347,1.958444452734406e-05
-0.013061470901863544,0.0002599117083397801,1.9716028409192237e-05
-0.013120887711393348,0.00025336611868646586,1.98443478659488e-05
-0.013166091896201647,0.0002467943737845671,1.996938798906656e-05
-0.013198011852918166,0.00024020334784728714,2.0091137419474523e-05
-0.013217625794746562,0.00023359943843537096,2.020958811604519e-05
-0.013225952206808054,0.0002269885439349823,2.0324735111637778e-05
-0.01322403986235754,0.0002203760459176909,2.0436576259100946e-05
-0.013212957448968953,0.00021376679658985926,2.0545111969727832e-05
-0.013193782876909374,0.00020716511150838967,2.0650344946752396e-05
-0.013167592371752393,0.0002005747676962242,2.075227991655355e-05
-0.013135449475467569,0.0001939990072344192,2.085092336028621e-05
-0.013098394086354022,0.0001874405463439638,2.0946283248680806e-05
-0.0130574316639924,0.0001809015899063772,2.103836878274339e-05
-0.013013522720600723,0.00017438385131022892,2.1127190143047543e-05
-0.012967572719385088,0.00016788857745023248,2.121275825023766e-05
-0.012920422504462147,0.00016141657864427066,2.1295084539261285e-05
-0.012872839395127789,0.00015496826316937319,2.1374180749714694e-05
-0.012825509084973489,0.00014854367604934785,2.1450058734519374e-05
-0.012779028484528715,0.0001421425416569723,2.1522730288945952e-05
-0.012733899628249274,0.0001357643096287778,2.159220700176739e-05
-0.012690524736165016,0.00012940820353767423,2.1658500130059005e-05
-0.012649202488702983,0.00012307327173145723,2.1721620498876287e-05
-0.012610125546800924,0.00011675843972258126,2.1781578426739798e-05
-0.01257337932584075,0.00011046256350442085,2.1838383677546548e-05
-0.012538942009361653,0.00010418448317062024,2.1892045439215307e-05
-0.012506685772737973,9.792307622509533e-05,2.1942572329064235e-05
-0.012476379181413975,9.167730998655735e-05,2.1989972425617147e-05
-0.012447690728268434,8.544629250913674e-05,2.203425332624107e-05
-0.012420193476556322,7.922932145793056e-05,2.2075422229732837e-05
-0.012393370778332276,7.302593039420841e-05,2.211348604269587e-05
-0.012366623037712497,6.683593194019722e-05,2.2148451508279473e-05
-0.012339275475055353,6.065945731200526e-05,2.2180325355592522e-05
-0.012310586822418491,5.44969917376368e-05,2.2209114467854934e-05
-0.012279758852724282,4.83494053188511e-05,2.2234826067119057e-05
-0.012245946623754398,4.221797894973143e-05,2.22574679131862e-05
-0.012208269305116162,3.6104424967513794e-05,2.2277048514165514e-05
-0.012165821448860682,3.0010902279019585e-05,2.2293577345977146e-05
-0.012117684560297002,2.3940025776730164e-05,2.2307065077991083e-05
-0.01206293882442301,1.789486993055016e-05,2.2317523801917903e-05
-0.012000674845832535,1.1878966512986275e-05,2.232496726102879e-05
-0.011930005267206256,5.896296484726577e-06,2.2329411076778217e-05
-0.011850076143234332,-4.872386788356921e-08,2.2330872969932427e-05
-0.0117600779595583,-5.9512623935817265e-06,2.232937297336706e-05
-0.011659256194923431,-1.180609593220216e-05,2.2324933633785614e-05
-0.011546921326156055,-1.760764031247203e-05,2.2317580199724446e-05
-0.011422458170977002,-2.3349985186755292e-05,2.230734079334964e-05
-0.011285334455753318,-2.9026933343437872e-05,2.2294246563717093e-05
-0.011135108489383143,-3.4632044079721986e-05,2.2278331819361304e-05
-0.010971435825943189,-4.015868015855357e-05,2.2259634138301736e-05
-0.01079407480840861,-4.560005781714152e-05,2.2238194453807812e-05
-0.010602890897168206,-5.094929924353572e-05,2.2214057114542643e-05
-0.010397859695558447,-5.619948689171738e-05,2.2187269918008828e-05
-0.010179068595732138,-6.134371896454003e-05,2.2157884116544764e-05
-0.009946716992065953,-6.637516536148956e-05,2.2125954395463256e-05
-0.009701115048230883,-7.128712337156376e-05,2.2091538823279993e-05
-0.009442681048688277,-7.607307239579356e-05,2.2054698774338152e-05
-0.009171937405257853,-8.072672700928009e-05,2.2015498824486883e-05
-0.008889505422154022,-8.524208771613306e-05,2.197400662080553e-05
-0.008596098948814204,-8.961348880887511e-05,2.193029272667428e-05
-0.0082925170647147,-9.383564281225735e-05,2.1884430443768996e-05
-0.007979635940013594,-9.790368106343942e-05,2.1836495612800073e-05
-0.0076584000054349885,-0.00010181319004980158,2.1786566395021763e-05
-0.007329812555352584,-0.00010556024318999847,2.1734723036711814e-05
-0.0069949259047344566,-0.00010914142780502023,2.1681047618963058e-05
-0.006654831220641523,-0.00011255386708636422,2.162562379524021e-05
-0.006310648148503167,-0.00011579523692865039,2.156853651923646e-05
-0.005963514351472215,-0.00011886377755364424,2.1509871765615886e-05
-0.005614575078803426,-0.00012175829991121314,2.1449716246249672e-05
-0.005264972881140249,-0.00012447818690119905,2.1388157124546568e-05
-0.004915837601058342,-0.00012702338952174868,2.1325281730440833e-05
-0.0045682767794027026,-0.00012939441811686395,2.126117727853118e-05
-0.004223366618593549,-0.00013159232896636303,2.119593059176037e-05
-0.0038821436311414523,-0.0001336187065287968,2.112962783288658e-05
-0.003545597085505592,-0.00013547564170795855,2.1062354245827394e-05
-0.0032146623472807403,-0.00013716570656615513,2.0994193908758864e-05
-0.0028902151939267096,-0.000138691925951457,2.0925229500629462e-05
-0.0025730671492003388,-0.00014005774653723876,2.085554208250729e-05
-0.00226396184430292,-0.00014126700378561458,2.0785210894926575e-05
-0.0019635723777527117,-0.0001423238873411285,2.071431317214489e-05
-0.0016724996220732042,-0.00014323290534108498,2.0642923973974334e-05
-0.0013912714122678424,-0.00014399884809967024,2.0571116035614145e-05
-0.001120342545429973,-0.0001446267515890947,2.0498959635691955e-05
-0.0008600955191250655,-0.00014512186110523346,2.042652248251837e-05
-0.0006108419346349389,-0.00014548959546867345,2.0353869618374896e-05
-0.000372824488167078,-0.00014573551207437395,2.0281063341489132e-05
-0.00014621946975541879,-0.00014586527306385458,2.0208163145204574e-05
6.886031047097983e-05,-0.0001458846128536757,2.013522567372519e-05
0.0002723622427872979,-0.00014579930721536112,2.006230469370793e-05
0.00046429034606281086,-0.00014561514406814859,1.998945108088705e-05
0.0006447014447628533,-0.00014533789612044217,1.99167128208399e-05
0.0008137011126602137,-0.0001449732954810864,1.984413502293952e-05
0.0009714393836427886,-0.00014452701035701067,1.9771759946479996e-05
0.0011181062286729877,-0.00014400462395393172,1.9699627037902262e-05
0.0012539268159210103,-0.00014341161569278321,1.9627772977990582e-05
0.001379156600749449,-0.0001427533448386156,1.955623173785773e-05
0.001494076319823752,-0.00014203503660847232,1.9485034642495958e-05
0.0015989869764948413,-0.00014126177078439267,1.941421044064774e-05
0.0016942048968039468,-0.00014043847281606798,1.9343785379747627e-05
0.0017800569118953398,-0.00013956990736389317,1.9273783284702636e-05
0.0018568756972305032,-0.0001386606742116117,1.920422563930876e-05
0.0019249952856597052,-0.00013771520646588915,1.9135131669139383e-05
0.001984746772515855,-0.00013673777095134525,1.9066518424785075e-05
0.002036454237563502,-0.0001357324706988254,1.8998400864372533e-05
0.0020804309131182207,-0.000134703249411155,1.8930791934345036e-05
0.002116975628833076,-0.00013365389777566717,1.8863702647548332e-05
0.002146369564401559,-0.0001325880614773585,1.8797142157735077e-05
0.0021688733431961434,-0.00013150925075045906,1.8731117829678124e-05
0.0021847245022857285,-0.00013042085128908858,1.8665635304168236e-05
0.002194135376820267,-0.00012932613631931207,1.8600698557266135e-05
0.0021972914405408474,-0.00012822827961497178,1.8536309953282563e-05
0.002194350149610069,-0.00012713036921743406,1.847247029107446e-05
0.0021854403427922346,-0.00012603542159433348,1.8409178843371518e-05
0.0021706622547393384,-0.0001249463959449506,1.8346433388986696e-05
0.002150088195937823,-0.0001238662083322813,1.8284230237917388e-05
0.002123763935781243,-0.00012279774529935154,1.822256424950948e-05
0.002091710791815136,-0.00012174387661745245,1.816142884403028e-05
0.002053928385576565,-0.00012070746682310451,1.810081600817014e-05
0.0020103979854107293,-0.0001196913852303577,1.8040716295156774e-05
0.0019610863275960986,-0.00011869851415210599,1.7981118820311157e-05
0.0019059497904903699,-0.00011773175512258438,1.7922011252992484e-05
0.001844938788602027,-0.00011679403297781127,1.7863379805967386e-05
0.0017780022520884123,-0.00011588829771763867,1.7805209223293523e-05
0.0017050920640974162,-0.00011501752413859222,1.7747482767829464e-05
0.0016261673447440683,-0.00011418470928638184,1.769018220947322e-05
0.001541198493424919,-0.0001133928678268396,1.7633287815194914e-05
0.0014501709258770118,-0.00011264502547201411,1.75767783418702e-05
0.0013530884648259903,-0.00011194421062433836,1.7520631032846113e-05
0.001249976361587347,-0.00011129344441773503,1.7464821619085593e-05
0.0011408839389952037,-0.00011069572934258938,1.740932432564551e-05
0.001025886852554316,-0.000110154036644702,1.7354111884148688e-05
0.0009050889696831301,-0.00010967129268914264,1.7299155551815228e-05
0.0007786238735933813,-0.00010925036447832351,1.724442513752336e-05
0.0006466560132543227,-0.00010889404450661159,1.7189889035277126e-05
0.0005093815386161616,-0.00010860503511864396,1.713551426537081e-05
0.000367028870830945,-0.00010838593251628218,1.708126652346208e-05
0.00021985905571178833,-0.0001082392105346465,1.7027110237699348e-05
6.816593818341813e-05,-0.00010816720428617269,1.6973008633994142e-05
-8.772381787668605e-05,-0.000108172093756096,1.6918923809483575e-05
-0.0002474508534495973,-0.00010825588742392758,1.686481681418857e-05
-0.00041062338668051393,-0.00010842040598396011,1.6810647740836598e-05
-0.0005768176587580608,-0.00010866726624531976,1.675637582277928e-05
-0.0007455785983991354,-0.00010899786530960905,1.670195953989055e-05
-0.0009164207609586942,-0.00010941336514944851,1.6647356732275784e-05
-0.0010888295957839156,-0.00010991467773863417,1.6592524721553764e-05
-0.0012622630838917553,-0.00011050245090855308,1.6537420439391968e-05
-0.0014361537764488572,-0.00011117705512363823,1.648200056288392e-05
-0.0016099112575843472,-0.00011193857138214654,1.6426221656257474e-05
-0.0017829250482916878,-0.00011278678045861554,1.6370040318297286e-05
-0.001954567953015263,-0.00011372115370894228,1.6313413334755397e-05
-0.0021241998257522064,-0.00011474084565363414,1.6256297834914752e-05
-0.002291171705305854,-0.00011584468853639866,1.6198651451367243e-05
-0.002454830247173129,-0.00011703118902451841,1.6140432481977014e-05
-0.002614522365325755,-0.00011829852717764313,1.6081600052926473e-05
-0.002769599993263963,-0.00011964455776729056,1.602211428169024e-05
-0.0029194248829488927,-0.00012106681398634378,1.5961936438751834e-05
-0.003063373378690995,-0.00012256251355175374,1.590102910686731e-05
-0.003200841120130925,-0.00012412856717645922,1.5839356336685255e-05
-0.00333124763867947,-0.0001257615893661618,1.57768837975496e-05
-0.003454040818375262,-0.0001274579114804255,1.5713578922337952e-05
-0.003568701198445316,-0.00012921359698463063,1.564941104522169e-05
-0.0036747460986459664,-0.00013102445880890345,1.5584351531273307e-05
-0.003771733546461555,-0.00013288607872018033,1.5518373896891034e-05
-0.0038592659801610675,-0.00013479382860183598,1.545145392006053e-05
-0.003936993699433863,-0.0001367428935217347,1.5383569739529638e-05
-0.004004618035365917,-0.00013872829645543465,1.5314701942035346e-05
-0.004061894208524917,-0.00014074492451640735,1.5244833636792386e-05
-0.004108633834862664,-0.00014278755652725425,1.517395051653147e-05
-0.004144707027012911,-0.00014485089174272314,1.5102040904463975e-05
-0.004170044030463509,-0.00014692957950709226,1.502909578665152e-05
