frame_number,force
0,604.3152500000455
1,603.8931308168566
2,603.4944388015134
3,603.1407027856067
4,602.8499041597354
5,602.635268078133
6,602.504588559087
7,602.4600801456761
8,602.4986802987823
9,602.6127031865809
10,602.7907529843636
11,603.0188225462116
12,603.2815175864109
13,603.5633442268652
14,603.8499700575194
15,604.1293314623315
16,604.3924508962248
17,604.6338704439643
18,604.8516830595972
19,605.0472059007158
20,605.2243640681932
21,605.3888490564501
22,605.5471196482614
23,605.7053492836424
24,605.8684771579902
25,606.039539858817
26,606.2194105393398
27,606.4069683288617
28,606.5996096873725
29,606.7939367548868
30,606.9864326945084
31,607.1739634395345
32,607.3540242276952
33,607.5247526771366
34,607.6848103790289
35,607.8332562853471
36,607.9695033768927
37,608.0933953082834
38,608.2053850322267
39,608.3067542624685
40,608.3997866323369
41,608.4877984759398
42,608.5749408579265
43,608.6657262241733
44,608.7643118022263
45,608.8736719961773
46,608.9948662736346
47,609.1266122638397
48,609.2652988857228
49,609.4054536654785
50,609.5405583422173
51,609.6640265058311
52,609.7701375392188
53,609.8547631444675
54,609.9158067885041
55,609.9533615653374
56,609.9696334695801
57,609.9686682848052
58,609.9559027522922
59,609.9375732777133
60,609.9200507024431
61,609.9091939514493
62,609.9098091845276
63,609.9252684293219
64,609.9573008038415
65,610.0059418863352
66,610.069622075101
67,610.1453822710558
68,610.229205456171
69,610.3164354699494
70,610.4022260370929
71,610.4819430166743
72,610.5514500773127
73,610.6072467444454
74,610.6464838558811
75,610.6669318658061
76,610.6669980333484
77,610.6458613893649
78,610.6037248629074
79,610.5421086758411
80,610.4640707032072
81,610.3742524486233
82,610.2786960326566
83,610.1844298342531
84,610.098860336551
85,610.0290363240445
86,609.9808769917299
87,609.9584729751297
88,609.9635638785189
89,609.9952657254917
90,610.050083162389
91,610.1222085919328
92,610.2040817116881
93,610.287147340856
94,610.3627075365034
95,610.4227376298138
96,610.4605496667454
97,610.471239370364
98,610.4519134210404
99,610.4017311888821
100,610.3218026594261
101,610.2149775629659
102,610.0855580745949
103,609.9389746243564
104,609.7814690317559
105,609.6198153271081
106,609.4610774123103
107,609.3123701757148
108,609.180571812358
109,609.0719408968519
110,608.9916276348793
111,608.9431242217476
112,608.9277487178011
113,608.9442773351625
114,608.9888272367726
115,609.055057590961
116,609.134710849189
117,609.218459145829
118,609.2969557766908
119,609.3619388944164
120,609.4072169695244
121,609.4293838917764
122,609.4281476169867
123,609.4062030801563
124,609.3686489992114
125,609.3220404267947
126,609.2732584803377
127,609.228427774862
128,609.1920943734153
129,609.1667940325389
130,609.1530265405446
131,609.1495569684253
132,609.1539203532941
133,609.1630060721338
134,609.1736153511595
135,609.1829089089322
136,609.1886974122128
137,609.1895716861961
138,609.1849081996369
139,609.174809129496
140,609.1600384972851
141,609.1419887655542
142,609.122664219714
143,609.1046286396133
144,609.0908598004305
145,609.0844786467469
146,609.0883598218724
147,609.1046723581394
148,609.1344370696872
149,609.1772098453114
150,609.2309965708472
151,609.2924670024674
152,609.357462613704
153,609.4217061239946
154,609.4815505780596
155,609.5345864079598
156,609.5799696988508
157,609.6184213753073
158,609.6519306005491
159,609.6832515405948
160,609.7153177717344
161,609.750716226071
162,609.7913428725225
163,609.8382961079793
164,609.8919825776826
165,609.9523587420647
166,610.0192228321114
167,610.0924858927294
168,610.1723651220158
169,610.2594520815976
170,610.3546236776021
171,610.4587973463051
172,610.5725782808806
173,610.6958853473956
174,610.8276560232572
175,610.9657140196678
176,611.1068423509099
177,611.2470531352664
178,611.3819979986188
179,611.5074310575224
180,611.6196295333825
181,611.7156985211449
182,611.7937261784384
183,611.8527957577436
184,611.8928895936856
185,611.9147350235005
186,611.9196437706925
187,611.9093823302909
188,611.8860827976237
189,611.8521758094356
190,611.8103159962159
191,611.7632768614211
192,611.7138098530629
193,611.6644868528592
194,611.6175659664389
195,611.5749222946326
196,611.5380631044727
197,611.508210409253
198,611.4864023571988
199,611.4735565560038
200,611.4704594382591
201,611.4776828724699
202,611.495460125712
203,611.5235638881333
204,611.5612219832302
205,611.607095368108
206,611.6593374021566
207,611.7157475555289
208,611.7740159837008
209,611.8320283621214
210,611.8881750569935
211,611.941597734799
212,611.9923179455701
213,612.0412236893123
214,612.0899236060043
215,612.1404976702656
216,612.195183652814
217,612.25605138511
218,612.3247226634974
219,612.4021793153202
220,612.4886749800779
221,612.583746190191
222,612.6863041226667
223,612.7947710488835
224,612.9072170549347
225,613.0214731112195
226,613.1352381536384
227,613.2462237899653
228,613.3523618147935
229,613.4520461887578
230,613.5443320584419
231,613.629004539419
232,613.7064668974211
233,613.7774655342092
234,613.8427362007997
235,613.9026867989537
236,613.9572132822705
237,614.0056947624223
238,614.0471612186266
239,614.0805884641474
240,614.1052499265918
241,614.1210399653644
242,614.1286845501664
243,614.1297800463079
244,614.1266440013076
245,614.1220039480584
246,614.1185748027224
247,614.1185841818215
248,614.1233151509745
249,614.1327556640086
250,614.1454523624166
251,614.1586314261772
252,614.1685694664579
253,614.1711141963868
254,614.1622162813386
255,614.1383581552003
256,614.0968332098687
257,614.0359004685545
258,613.9548807174878
259,613.854254456246
260,613.7357764950724
261,613.6025623972547
262,613.4590626663772
263,613.3108466814207
264,613.1641704408366
265,613.0253738243146
266,612.9002092885576
267,612.7932265927192
268,612.7073278323903
269,612.6435666699788
270,612.6012014961879
271,612.5779473094224
272,612.5703380933251
273,612.5741253099699
274,612.5846776950527
275,612.5973731482029
276,612.6079675928294
277,612.6129077292127
278,612.6095533252791
279,612.5962967618955
280,612.5725946926129
281,612.5389366541052
282,612.4967649636121
283,612.448344902624
284,612.3965783674246
285,612.34475890129
286,612.2962746403069
287,612.2542733374543
288,612.2213116507181
289,612.1990247674097
290,612.1878720191252
291,612.187024856871
292,612.1944460762883
293,612.2071626249049
294,612.2216815321041
295,612.2344639949073
296,612.2423643572802
297,612.242955634469
298,612.2346961311612
299,612.2169323129694
300,612.1897681165609
301,612.1538529178323
302,612.1101475741297
303,612.0597198703429
304,612.0036009207744
305,611.9427101206892
306,611.8778337413216
307,611.8096262134115
308,611.7386031952556
309,611.6651181875243
310,611.5893487433706
311,611.5113395525229
312,611.4311386946621
313,611.349018141906
314,611.2657096598617
315,611.1825532148073
316,611.1014813937128
317,611.0248376048462
318,610.9550940095563
319,610.8945576243137
320,610.8451351669115
321,610.8081955692655
322,610.7845398662656
323,610.7744608963732
324,610.7778476246696
325,610.794272919366
326,610.8230166077531
327,610.8630149300532
328,610.9127682443889
329,610.9702592125242
330,611.0329317003365
331,611.0977646832029
332,611.1614502575675
333,611.2206544532035
334,611.272316773149
335,611.3139420947598
336,611.3438498332754
337,611.361350752985
338,611.36682082148
339,611.3616525490665
340,611.3480917534863
341,611.3289931815739
342,611.3075360189926
343,611.2869326423639
344,611.2701526391544
345,611.2596753986099
346,611.2572801159934
347,611.2638860646973
348,611.2794662893463
349,611.3030580685742
350,611.3328754787087
351,611.3665113581784
352,611.4012137733727
353,611.4342195893081
354,611.4631040341786
355,611.4860755455815
356,611.5021468749471
357,611.5111571458569
358,611.5136745092004
359,611.5108363508144
360,611.5041753569271
361,611.4954571261568
362,611.4865415470371
363,611.4792818232895
364,611.4754822725841
365,611.4769328487873
366,611.4855156136858
367,611.503343756158
368,611.532866945699
369,611.5768732183545
370,611.6383369220915
371,611.7200962472705
372,611.8243885449082
373,611.9523200909924
374,612.1033804824443
375,612.2751138048408
376,612.4630292835581
377,612.6607845873212
378,612.8606184103608
379,613.0539603606088
380,613.2321198408458
381,613.3869569057598
382,613.5114625332554
383,613.6002145271143
384,613.649714043788
385,613.6586275336301
386,613.6279502733041
387,613.5610802719746
388,613.4637638936007
389,613.3438609961001
390,613.2108854866
391,613.0753114054825
392,612.9476897417803
393,612.8376775901754
394,612.7531173908087
395,612.6993084915448
396,612.6785823768809
397,612.690230333155
398,612.7307581991316
399,612.7943887084201
400,612.8737171456401
401,612.9604429516763
402,613.0461226237175
403,613.1228962639364
404,613.1841317822343
405,613.2249234006351
406,613.2423870260848
407,613.2357160672084
408,613.2059949792451
409,613.1558086047551
410,613.0887228872101
411,613.0087358256009
412,612.9197988869504
413,612.8254835409487
414,612.7288171107926
415,612.6322561565929
416,612.5377356859244
417,612.4467409389681
418,612.3603707474566
419,612.2793691023749
420,612.2041029440193
421,612.1344860062786
422,612.0698856520038
423,612.0090661562292
424,611.9502034376075
425,611.8909790566164
426,611.8287502309139
427,611.7607912406612
428,611.6845976681623
429,611.5982411757826
430,611.5007554053343
431,611.3925068139009
432,611.2754635963823
433,611.1532593929987
434,611.030983767472
435,610.9147050653655
436,610.8108096559223
437,610.7252963711894
438,610.6631739469311
439,610.6280621371791
440,610.6220124969293
441,610.6454875181399
442,610.6974094004665
443,610.7752200285736
444,610.8749491801585
445,610.9913298209866
446,611.1180150720317
447,611.2479437883737
448,611.373867576841
449,611.4889943604628
450,611.587648322928
451,611.665827888441
452,611.7215730848111
453,611.7551042735168
454,611.7687271975806
455,611.766508203223
456,611.7537374128049
457,611.7362356266647
458,611.7196055600814
459,611.708549630351
460,611.7063615834203
461,611.7146581507899
462,611.7333735224996
463,611.7610080946395
464,611.7950945100125
465,611.8328045925042
466,611.8715789327829
467,611.9096445602814
468,611.9463150556702
469,611.9820325883456
470,612.0181813922185
471,612.0567483417125
472,612.0999195419348
473,612.1496912681995
474,612.207554204388
475,612.274290750952
476,612.349905078885
477,612.4336803925258
478,612.5243309613971
479,612.6201997008446
480,612.7194541628259
481,612.8202497852802
482,612.9208450647499
483,613.0196637702985
484,613.1153124076297
485,613.2065772547045
486,613.2924308795128
487,613.372069193391
488,613.4449876512188
489,613.5110932997804
490,613.5708349641342
491,613.6253226785551
492,613.6764063332427
493,613.7266862703108
494,613.7794283344792
495,613.8383610057234
496,613.9073532315458
497,613.9899999346084
498,614.0891608492026
499,614.2065070864872
500,614.342139443162
501,614.494349051724
502,614.659576723652
503,614.8325888609631
504,615.0068463773348
505,615.1750179025706
506,615.329576061187
507,615.4634064979924
508,615.570357968932
509,615.6456750685029
510,615.6862761005121
511,615.690855559112
512,615.6598062839037
513,615.5949840665974
514,615.4993746563398
515,615.3767413835486
516,615.2313124471827
517,615.0675325740057
518,614.8898858040789
519,614.7027901863654
520,614.5105506044916
521,614.3173391372303
522,614.1271722292886
523,613.9438654285896
524,613.7709524949706
525,613.6115599831961
526,613.4682480485669
527,613.3428595343883
528,613.2364324031201
529,613.149204738985
530,613.0806955116822
531,613.0298186046634
532,612.9950010603858
533,612.9743079960966
534,612.9655921414093
535,612.966675203975
536,612.9755464564082
537,612.9905466411811
538,613.0104994173498
539,613.0347633814642
540,613.0632051702574
541,613.0961247627754
542,613.1341746818928
543,613.1782907149432
544,613.2296097661877
545,613.2893312273202
546,613.3585018434886
547,613.4377502423748
548,613.5270353380723
549,613.6254851948928
550,613.7313836567329
551,613.8423178349777
552,613.955450590444
553,614.0678497213861
554,614.1767992020646
555,614.2800320111185
556,614.3758449216687
557,614.4630745063014
558,614.5409349012107
559,614.6087494067785
560,614.665645088822
561,614.7103025927577
562,614.7408445261262
563,614.7549077536139
564,614.7498985335603
565,614.7233905700557
566,614.6735956310046
567,614.5998159348688
568,614.5027881156836
569,614.3848536098196
570,614.249925356091
571,614.1032513763449
572,613.9510025579062
573,613.799739840491
574,613.6558405582488
575,613.5249736348123
576,613.4117001373623
577,613.3192378591004
578,613.2493791110992
579,613.2025202662539
580,613.177770057615
581,613.1731305660144
582,613.1857526658479
583,613.2122498802255
584,613.2490330679107
585,613.2926183264597
586,613.3398635892336
587,613.388106104198
588,613.4351993436065
589,613.4794682168049
590,613.519602469879
591,613.5545007102579
592,613.5830870801876
593,613.6041503749958
594,613.616266891735
595,613.6178370763156
596,613.6072129772637
597,613.5828627835899
598,613.5435271074722
599,613.4883495845623
600,613.4169884278988
601,613.3297305492786
602,613.2276321975625
603,613.1126823181239
604,612.9879264557849
605,612.857445547199
606,612.7261057907234
607,612.5990773643998
608,612.4812078973665
609,612.3763860835188
610,612.2870324337224
611,612.2138218033505
612,612.1556926432652
613,612.1101427753189
614,612.0737592659002
615,612.0428864664246
616,612.0143049327457
617,611.9857811204972
618,611.956369388874
619,611.9264150981563
620,611.8972969959907
621,611.8710082663418
622,611.849682872576
623,611.8351486691938
624,611.8285645450419
625,611.8301838848976
626,611.8392675404154
627,611.8541388549182
628,611.8723453288536
629,611.890886876461
630,611.9064872491061
631,611.9158959606938
632,611.9161942446489
633,611.9050544062604
634,611.8808955308732
635,611.8429005877867
636,611.7909022700244
637,611.7251924918461
638,611.6463408167392
639,611.5550971151494
640,611.4524053379356
641,611.3394998763641
642,611.2180245811719
643,611.0901143440256
644,610.9583994735464
645,610.8259190916025
646,610.6959491131319
647,610.5717581173819
648,610.4563055681375
649,610.3519013171559
650,610.2598587469305
651,610.180191651868
652,610.1114142657939
653,610.0504939035094
654,609.9929802814048
655,609.9333112630487
656,609.8652773900787
657,609.7826057608039
658,609.6795989739736
659,609.5517568301059
660,609.3963165409642
661,609.2126467427119
662,609.0024228088596
663,608.7695293963609
664,608.5196902950016
665,608.2598807447127
666,607.9976026989126
667,607.7401054282931
668,607.4936337622867
669,607.2627912209924
670,607.0501055598558
671,606.8558667874962
672,606.6782704522948
673,606.513854485867
674,606.35817865985
675,606.2066595108884
676,606.0554358046757
677,605.9021128126308
678,605.7462371112185
679,605.5893937384142
680,605.4348908238527
681,605.287091119113
682,605.1505341286068
683,605.0290317670781
684,604.9249094107503
685,604.8385230827538
686,604.7681241803243
687,604.710069376992
688,604.6593041830508
689,604.6100083335523
690,604.5562842023152
691,604.4927866387784
692,604.415227457333
693,604.3207325769826
694,604.2080675467172
695,604.0777582293977
696,603.9321118418225
697,603.7751081851086
698,603.6121159494522
699,603.4494179315711
700,603.293593969002
701,603.1508732045431
702,603.0265848483111
703,602.9247954987903
704,602.8481497982832
705,602.7978759842514
706,602.7739048388953
707,602.7750670455199
708,602.7993482789003
709,602.8441792233276
710,602.9067303175943
711,602.9841828249297
712,603.0739607594201
713,603.1739215764479
714,603.2825026742478
715,603.3988026834435
716,603.5225565951334
717,603.6539623693515
718,603.7933430378588
719,603.9406759044488
720,604.0950710689066
721,604.2543176984126
722,604.4146305494291
723,604.5707134194237
724,604.7161971120456
725,604.844410504243
726,604.9493406657108
727,605.0265797596031
728,605.0740692342429
729,605.092525861901
730,605.0855290414744
731,605.0593152240759
732,605.0223381085398
733,604.9846311851348
734,604.9569967499064
735,604.9500687999058
736,604.973340868495
737,605.0342792807987
738,605.1376406730462
739,605.2850860613125
740,605.475140280318
741,605.7034887167779
742,605.9635427931094
743,606.2471601097176
744,606.5453925911194
745,606.849162654811
746,607.1498195431221
747,607.4395774830128
748,607.7118611355036
749,607.9615788934103
750,608.1853276371775
751,608.3815225036486
752,608.550442976539
753,608.6941790548914
754,608.8164477094509
755,608.9222486650647
756,609.0173532558027
757,609.1076660645822
758,609.1985522541906
759,609.2942636973042
760,609.3975993005845
761,609.5098863363133
762,609.631284697379
763,609.7613311751278
764,609.8995878086205
765,610.0462407501047
766,610.2025024610809
767,610.3707024791886
768,610.5540199290604
769,610.7559052925055
770,610.9793295283166
771,611.2260486017561
772,611.4960553174568
773,611.7873151249318
774,612.0957908427112
775,612.4157002085918
776,612.7399340640798
777,613.0605701173145
778,613.3694232215269
779,613.6585749481305
780,613.920830724574
781,614.1500656650894
782,614.3414420721659
783,614.4915113748533
784,614.598241406319
785,614.6610265101874
786,614.6807418807712
787,614.6598916431623
788,614.6028598702884
789,614.5162026534052
790,614.4088456909582
791,614.2920196180588
792,614.1787993734849
793,614.0832063805898
794,614.0189521185868
795,613.9980065193158
796,614.0292282024358
797,614.117285658577
798,614.2620427797284
799,614.458496614568
800,614.6972595329482
801,614.9654996981928
802,615.2482130330455
803,615.5296897117387
804,615.7950321719054
805,616.0315623917697
806,616.2299400657957
807,616.3848401226667
808,616.4951205448031
809,616.5635120563222
810,616.5959367827579
811,616.6006029223478
812,616.587029929843
813,616.5651319607011
814,616.5444333917885
815,616.5334331702006
816,616.5391013602183
817,616.5664909826123
818,616.6184663373597
819,616.6955635762118
820,616.796003293171
821,616.9158734591219
822,617.049493370118
823,617.1899492388366
824,617.3297643027656
825,617.4616443082908
826,617.5792258557867
827,617.6777417447445
828,617.754505569986
829,617.809126153985
830,617.8434055209541
831,617.860944069951
832,617.8665476834096
833,617.8655711010603
834,617.8633162859925
835,617.8645448703494
836,617.8731057517241
837,617.8916601470695
838,617.9215042565371
839,617.9625130256181
840,618.013228027909
841,618.0710834427892
842,618.1327276408946
843,618.1943779437145
844,618.252150944854
845,618.3023384939188
846,618.3416397599161
847,618.3673849403275
848,618.377767977293
849,618.3720525176119
850,618.3506733208717
851,618.3151629458703
852,618.2678852558467
853,618.2116182198255
854,618.1490752289297
855,618.0824807717142
856,618.013310776527
857,617.9422577229694
858,617.8694007828526
859,617.7944901735233
860,617.717223923551
861,617.6374129231615
862,617.5549845734483
863,617.4698402963651
864,617.3816296335665
865,617.2895216974853
866,617.1920500446977
867,617.0870894733371
868,616.9719976235815
869,616.8439243010421
870,616.7002583902214
871,616.5391450318548
872,616.3599710938772
873,616.1637014468682
874,615.9529677011855
875,615.7318683311653
876,615.5055185573166
877,615.2794549871282
878,615.0590200761317
879,614.8488230253088
880,614.6523295401669
881,614.4716071331178
882,614.3072506529469
883,614.1585126644173
884,614.0236414427865
885,613.9003818609837
886,613.7865396136194
887,613.6804756608758
888,613.5814075296612
889,613.4894468412984
890,613.4053740360747
891,613.3302138216922
892,613.2647188427039
893,613.2088981507303
894,613.1617331093713
895,613.1211834153332
896,613.084492950015
897,613.0486948417151
898,613.0111485180232
899,612.969953334806
900,612.9241533730743
901,612.8737278024689
902,612.8194168155619
903,612.7624569864855
904,612.7042977790766
905,612.6463530453942
906,612.5898214788733
907,612.5355971719451
908,612.484280841663
909,612.4362835439531
910,612.3919886673522
911,612.351918621595
912,612.3168521844121
913,612.2878551708541
914,612.2662102293253
915,612.253255796245
916,612.2501701251124
917,612.2577580903223
