frame_number,force
0,736.7044700000407
1,736.5839148582231
2,736.463706534409
3,736.3438439520048
4,736.2237192126146
5,736.1020173929318
6,735.9768119070274
7,735.8458457911232
8,735.7069334238115
9,735.55837428774
10,735.3992650421284
11,735.2296294895915
12,735.0503384536961
13,734.862846958774
14,734.6688286024294
15,734.4698242150621
16,734.2670198007089
17,734.0612178587999
18,733.8529908689337
19,733.6429434716873
20,733.4319812274462
21,733.2214898634634
22,733.0133627890731
23,732.8098648940568
24,732.6133703083179
25,732.4260444976677
26,732.2495505151574
27,732.0848497614578
28,731.9321468519732
29,731.7909998405972
30,731.6605764759394
31,731.539985396352
32,731.4285770046239
33,731.3261270282261
34,731.2328784157526
35,731.1494775239504
36,731.0768643006984
37,731.016164512286
38,730.9686026942989
39,730.9354239416978
40,730.9177966108444
41,730.9166791794205
42,730.9326686588282
43,730.9658812410936
44,731.015922297457
45,731.0819703745441
46,731.1629391744726
47,731.2576296344215
48,731.36478215055
49,731.4829926642409
50,731.6105317094391
51,731.7451619884936
52,731.8840624313414
53,732.0239265391443
54,732.1612265500381
55,732.292567410493
56,732.415037194001
57,732.5264887278746
58,732.6257168980818
59,732.7125019876481
60,732.7874929748943
61,732.851935602961
62,732.9073018599381
63,732.954914912194
64,732.9956601028063
65,733.0298328842435
66,733.0571235498486
67,733.076700777603
68,733.0873454681375
69,733.0876036553929
70,733.0759557673017
71,733.0510136269805
72,733.0117435649636
73,732.9576866063463
74,732.8891292603821
75,732.8071837037375
76,732.7137607778808
77,732.6114528166775
78,732.5033692403299
79,732.3929681624775
80,732.2839048887097
81,732.1798996774952
82,732.0846279854887
83,732.001641116158
84,731.934313797567
85,731.8857918686083
86,731.8588965363773
87,731.8559437018616
88,731.8784640817169
89,731.926863438653
90,732.000119278935
91,732.095625653145
92,732.2092488618562
93,732.3355779684624
94,732.4683045755122
95,732.6006718476029
96,732.7259676287458
97,732.838055647285
98,732.9319155127896
99,733.0041102720012
100,733.0530692198062
101,733.0791042706721
102,733.0841580286868
103,733.0713586629109
104,733.0444897818405
105,733.0074692349295
106,732.9638958190128
107,732.9166995500909
108,732.8679262483975
109,732.818675743041
110,732.7691772751531
111,732.7189483351239
112,732.6669791639313
113,732.6119120728572
114,732.5522099490148
115,732.4863170926627
116,732.4128190004417
117,732.3306084792462
118,732.2390513998436
119,732.138118742318
120,732.0284369727308
121,731.9112273043276
122,731.7881513490369
123,731.661126560572
124,731.5321831648855
125,731.4033907090956
126,731.2768177730101
127,731.1544592214844
128,731.0380982661538
129,730.9291355971914
130,730.8284608716235
131,730.7364313068664
132,730.6529681338985
133,730.5777266889048
134,730.5102786161541
135,730.4502610426011
136,730.3974629821658
137,730.3518197771648
138,730.313292902311
139,730.2816458354738
140,730.2561830405865
141,730.2355702988941
142,730.2178603669621
143,730.2007857312235
144,730.1822758126835
145,730.1610709934585
146,730.1372858659956
147,730.1128097434841
148,730.091474784953
149,730.0789412158103
150,730.0822675729147
151,730.1091856908428
152,730.1671745146198
153,730.2624802646017
154,730.3992394267462
155,730.5788356299028
156,730.79958017751
157,731.0567588783258
158,731.3430356500353
159,731.6491439399657
160,731.96474220891
161,732.2792898313164
162,732.5828317543843
163,732.8666408612879
164,733.123712803312
165,733.3491143125132
166,733.5401644611212
167,733.6964167676717
168,733.8194352484098
169,733.9124051309559
170,733.9796520711591
171,734.0261457108394
172,734.0570482076823
173,734.0773534792629
174,734.0916470873674
175,734.1039894221626
176,734.1178889805414
177,734.1363063868707
178,734.1616277706128
179,734.1955654659586
180,734.2389725508509
181,734.2915883655119
182,734.3517656311926
183,734.4162645234445
184,734.4802187497627
185,734.5373564121239
186,734.5804870198139
187,734.602182031407
188,734.5955314985647
189,734.5548660398908
190,734.4763588726793
191,734.3584381540527
192,734.2019527370466
193,734.0100671709685
194,733.787914134003
195,733.5420756702489
196,733.2799735753148
197,733.0092307673148
198,732.7370462411877
199,732.4696240076574
200,732.2117079590791
201,731.9662800354816
202,731.7344602259396
203,731.5156078279706
204,731.3075848043067
205,731.1071214419003
206,730.9102298123729
207,730.7126387285718
208,730.5102567016296
209,730.299680364893
210,730.0787381188586
211,729.8470035065901
212,729.6061691430194
213,729.3601736710156
214,729.1150187103127
215,728.8782736611195
216,728.658322466767
217,728.4634510019006
218,728.3009067901928
219,728.1760800654702
220,728.0919433757986
221,728.0488391277154
222,728.0446344922868
223,728.0751944209462
224,728.1350744855246
225,728.2183136256397
226,728.3192065811805
227,728.4329474700892
228,728.5560606421102
229,728.6865710863116
230,728.8238984401338
231,728.9684796633336
232,729.1211579667123
233,729.282440008244
234,729.4517953046445
235,729.6271942025937
236,729.8050249457859
237,729.9804264403347
238,730.1479703810093
239,730.3025469116474
240,730.4402581329189
241,730.5591203507752
242,730.6594324218123
243,730.7437634774551
244,730.8166009893234
245,730.8837462311262
246,730.951555905206
247,731.0261324599549
248,731.1125710196707
249,731.2143688333657
250,731.3330846745191
251,731.4682954898929
252,731.6178361668194
253,731.7782430823615
254,731.9452851531031
255,732.1144773992074
256,732.2815158210411
257,732.4426100118028
258,732.5947020175183
259,732.7355628442967
260,732.8637714651741
261,732.978598687234
262,733.0798223902265
263,733.1674922389141
264,733.2416578126307
265,733.3020865275743
266,733.3480255861552
267,733.3780877030026
268,733.3903352114759
269,733.3825893948217
270,733.3529208365611
271,733.300213986755
272,733.2246694541057
273,733.1281210716048
274,733.0140906073538
275,732.8875568980864
276,732.754466367653
277,732.621061258052
278,732.4931427166932
279,732.3753967966568
280,732.2708848973143
281,732.1807545523258
282,732.1041852306439
283,732.0385508673493
284,731.979745625396
285,731.9225875318479
286,731.8612148539517
287,731.7894350569657
288,731.7010426994708
289,731.5901435290899
290,731.4514993230515
291,731.2808739360961
292,731.0753473036696
293,730.8335762974259
294,730.555999996939
295,730.2449870488764
296,729.90490135848
297,729.5420429322878
298,729.1644234378344
299,728.7813559214572
300,728.4028626895554
301,728.0389407389196
302,727.69877951009
303,727.3900751129411
304,727.1185784384711
305,726.8879396429691
306,726.6998169995437
307,726.5541600348579
308,726.4495668039137
309,726.3836320210537
310,726.3532300304339
311,726.3547105531852
312,726.3840197380066
313,726.4367801663177
314,726.5083619155702
315,726.5939623014749
316,726.688705832431
317,726.7877835790235
318,726.8866503038142
319,726.9812673279883
320,727.0683339994632
321,727.1454300448252
322,727.2110150361849
323,727.2642836286203
324,727.3049285851004
325,727.3329011971678
326,727.348269356104
327,727.3512450696292
328,727.3423889868698
329,727.3229309262073
330,727.2951086957887
331,727.2624307221469
332,727.2297917469499
333,727.2033957125744
334,727.1904647586609
335,727.1987471630111
336,727.2358794525451
337,727.3086912546178
338,727.4225465289574
339,727.5807922296663
340,727.7843569673933
341,728.0315266849112
342,728.3179201466527
343,728.6366841285601
344,728.9789220326103
345,729.3343538678915
346,729.6921695175666
347,730.0419855519466
348,730.3747752658437
349,730.6836343270563
350,730.9642676438289
351,731.2151258282713
352,731.4371811934499
353,731.6334083686443
354,731.8080974284754
355,731.9661481552728
356,732.1124658975931
357,732.2515215033388
358,732.3870784293302
359,732.5220518001195
360,732.6584541280447
361,732.7973900837285
362,732.9390731608906
363,733.0828491708065
364,733.2272315964764
365,733.36997519183
366,733.5082202138602
367,733.6387243939197
368,733.758172083027
369,733.8635239875651
370,733.9523597758595
371,734.0231751244932
372,734.0756145646557
373,734.1106316794553
374,734.1305576797895
375,734.139041296187
376,734.140822402436
377,734.1413247223368
378,734.1460832389334
379,734.1600501926284
380,734.186854836038
381,734.2281253855473
382,734.283001337094
383,734.3479511625253
384,734.4169566407677
385,734.4820475523281
386,734.5341046694972
387,734.5638191080202
388,734.5626955864151
389,734.5239954494525
390,734.4435229608868
391,734.3201672672802
392,734.1561271795357
393,733.9567755859414
394,733.7301720991328
395,733.4862936156893
396,733.2360954436028
397,732.9905275129556
398,732.7596195154372
399,732.5517259773472
400,732.3729901484132
401,732.2270492922542
402,732.1149736363824
403,732.0354116914598
404,731.9849027807091
405,731.9583124994639
406,731.9493511113176
407,731.9511433915733
408,731.9568187195407
409,731.9600784372142
410,731.9556828939072
411,731.9397963157197
412,731.9101437392171
413,731.8659719464346
414,731.8078530781313
415,731.7374048687133
416,731.6570107505448
417,731.5696046402207
418,731.4785450691295
419,731.3875530946478
420,731.3006481278961
421,731.2220064345285
422,731.1556959487438
423,731.1052946017778
424,731.0734500157606
425,731.061465649922
426,731.069001994884
427,731.093967195018
428,731.1326392334022
429,731.1800171500392
430,731.2303599290186
431,731.2778511533651
432,731.3173182999757
433,731.3449218517825
434,731.3587078917831
435,731.3589102906225
436,731.3479248504991
437,731.3299555507476
438,731.3104114281372
439,731.2951769939418
440,731.2898884450622
441,731.2993305682385
442,731.3270257018138
443,731.3750255073597
444,731.4438610627651
445,731.5325782500224
446,731.6387979318843
447,731.7587941571776
448,731.8876482604627
449,732.0195602587987
450,732.1483545154047
451,732.2681359186911
452,732.3739948407507
453,732.462648023595
454,732.5329164863276
455,732.5859569970191
456,732.6251822768728
457,732.6558384402131
458,732.6842604462106
459,732.7168951415274
460,732.7592551381697
461,732.8150134674092
462,732.8854292070358
463,732.9692027937688
464,733.0627423542335
465,733.1607366869167
466,733.2568975889725
467,733.3447352646665
468,733.4182415509117
469,733.4723755323215
470,733.5032881032181
471,733.5082862075091
472,733.4856039109239
473,733.434092896965
474,733.3529536951058
475,733.2415952330026
476,733.0996476526651
477,732.9270947324691
478,732.7244635772341
479,732.4930064399812
480,732.2348162843509
481,731.9528328400373
482,731.6507230677217
483,731.332647901914
484,731.0029450768051
485,730.6657720521338
486,730.3247692353652
487,729.9828101439614
488,729.6418870305513
489,729.3031382430247
490,728.9669724831823
491,728.6332102989717
492,728.3011722249835
493,727.9696998085926
494,727.6371608674064
495,727.3015124132887
496,726.9604640666751
497,726.6117364261572
498,726.2533759046598
499,725.8840747422184
500,725.5034450250297
501,725.1122058660028
502,724.7122601217667
503,724.3066546252073
504,723.8994333804277
505,723.495404949784
506,723.0998475436493
507,722.718169405304
508,722.3555413649948
509,722.0165302228052
510,721.7047768707123
511,721.4227702992948
512,721.1717645266755
513,720.9518679978443
514,720.7623010681709
515,720.6017737146578
516,720.4689005264657
517,720.3625569840325
518,720.2820907874811
519,720.227329598552
520,720.1983709774057
521,720.1952008374678
522,720.2172472122933
523,720.2630038668744
524,720.3298349486677
525,720.414017905767
526,720.51103255329
527,720.6160678710066
528,720.7246772083447
529,720.8334616590872
530,720.9406266208169
531,721.0462716439696
532,721.1523436190255
533,721.2622754112808
534,721.3804008422088
535,721.5112587834279
536,721.6588851700635
537,721.8261711358296
538,722.0143574291903
539,722.2227365593947
540,722.4486275137311
541,722.6876558802554
542,722.9343141092268
543,723.1827194762598
544,723.4274610410324
545,723.6644274144172
546,723.8915070791239
547,724.1090447185783
548,724.3199418263795
549,724.5293299404963
550,724.7438209948971
551,724.9704302272501
552,725.215342746762
553,725.4827341092365
554,725.7738517889412
555,726.0865184473187
556,726.4151330902525
557,726.7511426154925
558,727.083873739725
559,727.4015823251881
560,727.6925815189956
561,727.9463232553128
562,728.1543248552618
563,728.310863533431
564,728.413398557079
565,728.4627045102648
566,728.4627096065342
567,728.4200484873023
568,728.343368055371
569,728.2424570921279
570,728.127291779307
571,728.0070960275858
572,727.889514236463
573,727.7799908520896
574,727.6814382862012
575,727.5942385261385
576,727.5165674967818
577,727.444976801605
578,727.3751337078166
579,727.3026115783866
580,727.2236310162411
581,727.1356635116969
582,727.0378220309393
583,726.9309885554794
584,726.8176725974375
585,726.701643603978
586,726.5874147553915
587,726.4796665058325
588,726.3826866404993
589,726.299880241233
590,726.233384627775
591,726.1838211082688
592,726.1502199433888
593,726.130150209465
594,726.1200622808842
595,726.1158134041283
596,726.1133110216746
597,726.1091828695346
598,726.1013668057751
599,726.0895074649422
600,726.0750604961185
601,726.061053107565
602,726.0515379530298
603,726.0508794439318
604,726.0630682025712
605,726.0912303815467
606,726.1374071911836
607,726.2025838203571
608,726.2868828910047
609,726.3898142174581
610,726.5104872311292
611,726.6477310980152
612,726.8001083604003
613,726.9658397559106
614,727.1426854182246
615,727.3278513893734
616,727.5179929256029
617,727.7093519151102
618,727.8980093261561
619,728.0801905455363
620,728.2525500222886
621,728.4123705981884
622,728.5576299678946
623,728.6869169896852
624,728.799227666161
625,728.8937184788192
626,728.9695188578833
627,729.0256882129013
628,729.061344455346
629,729.0759137211857
630,729.0694003377623
631,729.0425828458253
632,728.9970908317199
633,728.9353655611333
634,728.8605285433904
635,728.7761797627369
636,728.6861361458499
637,728.5941135011708
638,728.5033611314752
639,728.4162795973674
640,728.3340782856261
641,728.2565440563905
642,728.1819861213197
643,728.1073968785873
644,728.0288292483881
645,727.9419466589242
646,727.842664718875
647,727.7277842644841
648,727.5955191767727
649,727.4458495068768
650,727.2806713614126
651,727.1037512621505
652,726.9205111055775
653,726.7376718381097
654,726.5627834795408
655,726.4036801358054
656,726.2679162549704
657,726.1622432440807
658,726.0921665578479
659,726.0616020479478
660,726.0726453545268
661,726.1254733912011
662,726.2183931037844
663,726.3480317226121
664,726.509639025603
665,726.697466596791
666,726.9051993099221
667,727.1264155470254
668,727.3550355193778
669,727.5857018671317
670,727.8140438121623
671,728.0368022088145
672,728.2518231721684
673,728.4579539393384
674,728.6548901252538
675,728.8430193129832
676,729.0232797956536
677,729.1970197985835
678,729.3658250304222
679,729.5312946186178
680,729.6947782678775
681,729.857115296703
682,730.0184230225061
683,730.1779770021434
684,730.3342223934361
685,730.4849465142676
686,730.627613851635
687,730.7598233824482
688,730.8798122613226
689,730.9869077661672
690,731.0818243485459
691,731.1667245339231
692,731.2450159490386
693,731.3209241231349
694,731.3989282450929
695,731.4831559290533
696,731.5768191186905
697,731.6817644334923
698,731.7982072836555
699,731.9246958437276
700,732.058304763367
701,732.1950152028409
702,732.3302151960208
703,732.4592452471255
704,732.5779088592444
705,732.682870530972
706,732.7718833613168
707,732.8438240807034
708,732.8985531855066
709,732.9366495510476
710,732.9590888716763
711,732.9669445026042
712,732.9611857312409
713,732.9426292957357
714,732.9120665282335
715,732.870546616903
716,732.8197529430101
717,732.7623700299126
718,732.7023141679223
719,732.6447118831103
720,732.5955703235705
721,732.5611763876285
722,732.5473476226094
723,732.5586981330052
724,732.5980607570569
725,732.6661440851232
726,732.7614410485136
727,732.8803673531935
728,733.0175873317118
729,733.1664737414848
730,733.3196497621899
731,733.4695761576781
732,733.6091618437813
733,733.7323787265855
734,733.8348503427246
735,733.9143663310655
736,733.9712582148558
737,734.0085611264202
738,734.0318901771323
739,734.0489914414691
740,734.0689875199449
741,734.1014082027457
742,734.1551458436576
743,734.2374781363606
744,734.353265365008
745,734.5043887348128
746,734.689475415819
747,734.9039470083682
748,735.1404064164475
749,735.3893312708649
750,735.6399850293002
751,735.8814184156269
752,736.1034318601862
753,736.2974002187349
754,736.4569038183545
755,736.5781423407971
756,736.6601230478857
757,736.7046223912985
758,736.7159292114426
759,736.7003869842939
760,736.665761935437
761,736.6204809881463
762,736.572810087747
763,736.5300671196442
764,736.4979683522205
765,736.4801849437092
766,736.4781427766911
767,736.4910560117727
768,736.5161624118385
769,736.5491243841612
770,736.5845561401122
771,736.6166282727589
772,736.6396937072446
773,736.6488739786466
774,736.6405385392516
775,736.6126108767892
776,736.5646554727034
777,736.4977369745709
778,736.4140855672457
779,736.3166390458894
780,736.2085529583501
781,736.0927689402114
782,735.9717101120038
783,735.8471415381206
784,735.7202014657059
785,735.5915769722136
786,735.4617712858335
787,735.3314008664394
788,735.2014691854893
789,735.0735760221339
790,734.9500237772696
791,734.8337803856705
792,734.7282674012868
793,734.6369750054781
794,734.5629606300964
795,734.508341563491
796,734.4739148402126
797,734.4590117974468
798,734.4616217209132
799,734.4787274972418
800,734.5067340342059
801,734.5418707238163
802,734.5805024966072
803,734.6193489407635
804,734.6556501168637
805,734.6873158076562
806,734.7130607172413
807,734.73249248008
808,734.7461136123344
809,734.7552205587947
810,734.7617015493471
811,734.7677333010957
812,734.7753721488599
813,734.7860551178848
814,734.8000774647601
815,734.8161729538773
816,734.8313542076567
817,734.8411450023048
818,734.8402498821897
819,734.8235790277222
820,734.7874225690457
821,734.730501800001
822,734.6546413130318
823,734.5648917795949
824,734.469057044648
825,734.3767131676609
826,734.2979212355764
827,734.2418942098292
828,734.2158550428237
829,734.224234388799
830,734.2682585424675
831,734.3459174315235
832,734.4522734738264
833,734.5800487108193
834,734.720404696652
835,734.863817251992
836,735.0009490807323
837,735.123432899127
838,735.2244937067406
839,735.2993601291444
840,735.3454380828908
841,735.3622419092084
842,735.3510997376158
843,735.3146765942237
844,735.2563914920925
845,735.1798325379061
846,735.0882820042985
847,734.9844433867278
848,734.8704126908283
849,734.7478614206198
850,734.6183234827515
851,734.4834446354959
852,734.3450873400454
853,734.2052664771866
854,734.0659698947065
855,733.928947593061
856,733.7955286650401
857,733.6664779377322
858,733.5418755263978
859,733.421009952753
860,733.3023053027597
861,733.1833244494527
862,733.0608810984977
863,732.9312606005454
864,732.790521643767
865,732.6348418436327
866,732.4608685810953
867,732.2660319546535
868,732.0487738688469
869,731.8086551195191
870,731.5463243042542
871,731.2633628039065
872,730.9620475363067
873,730.6450864477989
874,730.3153749542023
875,729.9758023121199
876,729.629122159071
877,729.2778972351881
878,728.9245246628035
879,728.5713381712131
880,728.2207701665685
881,727.8755397221923
882,727.5388143775446
883,727.214289103473
884,726.9061425988994
885,726.6188547819594
886,726.3568891031956
887,726.1242645049343
888,725.9240647571212
889,725.7579493036401
890,725.6257392290295
891,725.5251564864193
892,725.4517857046908
893,725.3993001928793
894,725.3599557555792
895,725.3253127753471
896,725.2870967970127
897,725.2380662264497
898,725.1727512122865
899,725.0879638111544
900,724.9830292836818
901,724.859728467865
902,724.721971445089
903,724.5752534714527
904,724.4259768133138
905,724.2807458106234
906,724.1457427679986
907,724.0262594606278
908,723.9264008126672
909,723.8489262136601
910,723.795181617234
911,723.7650983139445
912,723.7572624591791
913,723.7690733624914
914,723.7970068850201
915,723.8369823807697
916,723.8847941328887
917,723.936523701092
