frame_number,force
0,619.372620000063
1,619.3262271609741
2,619.2815203793141
3,619.2399743194765
4,619.2027248632676
5,619.1705670800673
6,619.1440627573171
7,619.1237034753817
8,619.1100709927031
9,619.1039552000001
10,619.1064077084952
11,619.1187168899329
12,619.1422983073084
13,619.1785109434419
14,619.2284286677261
15,619.2926122001409
16,619.3709370687749
17,619.4625270394541
18,619.5658097161447
19,619.6786628923317
20,619.79858500613
21,619.9228199100869
22,620.048394562815
23,620.1720736273687
24,620.2902763504168
25,620.3990217392355
26,620.4939638992946
27,620.570555950292
28,620.6243457372699
29,620.6513667887756
30,620.6485533782769
31,620.6140935341654
32,620.5476494464014
33,620.4504151920232
34,620.3250266093759
35,620.1753704632372
36,620.0063540844313
37,619.8236892923381
38,619.6337153330991
39,619.4432490116719
40,619.2594265695037
41,619.0894970555372
42,618.9405359010296
43,618.8190676249956
44,618.7306139293305
45,618.679210099154
46,618.6669546297124
47,618.6936690539302
48,618.7567374776125
49,618.8511708745407
50,618.969914460353
51,619.1043899026421
52,619.2452278436067
53,619.3831037165592
54,619.509559960635
55,619.6176937728908
56,619.7026146472383
57,619.7616287012073
58,619.7941715366803
59,619.8015561879125
60,619.786608346131
61,619.7532426377796
62,619.7060189685151
63,619.6497145892132
64,619.5889460389573
65,619.5278724511201
66,619.4700104738514
67,619.4181809715523
68,619.3745767615655
69,619.3409013643115
70,619.3185085394966
71,619.308484346488
72,619.3116477363192
73,619.3284795339242
74,619.3590060403557
75,619.4026665203498
76,619.4581962893299
77,619.5235545958678
78,619.5959093559519
79,619.6716757453767
80,619.7466184545079
81,619.8160561480897
82,619.8752075462343
83,619.9196694895662
84,619.9459453415172
85,619.9518983832753
86,619.9370215792488
87,619.9024820877519
88,619.8509754566464
89,619.7864676163219
90,619.7138905247539
91,619.6388046906235
92,619.5669983559283
93,619.5040032132783
94,619.4545644253117
95,619.4221593547688
96,619.4086719856593
97,619.4142931247369
98,619.4376544621472
99,619.4761505493616
100,619.5263785972361
101,619.584628599858
102,619.6473654561796
103,619.7116476585866
104,619.7754282042099
105,619.8376918365416
106,619.8984009679282
107,619.9582483911072
108,620.0182487388072
109,620.0792461469665
110,620.1414629551022
111,620.2042297469316
112,620.2659920728228
113,620.3246001299104
114,620.3778020139413
115,620.423809142205
116,620.4617862040697
117,620.4921370454251
118,620.5165136539133
119,620.5375534693113
120,620.55842196719
121,620.5822794517999
122,620.6117933545139
123,620.6487835728872
124,620.6940382240298
125,620.7472975101069
126,620.8073857967601
127,620.8724655246108
128,620.9403743638529
129,621.0089844861915
130,621.0765008060243
131,621.1416115066829
132,621.2034353217133
133,621.2612813344064
134,621.3143274977368
135,621.3613817796488
136,621.4008668701151
137,621.4310699901773
138,621.4505802159574
139,621.4587563327404
140,621.4560528193884
141,621.4440743373568
142,621.4253116984693
143,621.4026072498657
144,621.3784731835045
145,621.354423582949
146,621.33048024436
147,621.3049772003999
148,621.2747211408379
149,621.235479798267
150,621.1826965568532
151,621.1122866410387
152,621.0213620078919
153,620.9087572117522
154,620.7752783865113
155,620.623649806154
156,620.4581681400207
157,620.2840988087413
158,620.1068807055719
159,619.9312484433267
160,619.7604171475818
161,619.5954830777669
162,619.4351672950897
163,619.2759775836709
164,619.1127977917421
165,618.9398366771688
166,618.7517841850063
167,618.5449593820739
168,618.3182277242049
169,618.0735181140499
170,617.8158481935634
171,617.5528426116759
172,617.29380318452
173,617.0484636516113
174,616.8256192060638
175,616.6318441332073
176,616.4705019828822
177,616.3412241230385
178,616.2399807069768
179,616.1597763391333
180,616.0918725939442
181,616.0273090921554
182,615.9584198404049
183,615.8800548498853
184,615.7903017369856
185,615.6906080810056
186,615.5852977053526
187,615.4805561289116
188,615.383047474574
189,615.2984086347955
190,615.2299127408749
191,615.1775724188279
192,615.1378634637985
193,615.1041213382576
194,615.0675336244296
195,615.0185466677123
196,614.9484368108123
197,614.8507735953694
198,614.7225286681185
199,614.5646530518536
200,614.382037262474
201,614.1828662235995
202,613.977478011161
203,613.7769259412623
204,613.5915076155559
205,613.4295320149964
206,613.2965295655699
207,613.1949892298653
208,613.1245782741171
209,613.082709653498
210,613.0652882687771
211,613.0674797043829
212,613.0843784384386
213,613.1114913816203
214,613.1449984356251
215,613.18180742336
216,613.2194734275573
217,613.2560803260336
218,613.2901736704075
219,613.3207937393686
220,613.3476002286704
221,613.3710260372924
222,613.3923688506898
223,613.4137412757536
224,613.4378517680349
225,613.4676536365052
226,613.5059423982731
227,613.554986249778
228,613.6162482336678
229,613.6902188426882
230,613.776344769191
231,613.873032247359
232,613.9777236600758
233,614.0870708141308
234,614.1972276790044
235,614.3042519729682
236,614.4045610496082
237,614.4953623161678
238,614.5749844749574
239,614.6430665615688
240,614.7006007849682
241,614.7498539390973
242,614.7941955852338
243,614.8378393116888
244,614.8854794549861
245,614.9418100398516
246,615.0109499175464
247,615.0958422728717
248,615.1977233994198
249,615.3157600128699
250,615.4469386902695
251,615.5862572809195
252,615.7272208655442
253,615.8625894606993
254,615.9852705718075
255,616.0892136570683
256,616.1701574352534
257,616.2261040433701
258,616.257444013497
259,616.2667296978069
260,616.2581717761797
261,616.2369798902153
262,616.2086687137643
263,616.1784229333908
264,616.150582181184
265,616.1282719628524
266,616.1131676149896
267,616.105356556508
268,616.1032842475886
269,616.1038171144297
270,616.1024775150715
271,616.0938651508429
272,616.0722063287354
273,616.0319337329821
274,615.9682205454594
275,615.8774380846949
276,615.7575303311885
277,615.6082897910975
278,615.431495345117
279,615.2308630801784
280,615.0117846628189
281,614.7808758416608
282,614.5454001262445
283,614.3126471289692
284,614.0893328746421
285,613.8810655070624
286,613.6918993654101
287,613.5239957872342
288,613.3774217396236
289,613.2501276439733
290,613.1381294012796
291,613.035881951857
292,612.936805427687
293,612.8339253510593
294,612.7205888920491
295,612.5911905538397
296,612.4417992781384
297,612.2705717676297
298,612.0778851609674
299,611.8662007202623
300,611.6397333326427
301,611.4040195310633
302,611.1654542833854
303,610.9308334840352
304,610.7069175228246
305,610.5000218394824
306,610.3156377668626
307,610.1580927526403
308,610.0302695887285
309,609.933408352203
310,609.8670096003343
311,609.828849039287
312,609.8151059091236
313,609.8206024588188
314,609.8391536104597
315,609.8640298206709
316,609.8885295382469
317,609.9066318322158
318,609.9136609477848
319,609.9068611375665
320,609.8857692022964
321,609.8522938484338
322,609.8104699003655
323,609.7659390232345
324,609.7252755616016
325,609.6952829648789
326,609.6823359842035
327,609.6917878025773
328,609.7274449130731
329,609.7911362888048
330,609.8824355762181
331,609.9986021054883
332,610.134776891111
333,610.2844229284999
334,610.4399606353239
335,610.5935210074686
336,610.7377145910522
337,610.8663088540845
338,610.9747372512035
339,611.0604143941317
340,611.1228687005123
341,611.1637139701195
342,611.1864787503791
343,611.1963104216405
344,611.1995702976836
345,611.2033359463961
346,611.2148277338215
347,611.2407775864745
348,611.2867661419384
349,611.3565823292832
350,611.4517039835652
351,611.5710299774196
352,611.7109760615784
353,611.8659660138281
354,612.0292370662416
355,612.1937886660454
356,612.3532778544941
357,612.5027057252652
358,612.6388167453456
359,612.7602087877594
360,612.867205984682
361,612.9615753273235
362,613.0461727376913
363,613.1245891145672
364,613.200839952413
365,613.2791131417733
366,613.3635670210821
367,613.4581607782769
368,613.5665027908975
369,613.6917127153824
370,613.8362963030843
371,614.0020206750128
372,614.1897680345601
373,614.3993618867667
374,614.6293999116699
375,614.8771607252634
376,615.1386480016522
377,615.4087934350973
378,615.6817887526098
379,615.9514891623785
380,616.2118353981871
381,616.4572637452906
382,616.6830903677719
383,616.8858568178754
384,617.0636158930628
385,617.2161319944303
386,617.3449675109101
387,617.4534268528895
388,617.5463419807259
389,617.6297098546409
390,617.7102190013005
391,617.7947166384159
392,617.889673390701
393,618.0007063997115
394,618.1322163326904
395,618.2871689315622
396,618.467012840877
397,618.6716918666774
398,618.8997000400673
399,619.1481483557401
400,619.4128493036986
401,619.6884510708877
402,619.9686514728156
403,620.2465053142122
404,620.5148277378213
405,620.7666891847057
406,620.9959819218366
407,621.1980108622795
408,621.3700315821299
409,621.5116398167379
410,621.6249241796722
411,621.7143320885424
412,621.7862518474626
413,621.8483585445169
414,621.9088017576181
415,621.9753359612763
416,622.0545076804319
417,622.1510059167393
418,622.2672551747811
419,622.4032983581407
420,622.5569887471559
421,622.7244777135681
422,622.9009342535744
423,623.0813723542705
424,623.2614302789545
425,623.4379710641756
426,623.609440156991
427,623.7759832514896
428,623.9393688856094
429,624.1027711132259
430,624.2704523458706
431,624.4473619172641
432,624.638656239781
433,624.8491602735485
434,625.082814664018
435,625.3421740775481
436,625.6280313108665
437,625.939228447517
438,626.2726787041593
439,626.6235805353272
440,626.9857846326383
441,627.3522760579616
442,627.715735931311
443,628.0691355958778
444,628.4063001614717
445,628.7223725425903
446,629.0141167308648
447,629.2800185971654
448,629.5201754493773
449,629.7360087670246
450,629.9298747861657
451,630.104665477856
452,630.2634741201744
453,630.4093547439151
454,630.5451654173577
455,630.6734760207355
456,630.7965351281372
457,630.916300602937
458,631.03452610328
459,631.1528692110421
460,631.2729669521012
461,631.3964195980511
462,631.5246374048714
463,631.6585498898781
464,631.7982509293241
465,631.9427160982391
466,632.0897341213793
467,632.2361292767041
468,632.3782464830824
469,632.5125792753225
470,632.6363855189222
471,632.7481571643873
472,632.8478540662006
473,632.9368533972649
474,633.0176147785659
475,633.0931277889372
476,633.1662716156741
477,633.2392394898736
478,633.313147264367
479,633.38787255083
480,633.4620983722194
481,633.5335044396527
482,633.5990667063556
483,633.6554520869835
484,633.6994861583757
485,633.7286303787467
486,633.7413751770189
487,633.7374690214411
488,633.7179547774072
489,633.6850412266903
490,633.6418709670862
491,633.5922466065991
492,633.5403526528457
493,633.4904791845812
494,633.4467373406615
495,633.4127649055439
496,633.3914390325568
497,633.3846231820107
498,633.3929731625216
499,633.4158203553025
500,633.451144934713
501,633.4956519748047
502,633.5449672145797
503,633.5939658540782
504,633.6372253403382
505,633.6695518215665
506,633.6864857867249
507,633.6846724729421
508,633.6620084674257
509,633.6175432139074
510,633.5511923729878
511,633.4633745127251
512,633.3546938348852
513,633.2257590590337
514,633.077169109803
515,632.909639588266
516,632.724214989742
517,632.5225098038204
518,632.30692783979
519,632.0808130868699
520,631.8484933413225
521,631.615194508352
522,631.3868212657869
523,631.1696072991264
524,630.9696367374556
525,630.7922472864375
526,630.6413650754314
527,630.5188827390559
528,630.4242338703506
529,630.3543012450314
530,630.3037273335206
531,630.2656071645844
532,630.2324631981613
533,630.1973437612485
534,630.1548580464645
535,630.1019601664863
536,630.0383210076575
537,629.9661892832861
538,629.8897451599333
539,629.8140640893668
540,629.7438927101902
541,629.6824723507125
542,629.6306336986015
543,629.5863303370315
544,629.5446802722346
545,629.4984765124931
546,629.4390606258368
547,629.3574352641302
548,629.2454810756432
549,629.0971122078531
550,628.9091797525641
551,628.681959558669
552,628.4191492350137
553,628.1274149878496
554,627.8156230553031
555,627.4939269176232
556,627.172856087683
557,626.8624923757694
558,626.571762105144
559,626.3078458635282
560,626.0757202618692
561,625.8778775401996
562,625.7142757750776
563,625.5825323907137
564,625.478309455515
565,625.395794181313
566,625.3281796041026
567,625.2680953552525
568,625.2079955388808
569,625.140541244893
570,625.0590031517627
571,624.9576714166395
572,624.8322243542987
573,624.6799927409671
574,624.5000664550281
575,624.2932199159574
576,624.0616732199524
577,623.8087417410005
578,623.5384411623427
579,623.2551031322687
580,622.9630359558917
581,622.6662564964136
582,622.3683245004669
583,622.072309766383
584,621.7808997489453
585,621.4966105146833
586,621.2220162147502
587,620.9598931529214
588,620.7132014220871
589,620.484881422379
590,620.2774964350085
591,620.0928001480015
592,619.9313462396186
593,619.7922609897046
594,619.673251462065
595,619.5708433356386
596,619.4807779927604
597,619.3984731110716
598,619.3194598816336
599,619.239734893108
600,619.1559919814725
601,619.0657251133401
602,618.9672135146038
603,618.8594069836627
604,618.7417303453284
605,618.6138445776968
606,618.475439924361
607,618.3261604579209
608,618.1657388966506
609,617.9943536396033
610,617.81313000965
611,617.624631167083
612,617.4331590881088
613,617.2447273105661
614,617.0666527854253
615,616.9068048408941
616,616.7726198695146
617,616.6700366134997
618,616.6025281154629
619,616.570396908951
620,616.5704584516677
621,616.5961717741529
622,616.6382006487695
623,616.6853237727689
624,616.7255718536045
625,616.7474474730969
626,616.7410717309026
627,616.6991074217557
628,616.6173426000161
629,616.4948760794531
630,616.3339130504991
631,616.1392427945963
632,615.9175207988634
633,615.6764980062205
634,615.4243174467944
635,615.1689437499933
636,614.9177371658789
637,614.6771570417476
638,614.452580646903
639,614.2482371048523
640,614.0672655946008
641,613.911893475932
642,613.7836878820185
643,613.6837897768683
644,613.6130350273992
645,613.5719161693278
646,613.5604077765697
647,613.5777233101318
648,613.6220800142366
649,613.6905374383293
650,613.7789556699295
651,613.8820906651315
652,613.993815250358
653,614.1074415646219
654,614.2161208676273
655,614.3132885069921
656,614.3930956532056
657,614.4507445276431
658,614.4826533387588
659,614.4864318140624
660,614.4607198330281
661,614.404987584973
662,614.3193941172996
663,614.2047610528884
664,614.0626637614964
665,613.8955948789967
666,613.7071314561731
667,613.5020470018669
668,613.2863396633907
669,613.0671637730308
670,612.8526393282011
671,612.6514976076231
672,612.4725326338435
673,612.3238716200664
674,612.212136207419
675,612.1416199158502
676,612.1136332287334
677,612.1261494324564
678,612.1738282509544
679,612.2484263990925
680,612.3395492589843
681,612.4356665892956
682,612.5252993172851
683,612.5982637612614
684,612.6468254903295
685,612.6665872545582
686,612.6569450979276
687,612.6210057916426
688,612.5649539207657
689,612.4969630533623
690,612.4258350417807
691,612.3596044209714
692,612.3043530587332
693,612.2634405083015
694,612.2372664310582
695,612.2235563365705
696,612.2180373725805
697,612.215291164938
698,612.2095622811735
699,612.1953635495369
700,612.1678310123084
701,612.1228980568239
702,612.057422348544
703,611.9693752293201
704,611.858113750138
705,611.7246626555955
706,611.5718862305722
707,611.4044388689093
708,611.2284363166553
709,611.0508651872148
710,610.8788177893972
711,610.7186804712754
712,610.5754144330374
713,610.4520519041358
714,610.3494847704139
715,610.2665577927891
716,610.2004259732962
717,610.1471100246049
718,610.1021630004747
719,610.0613278517877
720,610.0210459807437
721,609.9787098743875
722,609.9326373810873
723,609.8818367643296
724,609.8256866967193
725,609.7636624119657
726,609.6952093552194
727,609.6198102413977
728,609.537223690472
729,609.4478172896248
730,609.3528943561194
731,609.2549172431972
732,609.157548445575
733,609.0654622206545
734,608.9839228043705
735,608.9181716041873
736,608.8727072146024
737,608.8505761184787
738,608.852810973108
739,608.8781397469879
740,608.9230308502528
741,608.9820546866346
742,609.048474763254
743,609.114960429065
744,609.1743229541642
745,609.2201856328908
746,609.2475031167256
747,609.2528661920569
748,609.2345772711443
749,609.1925420907884
750,609.1280602560007
751,609.0435892064886
752,608.9425148755722
753,608.8289242124137
754,608.7073664651699
755,608.5826075496719
756,608.459403785846
757,608.3423305054582
758,608.2356886019951
759,608.1434808330067
760,608.0694186133858
761,608.0169097205985
762,607.988988612638
763,607.9881693249333
764,608.0162190843238
765,608.073873188641
766,608.1605380699657
767,608.2740511233197
768,608.4105708332669
769,608.5646474132817
770,608.7294777375022
771,608.897306443683
772,609.059920190718
773,609.2091901577516
774,609.3376314845416
775,609.4389567178407
776,609.508601134859
777,609.5441886098926
778,609.5458873016394
779,609.5165854730818
780,609.4618162499735
781,609.3893870937393
782,609.3087202584313
783,609.2299660417093
784,609.1629996355844
785,609.1164530060788
786,609.0969465531454
787,609.1086432816253
788,609.1531619768766
789,609.2298051936976
790,609.3360140498586
791,609.4679448714834
792,609.621055955779
793,609.7905981954242
794,609.9719296646156
795,610.1606225721575
796,610.3523930924242
797,610.5429414010179
798,610.7278172418573
799,610.9024127852496
800,611.0621353923754
801,611.2027516512803
802,611.3208468295711
803,611.4143173969462
804,611.4828015647995
805,611.527957472267
806,611.5535239643563
807,611.5651247088725
808,611.569789407773
809,611.5751976868372
810,611.5887343947886
811,611.616542158079
812,611.6627866890813
813,611.729280908904
814,611.8154934088269
815,611.9188652789511
816,612.0353146002491
817,612.1598187879603
818,612.2870042513449
819,612.4117051511699
820,612.5294614875822
821,612.636922463918
822,612.7321222559438
823,612.8146077017524
824,612.885416273946
825,612.946918284283
826,613.0025388301842
827,613.0563656752208
828,613.1126526805797
829,613.1752622079517
830,613.2471367558577
831,613.3299087114898
832,613.4237223934778
833,613.5272723253051
834,613.6380026775083
835,613.7523967562046
836,613.8663023760776
837,613.9752580031401
838,614.0747915021053
839,614.1606695606923
840,614.2290928280744
841,614.2768502042419
842,614.3014510144327
843,614.3012479353441
844,614.2755551788678
845,614.2247573792721
846,614.1503971616505
847,614.0552281920685
848,613.9432243128533
849,613.8195376134593
850,613.6903924699945
851,613.5628889186322
852,613.4446817775383
853,613.3435202305463
854,613.2666752900119
855,613.22032491478
856,613.2089811183899
857,613.2350269155424
858,613.2984089369935
859,613.3965279541277
860,613.5243763207366
861,613.6749594090177
862,613.8399921846551
863,614.0107945504897
864,614.1792497202003
865,614.3386680165273
866,614.484420831876
867,614.6142542936674
868,614.7282413479224
869,614.8283921273616
870,614.9180169080124
871,615.0009922594954
872,615.081087198463
873,615.1614650014386
874,615.244412258052
875,615.3312808251003
876,615.4225790867649
877,615.5181357967646
878,615.6172845784346
879,615.7190519472487
880,615.8223443894018
881,615.9261187670797
882,616.0295100163844
883,616.1318987722099
884,616.232922649035
885,616.3324495349616
886,616.4305295608641
887,616.5273346172154
888,616.6230955976534
889,616.7180515719867
890,616.8124141779253
891,616.9063322503536
892,616.9998439580379
893,617.0928316571504
894,617.1850194364569
895,617.2760457990279
896,617.3656048965271
897,617.4536089690637
898,617.5403164798741
899,617.6264025446675
900,617.7129915635007
901,617.801688489725
902,617.8946230324672
903,617.9944781094525
904,618.1044381352579
905,618.2279880150409
906,618.3685315376581
907,618.528865818753
908,618.7106096324804
909,618.913704291163
910,619.1360836644895
911,619.37356750933
912,619.6199921787556
913,619.8675629959645
914,620.1073902751324
915,620.3301551013459
916,620.5268436983545
917,620.6894874293042
