frame_number,force
0,655.1247000000236
1,654.9557888131694
2,654.7928248141774
3,654.6415189219352
4,654.5071274655295
5,654.3942473443901
6,654.3066031159941
7,654.2468162025301
8,654.2161783107122
9,654.2144722317846
10,654.2398765030056
11,654.2889705982188
12,654.3568483523749
13,654.4373521499692
14,654.5234416673812
15,654.6076948218831
16,654.682907222597
17,654.742723345926
18,654.7822143974993
19,654.7983242265711
20,654.7901310254975
21,654.7589036165987
22,654.707953695282
23,654.642296468344
24,654.568138829474
25,654.4922272237073
26,654.4211099873257
27,654.3603920448575
28,654.3140719039066
29,654.2840520142831
30,654.2699081318124
31,654.2689804718398
32,654.2767953355142
33,654.2877559712814
34,654.2959883406339
35,654.2962018855528
36,654.284421170898
37,654.2584678948914
38,654.218134824335
39,654.1650797656511
40,654.1025410573801
41,654.0349997615413
42,653.9678744418421
43,653.9072563089571
44,653.8596296194554
45,653.8315139182736
46,653.828999178843
47,653.8571854064136
48,653.919572254202
49,654.0174793516604
50,654.1496062882903
51,654.3118402926015
52,654.4973833617056
53,654.6972124099663
54,654.9008195867892
55,655.0971178650236
56,655.2753631540286
57,655.4259595039911
58,655.5410681498881
59,655.6150005378063
60,655.6444164870262
61,655.6283687862568
62,655.5682412866763
63,655.4676223367666
64,655.3321381792706
65,655.169245253765
66,654.9879571405708
67,654.7984701633909
68,654.6116554620268
69,654.4384073772583
70,654.2888760991265
71,654.1716557651436
72,654.0930330151128
73,654.056412933224
74,654.0620200864112
75,654.1069214591341
76,654.1853532763859
77,654.2892842533806
78,654.4091278051136
79,654.5345162641579
80,654.6550628701656
81,654.7610637165901
82,654.8441254628384
83,654.8977268875186
84,654.9177178038249
85,654.902724497857
86,654.8543809775383
87,654.7772739071415
88,654.6785139650416
89,654.566935733023
90,654.4520414352013
91,654.342876752097
92,654.2470251351723
93,654.1698505367528
94,654.1140533251166
95,654.0795572175712
96,654.0637106052798
97,654.0617535252625
98,654.0674822093742
99,654.0740471513118
100,654.0748289361935
101,654.0643213392704
102,654.0389208643119
103,653.9975109709977
104,653.9417534943216
105,653.8760406757439
106,653.8070978806501
107,653.7432617551577
108,653.6935037942919
109,653.6663219046341
110,653.6686600161524
111,653.7050145522255
112,653.7768422101617
113,653.8823194486972
114,654.0164556553585
115,654.17154219386
116,654.3379083042569
117,654.5049256005236
118,654.662151362863
119,654.8004525536282
120,654.9129449856148
121,654.9956267404904
122,655.0476524466277
123,655.0712504753861
124,655.0713230309688
125,655.0548016828179
126,655.0298587063769
127,655.005082600801
128,654.9887043268682
129,654.9879237565971
130,655.008362699266
131,655.0536712888411
132,655.125319008414
133,655.2225896440142
134,655.3427693367165
135,655.4814802871745
136,655.6330883398317
137,655.7911182358741
138,655.9486432364066
139,656.0986524352629
140,656.2344190812028
141,656.3498917538136
142,656.4401105910107
143,656.5016233725078
144,656.5328556578156
145,656.534377063765
146,656.5089936819409
147,656.4615936519868
148,656.3987045323129
149,656.3277918793241
150,656.2564046347296
151,656.1913103317919
152,656.1377475264295
153,656.0988779120707
154,656.0754792685916
155,656.0658997388754
156,656.0662902688993
157,656.0711237240223
158,656.0739722591779
159,656.0684516263818
160,656.0491864400212
161,656.0126356484891
162,655.9576438526449
163,655.8856349486897
164,655.8004271222616
165,655.7077123163147
166,655.614293872686
167,655.527202168591
168,655.4528130989535
169,655.3960847476906
170,655.3599993552574
171,655.3452505740646
172,655.350171987558
173,655.3708844872882
174,655.4016410946464
175,655.4353471597589
176,655.4642246794294
177,655.4805765992404
178,655.477592398961
179,655.4501209014459
180,655.3953247709497
181,655.3131284582579
182,655.2063813481227
183,655.0806858028881
184,654.9438871389772
185,654.8052795589367
186,654.6746312715587
187,654.5611596845929
188,654.4725903983546
189,654.4144178931505
190,654.3894585129043
191,654.3977476160941
192,654.4367795003872
193,654.5020267390908
194,654.5876220454605
195,654.6870598047958
196,654.7937866643806
197,654.9015979573552
198,655.004822889843
199,655.0983429916427
200,655.1775256741064
201,655.2381607184799
202,655.2764663368308
203,655.289191551406
204,655.2737950617337
205,655.2286453705915
206,655.1531785082095
207,655.0479691367857
208,654.9147032170728
209,654.7560691568942
210,654.5756039678471
211,654.3775416170698
212,654.1667054928137
213,653.9484586031627
214,653.7286860815111
215,653.5137614731163
216,653.3104530001823
217,653.1257452978308
218,652.9665678908125
219,652.8394265512947
220,652.7499310271315
221,652.7022197362601
222,652.698321710803
223,652.7375625002161
224,652.8161664690286
225,652.9271895568062
226,653.0608444082046
227,653.2052027224908
228,653.3472089299802
229,653.4739041522855
230,653.5737164545837
231,653.6376273620795
232,653.6600126378504
233,653.639010574772
234,653.5763853320822
235,653.4769774754338
236,653.3479144112672
237,653.197761469757
238,653.0357380017882
239,652.8710415220372
240,652.7122679937265
241,652.5669167186776
242,652.4410067134297
243,652.3388599670906
244,652.263088880267
245,652.2147632357801
246,652.1936653967757
247,652.1985178106536
248,652.2271017727694
249,652.2762582784533
250,652.3418323785532
251,652.4186615067215
252,652.5007011429163
253,652.5813334660021
254,652.6538417445195
255,652.7119871024717
256,652.7506103532537
257,652.7661843272872
258,652.7572379263464
259,652.7245678222627
260,652.6711731768268
261,652.601898802113
262,652.5228353817585
263,652.4405840597404
264,652.3615301503703
265,652.2912658396612
266,652.2342471252501
267,652.1936902314089
268,652.171647365954
269,652.169174942418
270,652.1865178151651
271,652.2232628301356
272,652.2784424280092
273,652.3505845914138
274,652.4377146317507
275,652.5373226378186
276,652.6463183177892
277,652.7610064838611
278,652.8771343255386
279,652.9900721930312
280,653.0951677988021
281,653.1882535927016
282,653.2662193930607
283,653.3275272792098
284,653.3725523263998
285,653.4036618330417
286,653.424984587413
287,653.4418750001057
288,653.4601450695706
289,653.485201253257
290,653.521255103669
291,653.5707600281638
292,653.6341704647655
293,653.710049055528
294,653.795481863831
295,653.8867071390798
296,653.979825146451
297,654.0714497841552
298,654.1591936513427
299,654.2419292057816
300,654.3198135508519
301,654.3940959235938
302,654.4667580352653
303,654.5400747417483
304,654.6162053122083
305,654.6969027989803
306,654.7833619974048
307,654.8761595781472
308,654.9752172425029
309,655.0797400198447
310,655.1881147026959
311,655.2977799679344
312,655.4051101668684
313,655.505394297642
314,655.5930160443735
315,655.6619167673997
316,655.7063458142145
317,655.7218032253031
318,655.7060005112562
319,655.6596287043149
320,655.586736173051
321,655.4945853673304
322,655.3929662409053
323,655.2930589714691
324,655.2060259767931
325,655.1415620891111
326,655.1066415129234
327,655.1046683499549
328,655.1351653082576
329,655.1940350834548
330,655.2743238295054
331,655.367332538025
332,655.4638775805612
333,655.5554957233248
334,655.6354105103036
335,655.6991245848278
336,655.7445855545998
337,655.7719788332605
338,655.7832790368319
339,655.7816989469868
340,655.771126449535
341,655.7555864355323
342,655.7387396885333
343,655.7234373854736
344,655.7113767886789
345,655.7029281992754
346,655.6971959369054
347,655.6923250911867
348,655.6859917125697
349,655.6759559425212
350,655.6605454990865
351,655.6389723101044
352,655.6114407257339
353,655.5790529764492
354,655.5435515271796
355,655.5069662281235
356,655.4712533716001
357,655.4380155656195
358,655.4083752873728
359,655.3830395280363
360,655.3625321407014
361,655.3474965611202
362,655.338925400245
363,655.33819203657
364,655.3468365248893
365,655.3661517470584
366,655.3966853604012
367,655.4377978649143
368,655.4873955389834
369,655.5419063769012
370,655.5965121571227
371,655.6456058482664
372,655.6834135674488
373,655.7047006097229
374,655.7054684291394
375,655.6835454008112
376,655.638984115481
377,655.5742068033524
378,655.4938869231703
379,655.4046049112726
380,655.3143456865189
381,655.2319017523326
382,655.1662235899233
383,655.1257448045749
384,655.1177109638221
385,655.14754734722
386,655.2183035116296
387,655.3302161832635
388,655.4804438914919
389,655.6630369310963
390,655.8691908616403
391,656.0877874951756
392,656.3061803446625
393,656.5111538918347
394,656.6899749974771
395,656.8314464110454
396,656.9268612539462
397,656.9707539423265
398,656.9613619653969
399,656.9007514353683
400,656.7945975719539
401,656.6516383653928
402,656.4828434686613
403,656.3003709459803
404,656.1164224733682
405,655.9421437314654
406,655.786728946696
407,655.6568523410943
408,655.5564695705402
409,655.4869503169407
410,655.4474547860448
411,655.4354499143487
412,655.4472577170059
413,655.4785368762736
414,655.5246283734907
415,655.580743580228
416,655.6420224744796
417,655.7035247241106
418,655.7602282006718
419,655.807099535939
420,655.8392806748607
421,655.8524091541597
422,655.8430531653263
423,655.8091987083415
424,655.7506916257049
425,655.6695260977398
426,655.569889582163
427,655.4579218691022
428,655.3412078898037
429,655.2280739259329
430,655.1267813622889
431,655.04471657789
432,654.9876653560376
433,654.9592373868978
434,654.9604830230523
435,654.9897337970676
436,655.0426936428066
437,655.1127899046169
438,655.1917583897877
439,655.270401238881
440,655.3394367836131
441,655.3903618119193
442,655.4162600034547
443,655.4124983271919
444,655.3772481894144
445,655.3117618405732
446,655.2203457009983
447,655.1100095159368
448,654.9898226461908
449,654.870052622111
450,654.7611831727932
451,654.6729137133502
452,654.6132337095057
453,654.587643723727
454,654.5985717772132
455,654.645025431961
456,654.7225259322166
457,654.8233713980308
458,654.9372529449317
459,655.0521994997896
460,655.1557701027276
461,655.2363652463107
462,655.2844994882532
463,655.2938676062357
464,655.2620496661256
465,655.1907430530605
466,655.0854846702505
467,654.9549202081835
468,654.8097530887662
469,654.6615317853208
470,654.5214188099762
471,654.3990629196666
472,654.3016859296075
473,654.2334841593803
474,654.1954132352312
475,654.185370175842
476,654.198720519257
477,654.229059978286
478,654.2690672623975
479,654.3113084082066
480,654.3488940504511
481,654.3759516673332
482,654.3879238643948
483,654.3817248473779
484,654.355790129326
485,654.310050915846
486,654.2458542652045
487,654.1658362955203
488,654.0737462992538
489,653.9742123443692
490,653.8724314940761
491,653.7737725585047
492,653.683305719397
493,653.6053088271331
494,653.5428228097203
495,653.49732938647
496,653.4686077863798
497,653.4547964143534
498,653.452640341981
499,653.4578614046798
500,653.4655722657061
501,653.4706762246967
502,653.4682308804096
503,653.4537884302931
504,653.4237493292123
505,653.375762307214
506,653.3091612794864
507,653.2253689013421
508,653.1281567267367
509,653.023656850019
510,652.9200639866394
511,652.8270266173398
512,652.75477855612
513,652.7130988877648
514,652.7102106703726
515,652.7517412545516
516,652.8398723268197
517,652.9728055157049
518,653.1446516638819
519,653.3458085517759
520,653.5638235313357
521,653.7846564495518
522,653.994182195156
523,654.179721997063
524,654.3313852571478
525,654.4430437980282
526,654.5128378856998
527,654.5432026655935
528,654.5404704615834
529,654.5141287937671
530,654.4758080352077
531,654.4380692206386
532,654.4130848559458
533,654.4113451433209
534,654.4405442458508
535,654.5047779137961
536,654.6041238395609
537,654.7346164883586
538,654.8885944882988
539,655.0553870474845
540,655.2222996660266
541,655.3758445364509
542,655.5031272356244
543,655.5932509328652
544,655.6385583787438
545,655.6355334726804
546,655.5852350268739
547,655.4932122631503
548,655.3689275616986
549,655.2247727257021
550,655.0748091903669
551,654.933394031625
552,654.8138653849874
553,654.7274348917331
554,654.6823693537461
555,654.6834705399347
556,654.7318230644727
557,654.8247883341496
558,654.9562501102573
559,655.1171267098428
560,655.2961448997961
561,655.4808380876433
562,655.6587045388327
563,655.8184368658472
564,655.9510982617638
565,656.0510801545975
566,656.116662184659
567,656.1500405442196
568,656.1567999412415
569,656.1449419154203
570,656.1236820264816
571,656.1022426323182
572,656.0888051457504
573,656.0896954428968
574,656.1088099640285
575,656.1472727926346
576,656.2033320802603
577,656.2725209841185
578,656.3480961343075
579,656.4217259280285
580,656.4843545940768
581,656.5271384498159
582,656.5423433837196
583,656.5241021700423
584,656.4689515170148
585,656.3760971200785
586,656.2473896375768
587,656.0870378253356
588,655.9011309183837
589,655.6970733092589
590,655.483034298761
591,655.2674823231449
592,655.0588248149129
593,654.8651375881615
594,654.6939508602214
595,654.5520523704098
596,654.445262752833
597,654.3781427707031
598,654.3536229671892
599,654.3726020943694
600,654.4336073898139
601,654.5326114533731
602,654.6630636970617
603,654.8161568581244
604,654.9813241009508
605,655.1469303356351
606,655.3010817947891
607,655.4324628166092
608,655.5311322872985
609,655.5892439044417
610,655.6016595372857
611,655.5664046211608
612,655.4848967270964
613,655.3618857200022
614,655.2050772618865
615,655.0244592309411
616,654.8314025793368
617,654.6376509941008
618,654.4543252408885
619,654.2910401941155
620,654.1551923356204
621,654.0514557578341
622,653.9815243563373
623,653.9441331496097
624,653.9353699782638
625,653.9492535103772
626,653.9785119819961
627,654.0154607125219
628,654.0528593344995
629,654.0846396691333
630,654.1064297656492
631,654.1158476121016
632,654.1125827406687
633,654.0983107050625
634,654.0764863988991
635,654.0520394381857
636,654.0309662598042
637,654.0198042720597
638,654.0249919972459
639,654.0521559100356
640,654.1054076458811
641,654.1867674385653
642,654.295825370535
643,654.4297028161611
644,654.5833086312988
645,654.7498334922999
646,654.9214018180755
647,655.0897933826461
648,655.2471527346975
649,655.3866304949773
650,655.5029364493489
651,655.5927992077534
652,655.6553040136632
653,655.6920434343662
654,655.7070109043111
655,655.7062126391037
656,655.6970413696583
657,655.6875039738399
658,655.6854064849595
659,655.6975839424732
660,655.7292384389867
661,655.7834312102048
662,655.8607694787879
663,655.9593272786304
664,656.0748202257247
665,656.2010104113217
666,656.3302767758794
667,656.4542800022089
668,656.5646735962414
669,656.6538292198803
670,656.7155303812026
671,656.7455543875377
672,656.7420428353225
673,656.7055866867208
674,656.6390196330791
675,656.5469828323635
676,656.4353580817732
677,656.3106631141154
678,656.1794792628663
679,656.0479515182392
680,655.9213755547927
681,655.803874392642
682,655.6981662846816
683,655.6054283104694
684,655.5252657364588
685,655.4558038958506
686,655.3939187972146
687,655.3356075817001
688,655.2764742311776
689,655.2122823315373
690,655.139515840517
691,655.0558896253485
692,654.9607518461728
693,654.8553141810088
694,654.7426483619887
695,654.6274174763662
696,654.5153627872048
697,654.4126153540809
698,654.3249276722545
699,654.2569265793003
700,654.2114867163361
701,654.1893170697034
702,654.1888348079189
703,654.2063645451904
704,654.2366449363201
705,654.2735524419114
706,654.310890025136
707,654.3430796873263
708,654.3656559672957
709,654.3755397815976
710,654.3711244445847
711,654.3522164504557
712,654.3198623923399
713,654.2760811557922
714,654.223522200958
715,654.1650893671689
716,654.1035879316456
717,654.0414473547308
718,653.9805400766334
719,653.9220797714877
720,653.866568638202
721,653.8137845663292
722,653.7628387114922
723,653.7123548695756
724,653.6607981883923
725,653.6069229429996
726,653.5502509792216
727,653.4914610595764
728,653.4325771782029
729,653.3768919263496
730,653.3286352495293
731,653.2924709805956
732,653.27293949673
733,653.2739454342907
734,653.2983349007933
735,653.3475645165938
736,653.4214587878813
737,653.5180675918225
738,653.6336508314347
739,653.7628221243766
740,653.8988689049781
741,654.0342322456943
742,654.1610971762506
743,654.2720369786315
744,654.3606668576505
745,654.4222647060146
746,654.4542981984378
747,654.4567781497831
748,654.4323615520965
749,654.3861589039393
750,654.3252496883244
751,654.2579646140099
752,654.1930422407047
753,654.1387933069233
754,654.1023870437322
755,654.0893151859107
756,654.1030331944285
757,654.1447579068259
758,654.2134079241907
759,654.3056838136641
760,654.4162930163588
761,654.5383303251974
762,654.6638196476671
763,654.7843959654748
764,654.8920645342017
765,654.9799385490139
766,655.0428450208369
767,655.0777077963276
768,655.0836623815939
769,655.0619160906776
770,655.0154183872711
771,654.9484320984891
772,654.8660926448408
773,654.7740192440978
774,654.6780088431085
775,654.5838027018481
776,654.4968746190042
777,654.422172219523
778,654.3637690185723
779,654.3244438370297
780,654.3052593323489
781,654.3052377289376
782,654.3212291055974
783,654.3480415039032
784,654.3788542661694
785,654.4058794302645
786,654.4211960412799
787,654.4176678795416
788,654.3898484964823
789,654.3347626197263
790,654.2524395130533
791,654.1460856948005
792,654.0218348153602
793,653.8880910581361
794,653.7545606046663
795,653.6311162666767
796,653.5266533626555
797,653.4480764854159
798,653.3995221351247
799,653.3818885360673
800,653.3927179315123
801,653.4264506793859
802,653.475035649912
803,653.5288347796079
804,653.5777063016876
805,653.6121114721032
806,653.6240895165934
807,653.6079900064673
808,653.5609177684906
809,653.4829019055753
810,653.3768298569561
811,653.2481891134556
812,653.1046434253121
813,652.9554533881219
814,652.8107487567543
815,652.6806749325045
816,652.574460785758
817,652.4994833871532
818,652.4604341151928
819,652.4587090159048
820,652.4921375256598
821,652.5551221665544
822,652.6392007802879
823,652.7339799777476
824,652.8283328440282
825,652.9117111266456
826,652.9753982419288
827,653.0135268087297
828,653.0237064380221
829,653.0071631993134
830,652.9683811956725
831,652.9143352894018
832,652.8534765020236
833,652.7946524320266
834,652.7461128294111
835,652.7146910031894
836,652.7052040053584
837,652.7201004381657
838,652.7593891841029
839,652.8208702433883
840,652.9006435797583
841,652.9938119168386
842,653.0952516344852
843,653.2003206429807
844,653.3053988229912
845,653.4081985523258
846,653.5078270506109
847,653.6046256323457
848,653.6998500550587
849,653.7952801420925
850,653.8928466176342
851,653.994340153538
852,654.1012316143647
853,654.2145961736632
854,654.335111190307
855,654.463096476674
856,654.5985773943655
857,654.7413575740698
858,654.8910843332851
859,655.0472890102442
860,655.209392825381
861,655.3766777949105
862,655.5482269779234
863,655.7228480651668
864,655.8990150474315
865,656.0748762613772
866,656.248353122375
867,656.417295640466
868,656.5796175388178
869,656.7333455230672
870,656.8765692869466
871,657.0073270799089
872,657.123482592206
873,657.2226502908331
874,657.3022224775418
875,657.3595406194548
876,657.3922202832475
877,657.3985805194311
878,657.3780768470351
879,657.3316339540712
880,657.2618186882613
881,657.1728393421012
882,657.0703721648133
883,656.9612176821391
884,656.852807124744
885,656.7526140751894
886,656.6675559264797
887,656.6034707347236
888,656.5647193670808
889,656.5539104864147
890,656.5717180773725
891,656.6167789396219
892,656.6856966566329
893,656.7732005991653
894,656.8724969284431
895,656.9758064538254
896,657.0750259363992
897,657.162402255424
898,657.2311007912366
899,657.2755872867507
900,657.2918067277049
901,657.2772016327018
902,657.2306405736045
903,657.1523186226956
904,657.0436577934228
905,656.9072060724694
906,656.7465294615879
907,656.566099598915
908,656.3711717507824
909,656.1676275204987
910,655.961754974946
911,655.7599650417706
912,655.5684677213734
913,655.3929278267295
914,655.238099280481
915,655.1074364988935
916,655.0027170083385
