acceleration,velocity,displacement
0.0031328739286682946,0.0,0.0
0.002863988960914046,1.4992157223955852e-06,3.748039305988963e-10
0.002595041352056807,2.8639733006382983e-06,1.4656011863573672e-09
0.002325969322249932,4.094225969214983e-06,3.2051510038206874e-09
0.0020567127309364737,5.189896482511585e-06,5.526181616752329e-09
0.0017872137100042858,6.150878092746774e-06,8.361375260566919e-09
0.00151741712110817,6.977035800524888e-06,1.1643353733884834e-08
0.001247270835669786,7.668207789719377e-06,1.53046646314459e-08
0.0009767258589089636,8.224206963364064e-06,1.927776831971676e-08
0.0007057363333597771,8.644822511431249e-06,2.3495025688415587e-08
0.00043425946151692135,8.929821460150423e-06,2.7888686681311006e-08
0.0001622553824312252,9.07895017113746e-06,3.2390879589132974e-08
-0.00011031297359059608,9.091935773347617e-06,3.6933601075254245e-08
-0.00038348004133186567,8.968487519617002e-06,4.14487068984954e-08
-0.0006572777916691075,8.708298061366758e-06,4.586790329374134e-08
-0.0009317359362897824,8.311044629377036e-06,5.012273896642729e-08
-0.0012068821970946933,7.776390096030917e-06,5.414459764777928e-08
-0.0014827426704727771,7.1039838791390495e-06,5.786469114157177e-08
-0.0017593422993852194,6.29346263667455e-06,6.121405277052517e-08
-0.0020367054403573775,5.344450701738901e-06,6.412353110512853e-08
-0.0023148564901530936,4.256560219111283e-06,6.652378383534107e-08
-0.0025938205236271327,3.0293909656662265e-06,6.834527163153545e-08
-0.0028736238897220205,1.6625298623289381e-06,6.951825183853424e-08
-0.003154294716844741,1.5555021068724765e-07,6.997277185678828e-08
-0.0034358632896426093,-1.4919892909345899e-06,6.963866208672644e-08
-0.0037183622673941166,-3.2805456801937714e-06,6.844552834394436e-08
-0.004001826711943467,-5.2105929250281674e-06,6.632274369263888e-08
-0.004286293883970048,-7.282623074006546e-06,6.31994396928802e-08
-0.00457180276126785,-9.49714723531602e-06,5.900449711554956e-08
-0.0048583932366417,-1.1854696234793407e-05,5.36665362480222e-08
-0.005146104963370642,-1.4355820784796494e-05,4.711390699312473e-08
-0.005434975829590754,-1.700109098303684e-05,3.9274679051166395e-08
-0.005725040058566491,-1.979109495507615e-05,3.007663256663815e-08
-0.00601632594983891,-2.27264364571775e-05,1.9447249713574736e-08
-0.006308853297153837,-2.5807731268925688e-05,7.313707782048938e-09
-0.006602630542358005,-2.903560222880365e-05,-6.397125592383398e-09
-0.006897651744621998,-3.241067280054865e-05,-2.1758694349721473e-08
-0.0071938934509235926,-3.5933559099435046e-05,-3.88447523247174e-08
-0.007491311541746083,-3.960486034760247e-05,-5.7729357186476777e-08
-0.007789838104752734,-4.3425147759227175e-05,-7.848685921318419e-08
-0.008089378375627017,-4.739495187932211e-05,-1.0119188412282151e-07
-0.008389807786196987,-5.151474841977811e-05,-1.2591930919759657e-07
-0.008690969167497934,-5.578494265820184e-05,-1.5274423196709155e-07
-0.008992670157463425,-6.020585248944218e-05,-1.8174193075400258e-07
-0.009294680856662055,-6.477769024297356e-05,-2.129878164371065e-07
-0.009596731767979842,-6.950054339913403e-05,-2.465573748476334e-07
-0.009898512054709853,-7.437435435480646e-05,-2.8252609928611853e-07
-0.010199668157115,-7.939889940776268e-05,-3.209694127267608e-07
-0.0104998028141248,-8.457376715057263e-05,-3.6196257936634464e-07
-0.010798474535240488,-8.989833648791396e-05,-4.055806052759663e-07
-0.011095197552693009,-9.537175450989733e-05,-4.518981280254191e-07
-0.01138944225873602,-0.00010099291446275458,-5.00989295268582e-07
-0.011680636106831154,-0.00010676043405414637,-5.529276323978073e-07
-0.011968164933125006,-0.00011267263431413542,-6.077858994898778e-07
-0.012251374635238056,-0.00011872751920622618,-6.656359378699682e-07
-0.012529573131013473,-0.00012492275614778907,-7.265485067084721e-07
-0.012802032519323877,-0.0001312556575603734,-7.905931101355127e-07
-0.013067991384430318,-0.00013772316353631196,-8.57837815409684e-07
-0.013326657216337818,-0.000144321825686504,-9.28349062715388e-07
-0.01357720894433059,-0.00015104779222667108,-1.0021914671936817e-06
-0.013818799588858646,-0.00015789679435996838,-1.0794276138403415e-06
-0.014050559032003727,-0.00016486413401518399,-1.1601178459341295e-06
-0.014271596899170512,-0.00017194467299797754,-1.2443200476874198e-06
-0.014481005539679152,-0.00017913282360768995,-1.3320894218388366e-06
-0.014677863091320045,-0.00018642254076543975,-1.423478262932119e-06
-0.01486123661196658,-0.0001938073156912614,-1.5185357270462942e-06
-0.015030185261290801,-0.00020128017115957574,-1.6173075987590036e-06
-0.015183763521011083,-0.00020883365835515122,-1.7198360561376854e-06
-0.015321024455980494,-0.00021645985534939912,-1.826159434563823e-06
-0.015441023039864337,-0.00022415036722336034,-1.936311990207013e-06
-0.015542819591693373,-0.00023189632788124976,-2.050323663983165e-06
-0.015625483385582516,-0.00023968840362556873,-2.1682198468598698e-06
-0.015688096502993947,-0.00024751679859771284,-2.29002114741569e-06
-0.015729757998103285,-0.00025537126222298714,-2.415743162620865e-06
-0.015749588444163052,-0.00026324109883355375,-2.545396252885e-06
-0.01574673491980972,-0.00027111517967454694,-2.6789853225120255e-06
-0.015720376476883385,-0.00027898195752372023,-2.816509606811592e-06
-0.015669730107486825,-0.0002868294841698128,-2.9579624672349756e-06
-0.015594057198951771,-0.0002946454309964225,-3.1033311960265347e-06
-0.015492670432503478,-0.0003024171129042863,-3.252596832001712e-06
-0.015364941053112141,-0.0003101315157756902,-3.405733989171706e-06
-0.015210306425643257,-0.0003177753276453791,-3.5627107000269734e-06
-0.015028277797105666,-0.0003253349737010663,-3.7234882753635846e-06
-0.014818448195676858,-0.00033279665519926193,-3.8880211825886666e-06
-0.014580500401850167,-0.0003401463923486437,-4.056256944475643e-06
-0.014314214919706683,-0.0003473700711790329,-4.228136060357562e-06
-0.01401947785707729,-0.0003544534943732289,-4.403591951745628e-06
-0.013696288595521114,-0.0003613824359863785,-4.582550934335529e-06
-0.013344767100681838,-0.0003681426999104292,-4.764932218309731e-06
-0.012965160698000598,-0.00037472018186009983,-4.950647938752363e-06
-0.012557850123988317,-0.00038110093456559705,-5.139603217858787e-06
-0.012123354661159606,-0.00038727123576188404,-5.3316962604406576e-06
-0.011662336174976765,-0.00039321765847091816,-5.526818483998858e-06
-0.011175601892629228,-0.00039892714298781965,-5.724854684363543e-06
-0.010664105792321635,-0.00040438706990905736,-5.925683237587762e-06
-0.010128948501370845,-0.00040958533348248047,-6.129176338435647e-06
-0.00957137562706425,-0.00041451041451458925,-6.335200275434914e-06
-0.0089927744663432,-0.00041915145203794114,-6.543615742073047e-06
-0.008394669064815284,-0.00042349831292073074,-6.754278183312715e-06
-0.007778713628514548,-0.0004275416585940632,-6.967038176191414e-06
-0.007146684331939346,-0.0004312730080841767,-7.181741842860974e-06
-0.006500469604537351,-0.0004346847965682959,-7.398231294024093e-06
-0.005842059007677762,-0.00043777042872134963,-7.616345100346504e-06
-0.005173530835661442,-0.0004405243261821844,-7.835918789072388e-06
-0.00449703859247761,-0.0004429419685392192,-8.056785362752738e-06
-0.003814796513633107,-0.00044501992731574687,-8.27877583671648e-06
-0.0031290643196417592,-0.0004467558925240656,-8.501719791676433e-06
-0.0024421314066770308,-0.0004481486914556453,-8.72544593767136e-06
-0.001756300701746891,-0.00044919829948275125,-8.94978268540596e-06
-0.0010738724277798751,-0.0004499058427651329,-9.174558720967931e-06
-0.00039712802887192526,-0.00045027359287929585,-9.399603579879039e-06
0.00027168550444445477,-0.0004503049535104027,-9.624748216476464e-06
0.0009303706918259122,-0.0004500044394613351,-9.849825564719399e-06
0.0015767938128673992,-0.00044937764833516175,-1.0074671086668522e-05
0.00220889819079812,-0.00044843122533424535,-1.0299123305085874e-05
0.0028247163733300545,-0.00044717282169321333,-1.052302431684274e-05
0.003422381090918503,-0.0004456110473271512,-1.074622028409783e-05
0.004000134894223293,-0.00044375541833086577,-1.0968561900512334e-05
0.004556338403446241,-0.0004416163000064484,-1.1189904830096663e-05
0.005089477138362222,-0.00043920484612099624,-1.1410110116628524e-05
0.005598166933448589,-0.00043653293510304356,-1.1629044561934534e-05
0.006081157974276264,-0.00043361310387611237,-1.1846581071679324e-05
0.006537337516437388,-0.00043045848000343396,-1.206259896764921e-05
0.006965731363916504,-0.0004270827127833455,-1.2276984265845906e-05
0.007365504193134566,-0.0004234999038940827,-1.2489629920015263e-05
0.007735958817927808,-0.0004197245381413171,-1.2700436030524113e-05
0.008076534500436989,-0.00041577141481172593,-1.2909310018762374e-05
0.008386804416638853,-0.000411655580082457,-1.311616676748592e-05
0.008666472378247258,-0.0004073922608837354,-1.3320928727727469e-05
0.00891536889823122,-0.0004029968005646158,-1.3523525993089556e-05
0.009133446671132322,-0.00039848459667227496,-1.372389634239878e-05
0.009320775524928385,-0.00039387104112325976,-1.3921985251847663e-05
0.009477536890950163,-0.0003891714630192901,-1.41177458778833e-05
0.009604017836705244,-0.0003844010743373763,-1.4311139012222466e-05
0.009700604715565424,-0.0003795749186993086,-1.4502133010481638e-05
0.009767776502413082,-0.000374707823394814,-1.4690703696005168e-05
0.009806097892789637,-0.0003698143547960133,-1.4876834240552875e-05
0.009816212234643159,-0.0003649087772641551,-1.5060515023567918e-05
0.009798834338802997,-0.00036000501562079355,-1.5241743471789155e-05
0.009754743190422204,-0.00035511662123848724,-1.5420523881003975e-05
0.009684774570437394,-0.00035025674179827235,-1.5596867221763166e-05
0.009589813597469563,-0.00034543809475629563,-1.5770790930901807e-05
0.009470787213627893,-0.00034067294455352126,-1.594231869072926e-05
0.009328656655027943,-0.0003359730835863573,-1.611148019776423e-05
0.009164409961616573,-0.00033134981693219614,-1.627831092289387e-05
0.00897905458705788,-0.0003268139507950275,-1.6442851864825675e-05
0.008773610169896499,-0.00032237578460578894,-1.6605149298675878e-05
0.008549101528183329,-0.000318045106681269,-1.676525452149764e-05
0.008306551946440541,-0.000313831193312613,-1.6923223596496113e-05
0.008046976834979264,-0.00030974281111725805,-1.707911709760358e-05
0.0077713778493301005,-0.0003057882224461807,-1.723299985599444e-05
0.007480737555441289,-0.00030197519359498787,-1.7384940710004734e-05
0.007176014716570466,-0.00029831100552698495,-1.753501225978523e-05
0.006858140270455786,-0.0002948024667802284,-1.7683290627862034e-05
0.00652801406595898,-0.0002914559281961247,-1.7829855226606122e-05
0.006186502428520776,-0.00028827729907250475,-1.7974788533423278e-05
0.005834436610431745,-0.00028527206431276664,-1.8118175874269597e-05
0.005472612154341315,-0.00028244530212157335,-1.8260105215878183e-05
0.005101789165356917,-0.0002798017017916488,-1.840066696685649e-05
0.004722693454793674,-0.0002773455811366112,-1.8539953787588555e-05
0.004336018488399621,-0.00027508090315081285,-1.867806040866041e-05
0.003942428043812894,-0.0002730112915177597,-1.8815083457327555e-05
0.0035425594545825754,-0.00027114004464316087,-1.8951121291367783e-05
0.0031370272907263494,-0.00026947014795683364,-1.9086273839517783e-05
0.0027264273026163604,-0.000268004284308498,-1.9220642447584117e-05
0.002311340444017549,-0.0002667448423718395,-1.93543297292542e-05
0.001892336798294575,-0.0002656939230612615,-1.9487439420612475e-05
0.0014699792623885184,-0.0002648533440460907,-1.962007623738931e-05
0.0010448268917719915,-0.0002642246425075506,-1.975234573402772e-05
0.0006174378624402073,-0.00026380907631899756,-1.988435416373436e-05
0.00018837204787734046,-0.00026360762384141815,-2.001620833877446e-05
-0.00024180676793618454,-0.00026362098252143287,-2.0148015490365173e-05
-0.0006725290130065174,-0.0002638495664666685,-2.0279883127612197e-05
-0.0011032177556876052,-0.00026429350315884204,-2.0411918895018576e-05
-0.0015332874064367882,-0.00026495262944937315,-2.054423042817063e-05
-0.001962142656231577,-0.0002658264869650402,-2.067692520727423e-05
-0.0023891776147296063,-0.0002669143170327805,-2.0810110408273685e-05
-0.002813775117423449,-0.00026821505521581877,-2.0943892751335835e-05
-0.0032353061800639354,-0.0002697273255401906,-2.1078378346524836e-05
-0.0036531295849000496,-0.0002714494344814316,-2.1213672536530242e-05
-0.0040665915835606855,-0.0002733793647735468,-2.1349879736343986e-05
-0.00447502569649675,-0.00027551476909356117,-2.1487103269810763e-05
-0.0048777525838212795,-0.0002778529636636407,-2.1625445203000063e-05
-0.005274079964995724,-0.0002803909218008449,-2.1765006174366183e-05
-0.005663302581386766,-0.00028312526743744053,-2.1905885221675755e-05
-0.0060447022246105245,-0.00028605226863893983,-2.204817960569485e-05
-0.006417547883041788,-0.0002891678311658529,-2.2191984630646048e-05
-0.006781096074893862,-0.0002924674921553368,-2.2337393461476345e-05
-0.007134591432304178,-0.0002959464140321363,-2.2484496938023212e-05
-0.007477267582513522,-0.00029959937878584075,-2.2633383386227708e-05
-0.007808348353956344,-0.0003034207827699582,-2.2784138426616656e-05
-0.008127049327385255,-0.0003074046321902936,-2.293684478035672e-05
-0.008432579752858172,-0.00031154453946035445,-2.309158207326938e-05
-0.00872414485102478,-0.0003158337206113252,-2.3248426638287302e-05
-0.009000948507692693,-0.00032026499395100457,-2.3407451316927886e-05
-0.009262196364058973,-0.0003248307801689425,-2.3568725260457873e-05
-0.009507099310672519,-0.00032952310408762537,-2.3732313731522016e-05
-0.009734877404891635,-0.00033433359826651643,-2.3898277907110553e-05
-0.00994476423589172,-0.00033925350867671227,-2.406667468384636e-05
-0.010136011752302334,-0.0003442737026737608,-2.423755648668398e-05
-0.010307895547055529,-0.00034938467949860024,-2.441097108222707e-05
-0.010459720565322734,-0.0003545765835266948,-2.4586961397983394e-05
-0.010590827171624044,-0.0003598392204609315,-2.47655653489803e-05
-0.010700597492942372,-0.0003651620766270731,-2.4946815673252304e-05
-0.010788461952751323,-0.00037053434148849655,-2.5130739777781197e-05
-0.010853905919593447,-0.0003759449334565827,-2.5317359596517468e-05
-0.010896476399741102,-0.00038138252903641633,-2.5506691462140718e-05
-0.010915788697220822,-0.0003868355953106568,-2.5698745993227488e-05
-0.010911532947773422,-0.00039229242572190535,-2.589352799848563e-05
-0.010883480415579998,-0.0003977411790627437,-2.609103639968179e-05
-0.010831489430430503,-0.00040316992152424633,-2.6291264174828537e-05
-0.010755510838069337,-0.0004085666715913713,-2.6494198323107442e-05
-0.010655592837431926,-0.0004139194475102466,-2.6699819852882848e-05
-0.0105318850904329,-0.0004192163169922128,-2.6908103794008463e-05
-0.010384642014260186,-0.0004244454487683861,-2.7119019235448614e-05
-0.010214225193900613,-0.0004295951655704263,-2.7332529389033317e-05
-0.010021104875610348,-0.00043465399808780404,-2.7548591679947876e-05
-0.009805860521418061,-0.00043961073943706117,-2.7767157864329092e-05
-0.009569180424502182,-0.00044445449967354126,-2.798817417410674e-05
-0.009311860404963169,-0.0004491747598809076,-2.8211581488995353e-05
-0.009034801622820988,-0.00045376142538785364,-2.8437315535312545e-05
-0.008739007557398178,-0.0004582048776829084,-2.8665307111080237e-05
-0.00842558020370423,-0.00046249602462318404,-2.889548233665676e-05
-0.008095715523680318,-0.00046662634855503015,-2.9127762929951315e-05
-0.007750698170708669,-0.0004705879519786274,-2.9362066505084728e-05
-0.007391895494437263,-0.0004743736003949139,-2.9598306893178114e-05
-0.007020750837593842,-0.0004779767619779217,-2.9836394483771323e-05
-0.006638776150894155,-0.0004813916437250437,-3.0076236585197062e-05
-0.006247543963740179,-0.0004846132237537023,-3.031773780206675e-05
-0.0058486787530459845,-0.0004876372794328989,-3.05608004278634e-05
-0.005443847757155382,-0.0004904604110604492,-3.0805324850486735e-05
-0.00503475129289199,-0.000493080060822961,-3.105120996845759e-05
-0.004623112650129088,-0.0004954945268087163,-3.129835361536551e-05
-0.004210667654100512,-0.0004977029718847737,-3.1546652990038885e-05
-0.0037991539953518877,-0.0004997054272971367,-3.179600508983436e-05
-0.0033903004258639194,-0.0005015027909024407,-3.204630714438426e-05
-0.0029858159085549597,-0.0005030968199860454,-3.229745704710638e-05
-0.00258737879517554,-0.000504490118661978,-3.254935378176838e-05
-0.0021966261042146314,-0.0005056861198868256,-3.2801897841405586e-05
-0.0018151429754920832,-0.0005066890621567522,-3.305499163691648e-05
-0.0014444523820712908,-0.0005075039609961431,-3.330853989270471e-05
-0.0010860051749621675,-0.0005081365753854015,-3.3562450026800094e-05
-0.0007411705234555684,-0.000508593369310006,-3.3816632512973946e-05
-0.00041122680354535834,-0.0005088814686417562,-3.407100122246189e-05
-9.735298696977284e-05,-0.0005090086135893851,-3.4325473743019674e-05
0.00019937940793623106,-0.0005089831069841434,-3.4579971673163055e-05
0.0004780137358327636,-0.0005088137586982012,-3.483442088958364e-05
0.0007377149493874381,-0.0005085098265268961,-3.5088751785889916e-05
0.000977775572878352,-0.0005080809538963296,-3.5342899480995723e-05
0.0011976208733036654,-0.0005075371047847841,-3.5596803995666e-05
0.0013968131777120762,-0.0005068884962720301,-3.58504103959302e-05
0.0015750552821002664,-0.000506145529157077,-3.610366890228748e-05
0.0017321928950210356,-0.0005053187171127967,-3.635653496385495e-05
0.001868216059612601,-0.0005044186148741383,-3.6608969296851685e-05
0.0019832595000466016,-0.0005034557459842235,-3.686093788706628e-05
0.00207760184179754,-0.0005024405306487625,-3.7112411956224524e-05
0.002151663662216278,-0.000501383214272759,-3.7363367892454905e-05
0.0022060043460465735,-0.0005002937972706933,-3.761378714534077e-05
0.0022413177550914478,-0.0004991819667454088,-3.78636560863448e-05
0.0022584267669589846,-0.0004980570306148961,-3.811296583568488e-05
0.0022582767787348414,-0.0004969278547284727,-3.836171205702072e-05
0.002241928293210538,-0.0004958028034604863,-3.860989472156796e-05
0.0022105487077854215,-0.0004946896842102374,-3.8857517843485646e-05
0.002165403419890394,-0.0004935956961783184,-3.910458918858279e-05
0.002107846355019348,-0.000492527383734591,-3.935111995856101e-05
0.0020393100143706704,-0.0004914905946422435,-3.959712445315522e-05
0.0019612951266801725,-0.0004904904433569808,-3.984261971265503e-05
0.0018753599713958436,-0.0004895312795824618,-4.008762514338989e-05
0.0017831094160680348,-0.0004886166622355958,-4.033216212884441e-05
0.001686183683705792,-0.0004877493389606523,-4.057625362914347e-05
0.001586246848044832,-0.00048693123132771465,-4.0819923771715565e-05
0.0014849750575079942,-0.00048616342585132644,-4.106319743601033e-05
0.001384044510199024,-0.0004854461709593997,-4.130609983521301e-05
0.001285119228663423,-0.0004847788800246841,-4.1548656097959025e-05
0.001189838701064678,-0.00048416014054225207,-4.179089085310076e-05
0.001099805462029715,-0.0004835877295014785,-4.203282782061169e-05
0.0010165726916907662,-0.00048305863496304836,-4.227448941172782e-05
0.0009416319264761641,-0.00048256908380850665,-4.251589634142071e-05
0.0008764009996687784,-0.00048211457557697043,-4.275706725626708e-05
0.0008222123532821744,-0.0004816899222387327,-4.299801838072101e-05
0.0007803018775773147,-0.0004812892936810178,-4.3238763184700944e-05
0.0007517984412929364,-0.00048090626860130024,-4.3479312075271524e-05
0.0007377142771735792,-0.0004805338904216836,-4.371967211502727e-05
0.0007389363827465952,-0.0004801647277567036,-4.3959846769571863e-05
0.0007562190852445404,-0.0004797909388897058,-4.4199835686233465e-05
0.0007901779058177092,-0.00047940433964194023,-4.443963450586638e-05
0.0008412848427157643,-0.00047899647395480686,-4.467923470926556e-05
0.0009098651700758213,-0.00047855868645160896,-4.4918623499367166e-05
0.0009960958130990124,-0.0004780821962058153,-4.515778372003152e-05
0.001100005314842609,-0.0004775581709238299,-4.539669381181393e-05
0.0012214753655827495,-0.00047697780075372354,-4.563532780473332e-05
0.0013602438327182478,-0.0004763323709541483,-4.587365534766029e-05
