frame_number,force
0,598.8460100000765
1,599.2768244070121
2,599.6841379133422
3,600.0470145355326
4,600.3492277876067
5,600.5806721044729
6,600.7378948487546
7,600.823770290258
8,600.8464654368466
9,600.817920942924
10,600.7520998963107
11,600.6632641901839
12,600.5645191810798
13,600.4667990376851
14,600.3783499867192
15,600.3046530275782
16,600.2486628266212
17,600.211234682419
18,600.1916376419231
19,600.1880826835605
20,600.1982223162502
21,600.2195949935086
22,600.2499866166503
23,600.2876708696773
24,600.3314947718152
25,600.3808099271815
26,600.4352967630556
27,600.4947570155642
28,600.5589476003834
29,600.6275066800085
30,600.6999866058422
31,600.7759637045126
32,600.8551582552171
33,600.9374861333882
34,601.0229830733957
35,601.1115907776275
36,601.2028543853473
37,601.2956261985678
38,601.3878818369672
39,601.4767287489851
40,601.5586336159479
41,601.629835981171
42,601.6868726413813
43,601.7271200525154
44,601.749264340084
45,601.7536206900564
46,601.7422417602841
47,601.7187809489267
48,601.6881148528433
49,601.6557751609103
50,601.6272770210946
51,601.6074448398203
52,601.5998302818709
53,601.6063015790133
54,601.6268594624163
55,601.6596974547589
56,601.7014778903462
57,601.7477590297457
58,601.7934988012278
59,601.8335768319038
60,601.8633049567565
61,601.8789137328898
62,601.8779881558036
63,601.8597907435359
64,601.8253948108764
65,601.7775777282915
66,601.7204715564686
67,601.6590045363746
68,601.5981914753789
69,601.5423643105077
70,601.49447250005
71,601.455594715167
72,601.4247667123727
73,601.3991560493854
74,601.3745347610874
75,601.3459462548154
76,601.3084430772951
77,601.2577794377225
78,601.190962405688
79,601.106589842726
80,601.0049318548548
81,600.8877540735024
82,600.7579390793439
83,600.6190174078304
84,600.4747351989354
85,600.3287466396404
86,600.1844522380526
87,600.0449464856705
88,599.9130110870865
89,599.7910991776996
90,599.681294225638
91,599.5852676211526
92,599.5042750246251
93,599.4392185539022
94,599.3907670982785
95,599.359481486529
96,599.3458602365607
97,599.3502359631907
98,599.3725153518258
99,599.4118331242599
100,599.4662391898825
101,599.5325362996539
102,599.6063423356168
103,599.6823903480253
104,599.755016453375
105,599.8187308898293
106,599.8687390357038
107,599.9012986737372
108,599.9138682876442
109,599.905084188331
110,599.8746546211696
111,599.8232565806029
112,599.7524789128181
113,599.6647987819943
114,599.5635357591337
115,599.4527235740943
116,599.3368769388516
117,599.2206830172373
118,599.1086807522438
119,599.0049923335331
120,598.9131437547013
121,598.835970617238
122,598.7755764098754
123,598.7333124236941
124,598.7097728568428
125,598.7048179599811
126,598.7176327692989
127,598.7468067494734
128,598.790410087697
129,598.8460635710219
130,598.911030279353
131,598.9823597114433
132,599.0570795412123
133,599.1323895964756
134,599.2058016036225
135,599.2751914423139
136,599.3387694738116
137,599.3950065661044
138,599.4425668592595
139,599.4802957866166
140,599.5072978749611
141,599.523109173469
142,599.5279248759487
143,599.5228066438546
144,599.5097936969055
145,599.4918735734603
146,599.472801571776
147,599.4567775330777
148,599.448011667957
149,599.4502485748832
150,599.4663488047969
151,599.4980182666856
152,599.5457207902014
153,599.60873781291
154,599.6852971192775
155,599.7727044206954
156,599.8674591846974
157,599.9653784489286
158,600.0617666513266
159,600.151663371427
160,600.2301847460544
161,600.2929462020259
162,600.3365184846444
163,600.3588428164942
164,600.359526048625
165,600.3399554112642
166,600.3032128915746
167,600.2538163056962
168,600.1973428059869
169,600.1399891286053
170,600.0881030169743
171,600.0477032307238
172,600.0240064578
173,600.0209996993909
174,600.041120098749
175,600.0851043478809
176,600.1520335709652
177,600.2395434732323
178,600.3441285990316
179,600.4614690964046
180,600.5867437257822
181,600.7149331915621
182,600.8411318059564
183,600.9608658136383
184,601.0703836849476
185,601.1668664838828
186,601.2485197213059
187,601.314544144228
188,601.3650215951819
189,601.4007733062016
190,601.4232402570622
191,601.4344029321288
192,601.4367197628037
193,601.4330413096968
194,601.4264616281915
195,601.4200916875507
196,601.4167658430916
197,601.4187134720089
198,601.427244748916
199,601.4425121113782
200,601.4634125926721
201,601.4876799395563
202,601.5121751512194
203,601.5333395486728
204,601.5477487343246
205,601.5526923689224
206,601.5466841066795
207,601.5297865284584
208,601.5036528959043
209,601.4712615106326
210,601.4364218524357
211,601.403204701237
212,601.3754517452905
213,601.3564642120543
214,601.3488915185019
215,601.3547685509941
216,601.3756023765981
217,601.4124035313297
218,601.4655994425237
219,601.5348391356378
220,601.6187658386407
221,601.7148674658158
222,601.8194972499813
223,601.9280959452377
224,602.035580084032
225,602.1368253683073
226,602.2271734701383
227,602.3029021925829
228,602.3616115691899
229,602.402494996166
230,602.4264813341541
231,602.4362407197473
232,602.4360435212362
233,602.4314627205065
234,602.4289277256158
235,602.4351646147524
236,602.4565714044815
237,602.4985682662414
238,602.5649495710691
239,602.6572718092744
240,602.7743441965337
241,602.9119263123281
242,603.0627482867585
243,603.2169361486046
244,603.3628521926216
245,603.488267665732
246,603.5817023002654
247,603.6337217982023
248,603.6379936520208
249,603.5919536010433
250,603.4970068677443
251,603.3582612620836
252,603.1838571767624
253,602.9840227920594
254,602.7700287094935
255,602.5532145944304
256,602.3441963458228
257,602.1522691618775
258,601.9849605624199
259,601.8476875549725
260,601.7435101988259
261,601.6730099126988
262,601.6343327282121
263,601.6234228463245
264,601.6344416179024
265,601.660335913921
266,601.6934949423759
267,601.7264212123907
268,601.7523456948168
269,601.7657358960462
270,601.7626656481124
271,601.7410271133015
272,601.7005701666151
273,601.6427617172975
274,601.5704746985502
275,601.4875398652176
276,601.3982130441264
277,601.3066206315792
278,601.2162522084295
279,601.1295739026933
280,601.047824909472
281,600.9710193757445
282,600.8981244540552
283,600.8273565182448
284,600.7565415702587
285,600.6835023925631
286,600.606440019257
287,600.5242670824953
288,600.4368401016542
289,600.3450380972533
290,600.2506467531541
291,600.1560334720472
292,600.0636431345591
293,599.9753969764131
294,599.8921159426994
295,599.8131016497307
296,599.7359910511482
297,599.6569516110342
298,599.5712004462729
299,599.4737344564493
300,599.3600921522933
301,599.2269681972126
302,599.072571177635
303,598.8967166325494
304,598.7007253388356
305,598.4872181040295
306,598.2598733456937
307,598.0231773515505
308,597.7821781440405
309,597.5422564615802
310,597.3089298366373
311,597.087687937394
312,596.8838300378516
313,596.7022674674075
314,596.5472728839696
315,596.4221818977206
316,596.3290620367084
317,596.2683702648
318,596.238644074709
319,596.2363063918712
320,596.2556780729851
321,596.2892633239358
322,596.3283198028267
323,596.3636739648246
324,596.3866976381039
325,596.3903166271785
326,596.3698846967363
327,596.3237492901301
328,596.2533791674362
329,596.1630209711644
330,596.058971836226
331,595.9486475386713
332,595.839653735685
333,595.7390298993889
334,595.6527548876661
335,595.5855123640522
336,595.5406463499695
337,595.5202143520713
338,595.5250665463064
339,595.5549197204253
340,595.6084269961517
341,595.6832584146549
342,595.7762047513506
343,595.8833026680742
344,595.9999665905736
345,596.121115996264
346,596.2413053317048
347,596.3548829708092
348,596.4562120768661
349,596.5399731636983
350,596.6015361997505
351,596.6373528833127
352,596.6452999174985
353,596.6249149885285
354,596.5774994835817
355,596.5060889679821
356,596.415292255448
357,596.3109831409621
358,596.1998319716653
359,596.0887032435595
360,595.9839942833639
361,595.8910138618265
362,595.8134891272258
363,595.7532595197948
364,595.710185696565
365,595.6822746804545
366,595.66599301646
367,595.6567098735248
368,595.6491979783535
369,595.638131986165
370,595.6185491762831
371,595.5862525207743
372,595.5381326532045
373,595.472379960449
374,595.3885697602864
375,595.2876261145831
376,595.1716814659137
377,595.0438450252318
378,594.9078921960224
379,594.7679051703632
380,594.6279174347053
381,594.4916162964336
382,594.3621318398235
383,594.2419048670447
384,594.1325994795436
385,594.0350223310265
386,593.9490387440952
387,593.8735240585179
388,593.8064247854774
389,593.7450018399354
390,593.6862803098834
391,593.6276479132815
392,593.5674616520556
393,593.5054874187982
394,593.4430356875753
395,593.3827474747688
396,593.3280806286278
397,593.2826077669348
398,593.2492572484799
399,593.2296269510354
400,593.223489615058
401,593.2285786791265
402,593.2406900816202
403,593.2540773962048
404,593.262076045385
405,593.2578690798598
406,593.235295081332
407,593.1895956029074
408,593.1180061286292
409,593.0201144034977
410,592.8979469137478
411,592.7557931195312
412,592.5998222588817
413,592.4375730985769
414,592.2773957628629
415,592.1279007793493
416,591.9974353661701
417,591.8935770948062
418,591.822627430415
419,591.7891084226247
420,591.7953040357461
421,591.840922490632
422,591.9229638118476
423,592.0358409286775
424,592.1717362772708
425,592.3211253729579
426,592.4734033476526
427,592.6175974359197
428,592.7431823858489
429,592.8409930605688
430,592.9041575647576
431,592.9289037928731
432,592.9150712660472
433,592.8662084910726
434,592.7892332661124
435,592.6937283223622
436,592.5909953028482
437,592.4929969147342
438,592.4113078107631
439,592.3561846475438
440,592.3358497975216
441,592.3560542353122
442,592.4199422213992
443,592.528187792083
444,592.6793226152453
445,592.8701468695407
446,593.0961287201337
447,593.3517501080809
448,593.6308118332138
449,593.9267338377279
450,594.2328759503179
451,594.5428821009729
452,594.851031267748
453,595.1525614166939
454,595.4439181049316
455,595.7228740465598
456,595.9884793383093
457,596.2408368509891
458,596.4807434877508
459,596.7092764410448
460,596.9274185471436
461,597.1358063015429
462,597.334652993864
463,597.5238485194668
464,597.703175326105
465,597.872539583813
466,598.0321318823899
467,598.1824954400604
468,598.3245442965456
469,598.459593195072
470,598.5894259653476
471,598.7163704339564
472,598.8433066683444
473,598.9735356374753
474,599.1104784671048
475,599.257243535844
476,599.4161522191399
477,599.5883244939226
478,599.7734025331114
479,599.9694662288476
480,600.1731804241392
481,600.3801915167376
482,600.5857453030703
483,600.7854384806216
484,600.9759678895742
485,601.155721592804
486,601.3250734808247
487,601.486304045286
488,601.6431613384733
489,601.8001630488399
490,601.9617925014102
491,602.1317474599219
492,602.3123655715965
493,602.5042924839539
494,602.7064028489127
495,602.915946191657
496,603.1288714947486
497,603.3402835706019
498,603.5449943262712
499,603.7381388999695
500,603.9158154385652
501,604.0756759913718
502,604.2173611228817
503,604.34266150098
504,604.4553297174723
505,604.5605490680557
506,604.6641555134341
507,604.7717644082558
508,604.8879581293043
509,605.0156548403354
510,605.1557273549504
511,605.3068951933423
512,605.465878895123
513,605.6277813992068
514,605.7866437169467
515,605.9361087262421
516,606.0701190947756
517,606.1835780437153
518,606.2729151762959
519,606.336517622799
520,606.3750026571104
521,606.3913171440556
522,606.3906511378418
523,606.380154277806
524,606.3684528037267
525,606.3649844049521
526,606.3791952906973
527,606.4196769653014
528,606.4933518773552
529,606.6048244831773
530,606.7559793449176
531,606.9458506207067
532,607.1707439992986
533,607.4245683940471
534,607.699317915792
535,607.98563979009
536,608.2734383376783
537,608.5524837114829
538,608.8129985197307
539,609.0461885710484
540,609.2446803099419
541,609.4028371959113
542,609.5169523325793
543,609.5853437697905
544,609.6083888793121
545,609.5885153251554
546,609.5301384979921
547,609.4395228400502
548,609.324546073471
549,609.1943466145603
550,609.058835828624
551,608.9280740128344
552,608.8115479461411
553,608.7174298209427
554,608.6519179922146
555,608.6187553481599
556,608.619001988856
557,608.6511074261105
558,608.7112778475969
559,608.7940731371093
560,608.8931220258968
561,609.0018358313331
562,609.1140296148767
563,609.2243983120503
564,609.3288221393893
565,609.4244903048331
566,609.5098454966627
567,609.5843664300068
568,609.6482208152904
569,609.701843512991
570,609.7455252617211
571,609.7791140540896
572,609.8019088755999
573,609.8127678415432
574,609.8103900038786
575,609.7936896628577
576,609.762170269056
577,609.7162149980692
578,609.6572357121107
579,609.587655262483
580,609.5107340895476
581,609.4302846666875
582,609.3503354480309
583,609.2748005775062
584,609.2071892974085
585,609.1503666151792
586,609.1063662239799
587,609.0762571535175
588,609.060066247455
589,609.0567556601206
590,609.0642596613361
591,609.0796015350716
592,609.0991184578157
593,609.1187961679723
594,609.1346611315545
595,609.1431348732544
596,609.1412604168122
597,609.1267611206524
598,609.0979560068596
599,609.0536093698086
600,608.9928214037876
601,608.9150512350466
602,608.8202965310908
603,608.7093640546452
604,608.5841065805679
605,608.4475081870066
606,608.3035608911553
607,608.1569497901637
608,608.0126169467397
609,607.8752949693156
610,607.7490909845577
611,607.6371676545281
612,607.5415304322653
613,607.4629162078762
614,607.4007913344943
615,607.3534765464568
616,607.3183933661807
617,607.2923812696348
618,607.2720076121728
619,607.2538093759877
620,607.2344530095569
621,607.2108402039519
622,607.1802016062501
623,607.1402106100173
624,607.0891264248901
625,607.0259464056941
626,606.9505240617375
627,606.8636079002767
628,606.7667816065284
629,606.6623250026562
630,606.553044902008
631,606.4421239820572
632,606.3330023426068
633,606.2292628667597
634,606.1344639681796
635,606.0518663418193
636,605.9840388376539
637,605.9323941962581
638,605.8967688088682
639,605.8751845460308
640,605.8638966007622
641,605.8577509753031
642,605.8507828454395
643,605.8369240760858
644,605.8106814264648
645,605.7676902218932
646,605.7051075899732
647,605.6218479302746
648,605.5186671940155
649,605.3980897357851
650,605.2641698033914
651,605.1220975807827
652,604.9776862795321
653,604.8367983451678
654,604.7047755306958
655,604.5859298252176
656,604.4831436965029
657,604.3976275021408
658,604.3288772647337
659,604.2748503771678
660,604.232331141915
661,604.1974111845409
662,604.1659846656685
663,604.1341683015728
664,604.0985949273265
665,604.0565740162338
666,604.0061463940298
667,603.9460817656069
668,603.8758708382403
669,603.7957352480619
670,603.7066291670862
671,603.6101776545496
672,603.508512617965
673,603.404006260593
674,603.2989319781925
675,603.1951021028881
676,603.0935570957254
677,602.9944046404547
678,602.8968947419538
679,602.7997504032372
680,602.7016824646681
681,602.6019543062191
682,602.5008565041152
683,602.3999911218909
684,602.3023169629233
685,602.211948655765
686,602.1337331197658
687,602.0726547335447
688,602.0331498161416
689,602.0184368004471
690,602.0299764781107
691,602.0671568905416
692,602.1272565006062
693,602.2056928646206
694,602.2965215976695
695,602.3931122424208
696,602.48889491922
697,602.5780565630674
698,602.6560815957184
699,602.7200718745996
700,602.7688188517723
701,602.8026232222473
702,602.8228804094064
703,602.8314946704168
704,602.8302377851134
705,602.820194281376
706,602.8014150930617
707,602.7728449588975
708,602.7325197483456
709,602.6779764699928
710,602.6067972116153
711,602.5172074165563
712,602.4086462029248
713,602.2822189507559
714,602.14094873536
715,601.9897760822952
716,601.8353020360654
717,601.6853036827988
718,601.5480725784837
719,601.4316499595642
720,601.3430548147606
721,601.2876007057589
722,601.268370014802
723,601.2858804461889
724,601.3379580664027
725,601.4198267192195
726,601.5244226984155
727,601.6429268463608
728,601.7654675664161
729,601.8819082443199
730,601.9826217030889
731,602.0591836009422
732,602.1049664952698
733,602.1156488350474
734,602.0896428618929
735,602.0284021316056
736,601.9365269002027
737,601.8215738555407
738,601.6935095000139
739,601.5638184854832
740,601.4443623937126
741,601.3461465535948
742,601.2781733599915
743,601.2465414400172
744,601.2539028253631
745,601.2993292467601
746,601.3785764834563
747,601.4846824515905
748,601.6088003273879
749,601.7411614299982
750,601.8720776385196
751,601.9929009297547
752,602.096835605239
753,602.1794689244227
754,602.2389030901372
755,602.2754634902681
756,602.2910850573571
757,602.2885647599761
758,602.2708726661109
759,602.2406574758361
760,602.2000077383943
761,602.1504609391889
762,602.0931933175356
763,602.0292777178469
764,601.9598820094369
765,601.8863158841305
766,601.809912834323
767,601.7318164191819
768,601.6527793422858
769,601.5730667805078
770,601.492509226386
771,601.410708759327
772,601.327369876692
773,601.2426879644232
774,601.1576923524393
775,601.0744337498558
776,600.995939702348
777,600.9259234001097
778,600.8683006456195
779,600.8266255173239
780,600.8035711884382
781,600.8005489592496
782,600.8175024696745
783,600.8528729269761
784,600.9037149704958
785,600.9659355455857
786,601.0346179200591
787,601.1043864047728
788,601.1697765623368
789,601.225597260735
790,601.2672864721218
791,601.2912603902103
792,601.2952375446572
793,601.2784936445694
794,601.2419828608369
795,601.1882672348488
796,601.1212338621426
797,601.0456300325802
798,600.9664850128767
799,600.8885066641867
800,600.8155466438075
801,600.7502196487311
802,600.6937374145364
803,600.6459822733385
804,600.6058049836327
805,600.5714871720625
806,600.5412658148209
807,600.5137996202279
808,600.4884851415517
809,600.4655899431372
810,600.4462218608287
811,600.4321701519607
812,600.4256429272579
813,600.428917938871
814,600.443944611584
815,600.4719671459227
816,600.5132394277371
817,600.5668617997414
818,600.6307259885156
819,600.7015452560167
820,600.7749656614358
821,600.8457706376604
822,600.9081912398203
823,600.9563237192853
824,600.9846371205803
825,600.9885252925285
826,600.9648293023196
827,600.9122441630166
828,600.8315343684698
829,600.7255099651946
830,600.5987536839885
831,600.4571377147926
832,600.3072150209911
833,600.1555937595472
834,600.0083890931398
835,599.8708004572967
836,599.7468111961326
837,599.6389811657789
838,599.5483127456588
839,599.47420332022
840,599.4145260963386
841,599.3658831149726
842,599.3240414339834
843,599.2845077814474
844,599.2431482810762
845,599.1967483603274
846,599.1434390445477
847,599.0829634643853
848,599.0167879470813
849,598.9480634915274
850,598.8814306729538
851,598.8226575000115
852,598.778117247189
853,598.7541475291177
854,598.756368260052
855,598.789056362695
856,598.8546675132592
857,598.9535642662097
858,599.0839717635985
859,599.2421499322086
860,599.4227478258704
861,599.6192913567113
862,599.8247483633136
863,600.0321080928301
864,600.2349044983682
865,600.4276180449463
866,600.6059190083454
867,600.7667542894542
868,600.9083099736748
869,601.0298956448249
870,601.1317943072357
871,601.2151066370824
872,601.2815988862252
873,601.3335494962248
874,601.3735825745081
875,601.4044762657609
876,601.4289411824537
877,601.4493771279374
878,601.4676342171662
879,601.4848249529737
880,601.5012448739942
881,601.5164446200115
882,601.5294544567295
883,601.5391138212904
884,601.5444298559303
885,601.5448929102868
886,601.5407018508978
887,601.5328699551346
888,601.5231812727608
889,601.5139731157025
890,601.5077622099056
891,601.5067917830031
892,601.5126029721579
893,601.5257080747912
894,601.5453998187135
895,601.5697064916477
896,601.5954966057194
897,601.6187292687146
898,601.6348277511936
899,601.6391289916205
900,601.6273497816757
901,601.596026553682
902,601.5429147025483
903,601.4673430542005
904,601.3705017720623
905,601.2556161236205
906,601.1279422539042
907,600.9945265526836
908,600.8637059284771
909,600.7443849387114
910,600.6451785774306
911,600.5735292549818
912,600.534895340245
913,600.5320937208263
914,600.5648762494252
915,600.6298135931545
916,600.7205264203849
917,600.8282489951572
