frame_number,force
0,551.3528400000337
1,551.4104873131888
2,551.4654229222343
3,551.5149310822887
4,551.5562698198601
5,551.5866421339756
6,551.6031983715375
7,551.6031029413269
8,551.583670509944
9,551.5425526330449
10,551.4779496641538
11,551.3888288331384
12,551.2751373908675
13,551.1380037276009
14,550.979912702243
15,550.804820342687
16,550.6181514917631
17,550.4266288015305
18,550.237921973996
19,550.060155877127
20,549.9013392666943
21,549.7687686555247
22,549.6684501356334
23,549.6045801040649
24,549.5791266632656
25,549.5915532103938
26,549.6387269969199
27,549.7150508782095
28,549.8128363306797
29,549.9229022282209
30,550.035344491016
31,550.1403868885504
32,550.2292097335247
33,550.2946683219837
34,550.3318422016566
35,550.3383804253639
36,550.3146211303185
37,550.263471943013
38,550.1900493921236
39,550.101094740439
40,550.0042087005701
41,549.9069756561387
42,549.8160765651036
43,549.7365129576781
44,549.6710708262461
45,549.6201258532352
46,549.5818231169526
47,549.552576387381
48,549.5277646319652
49,549.5024852791042
50,549.4722541141066
51,549.4335908966154
52,549.3844622145824
53,549.3245604717561
54,549.2554025545402
55,549.1802503361761
56,549.1038779672433
57,549.0322209969919
58,548.9719353872925
59,548.92987719052
60,548.9125022607532
61,548.9252016606231
62,548.9716364499178
63,549.0531850177856
64,549.168626958061
65,549.3141477379849
66,549.4836802886772
67,549.6695363312679
68,549.8632408951277
69,550.0564648747212
70,550.241939336453
71,550.4142273799088
72,550.5702365457777
73,550.7093919089541
74,550.8334531077357
75,550.9460219357671
76,551.0518271080407
77,551.155888708275
78,551.2626718769825
79,551.3753457822373
80,551.495259948916
81,551.6217192831655
82,551.752081566805
83,551.8821410574268
84,552.0067275259115
85,552.1204476975435
86,552.218505964552
87,552.2975368874484
88,552.3563537203005
89,552.3964840397834
90,552.4223609801641
91,552.441088958217
92,552.4617940964079
93,552.4946622012425
94,552.5498252803619
95,552.6362724859216
96,552.7609420041966
97,552.9281040742399
98,553.13908059776
99,553.3922850743081
100,553.6835306127747
101,554.0065424215607
102,554.3536017659547
103,554.7162315025929
104,555.0858289038889
105,555.4541781869896
106,555.8138204477743
107,556.1582951456653
108,556.4822852260083
109,556.7817057779508
110,557.0537756277851
111,557.2970925858135
112,557.5116982811456
113,557.6990919673595
114,557.862154772899
115,558.0049688400321
116,558.1325362277644
117,558.2504093079251
118,558.3642478035299
119,558.479333140025
120,558.6000956811206
121,558.7297204062669
122,558.8698763977618
123,559.0205832223583
124,559.1802099000197
125,559.3456024918164
126,559.5123420098743
127,559.6751353582183
128,559.8283287183898
129,559.9665046503336
130,560.085098892177
131,560.1809611928098
132,560.2527748830263
133,560.301243337507
134,560.3289816996469
135,560.3401368034134
136,560.3398518646002
137,560.3337231158985
138,560.3273429785061
139,560.3259432722854
140,560.3341111576009
141,560.3555633681666
142,560.3929921866498
143,560.4480036401836
144,560.521149457594
145,560.6120221141439
146,560.7193537783396
147,560.841057276199
148,560.9741881452445
149,561.1148783576335
150,561.2583471873861
151,561.3990910701111
152,561.5312898344168
153,561.6493765174756
154,561.7486538456709
155,561.8258363254786
156,561.87943708711
157,561.9099590403104
158,561.9198742350408
159,561.9134014377856
160,561.8961273154273
161,561.8745411379825
162,561.8555463516519
163,561.8459795462038
164,561.8521364440587
165,561.8793039416685
166,561.9313263387468
167,562.0102619131181
168,562.1161874686235
169,562.2471857794447
170,562.3995183285017
171,562.567956268193
172,562.7462291938954
173,562.9275553965281
174,563.1052197852816
175,563.2731503742319
176,563.4264197063434
177,563.561588702995
178,563.6768361049157
179,563.7718735262011
180,563.847707573301
181,563.9063462527682
182,563.9505436941317
183,563.9836390888178
184,564.0094872395553
185,564.0324237579458
186,564.057183465434
187,564.0887041530727
188,564.1317871143713
189,564.1906344044637
190,564.2683304242513
191,564.3663709399302
192,564.4843489952013
193,564.6198748210406
194,564.7687496228431
195,564.9253612130188
196,565.0832417538074
197,565.2357162654382
198,565.3765575215918
199,565.5005499389946
200,565.6038737878039
201,565.6842662328639
202,565.7409831675612
203,565.7746412036516
204,565.7870358090516
205,565.7810044322634
206,565.7603440406398
207,565.7297275305131
208,565.6945310144039
209,565.6605054353884
210,565.633286481693
211,565.6178065176612
212,565.6177274259813
213,565.6350327199741
214,565.6698874217317
215,565.7208022960328
216,565.7850521285857
217,565.8592322802191
218,565.9398190791346
219,566.0236214146271
220,566.1080503880866
221,566.1911831021637
222,566.2716542074613
223,566.348453319107
224,566.420712099331
225,566.4875377158806
226,566.5479190908686
227,566.6007133900168
228,566.6447069404437
229,566.6787345820494
230,566.7018369346667
231,566.7134304742979
232,566.7134540464136
233,566.7024472747704
234,566.6815277579002
235,566.6522632133665
236,566.616463816743
237,566.5759387319879
238,566.532269982938
239,566.4866513874204
240,566.4398154134898
241,566.3920422244277
242,566.3432352556569
243,566.2930531943781
244,566.241087943924
245,566.1870663127979
246,566.1310427192188
247,566.0735498250664
248,566.0156804016909
249,565.9590825058201
250,565.9058622749346
251,565.8584074092346
252,565.8191680733762
253,565.7904483946484
254,565.7742544374553
255,565.7722139430731
256,565.7855542627136
257,565.8151186299347
258,565.8614050355727
259,565.924603296499
260,566.0045944130605
261,566.1008938888914
262,566.212566707475
263,566.3381757770964
264,566.4758164536349
265,566.6232436249123
266,566.7780459481444
267,566.9377973394147
268,567.1001329198315
269,567.2627392364799
270,567.423286898416
271,567.5793526567543
272,567.7283797153716
273,567.8677131265927
274,567.9947236423492
275,568.1070061283403
276,568.2026166626081
277,568.2802980100533
278,568.3396368130792
279,568.3811069840842
280,568.4059896592571
281,568.4162027880593
282,568.4140949718751
283,568.4022566594714
284,568.3833918429157
285,568.3602743939441
286,568.335780615042
287,568.3129566141517
288,568.2950615785564
289,568.2855294640525
290,568.2878120380226
291,568.3051036101498
292,568.3399912885365
293,568.3941090603382
294,568.4678860259609
295,568.5604585553145
296,568.669764553849
297,568.7927781086113
298,568.9258086989296
299,569.0647993605859
300,569.2055984063883
301,569.3442148713356
302,569.4770725863739
303,569.6012535721253
304,569.7146934621386
305,569.8162838666267
306,569.9058525035324
307,569.9840186960627
308,570.0519461270882
309,570.1110334753092
310,570.1626002368599
311,570.2076329211122
312,570.2466375623624
313,570.27959744816
314,570.3059928096208
315,570.3248343175741
316,570.334688519002
317,570.3337008292594
318,570.3196365209961
319,570.2899679726345
320,570.2420360979429
321,570.173295253662
322,570.0816198716265
323,569.9656301616017
324,569.8249918074763
325,569.6606481658163
326,569.4749475704418
327,569.2716410993202
328,569.0557477091613
329,568.8333035650916
330,568.6110261265329
331,568.3959307047505
332,568.1949327045427
333,568.0144526275678
334,567.8600253405392
335,567.7359118578916
336,567.6447229203604
337,567.5870864880268
338,567.5614211502058
339,567.5638985840595
340,567.5886657281123
341,567.6283423731282
342,567.674735922145
343,567.7196593222012
344,567.7557225923462
345,567.7769916546404
346,567.7794521603493
347,567.7612553225017
348,567.722741805742
349,567.6662455101502
350,567.5956911672812
351,567.5160288926255
352,567.4325862893812
353,567.3504405370552
354,567.2739019681335
355,567.2061656662856
356,567.1491518211736
357,567.1035300145012
358,567.0689024452782
359,567.0441021724513
360,567.0275469521981
361,567.017576624792
362,567.012693151124
363,567.0116358926251
364,567.013280796106
365,567.0164288468162
366,567.019588437331
367,567.0208332844962
368,567.0177700773752
369,567.0076213506472
370,566.9874186173298
371,566.954288198939
372,566.9057935085465
373,566.8402832473125
374,566.757193159928
375,566.6572578861661
376,566.5426012084
377,566.4166844389033
378,566.2841083951593
379,566.150284962536
380,566.0210080216328
381,565.9019503292142
382,565.7981045469993
383,565.713201077356
384,565.6491808079987
385,565.6058414487279
386,565.5807645689376
387,565.5695650248168
388,565.5664274552962
389,565.564836994329
390,565.5583754821213
391,565.5414431706175
392,565.5097897424866
393,565.460793221656
394,565.3934869168163
395,565.3083782763435
396,565.2071222404801
397,565.0921148323081
398,564.9660728799315
399,564.8316676949197
400,564.6912790087979
401,564.5469198964298
402,564.4003476624854
403,564.2533255509967
404,564.1079503641353
405,563.9669277187813
406,563.8336744376201
407,563.7121647216723
408,563.6065051415957
409,563.5202990949449
410,563.4559187934342
411,563.4138295602875
412,563.392108528967
413,563.3862712727226
414,563.3894676318037
415,563.3930427763293
416,563.3874009515257
417,563.3630720825606
418,563.3118637673759
419,563.2279669120261
420,563.1088639720775
421,562.9558824250936
422,562.7742660466525
423,562.5727041379695
424,562.3623531281277
425,562.1554915736518
426,561.9640355041491
427,561.7981670792972
428,561.6652888667381
429,561.5694340912685
430,561.5111659164475
431,561.4879054942982
432,561.4945613176054
433,561.5243103369992
434,561.5694056242886
435,561.6219364863994
436,561.6745146035743
437,561.720877471829
438,561.7563792535141
439,561.778298433994
440,561.7858743260999
441,561.7800243900348
442,561.7627800687461
443,561.736563951749
444,561.7034819088183
445,561.6648117918246
446,561.6208259960077
447,561.570983330528
448,561.514398149147
449,561.4504056490531
450,561.3790385600875
451,561.3013025400114
452,561.2192296897733
453,561.1357489447801
454,561.0544279410824
455,560.9791360610237
456,560.9136724641141
457,560.8613974745007
458,560.8248999889275
459,560.8057335388909
460,560.8042590468705
461,560.8196318061405
462,560.8499515342168
463,560.892553739692
464,560.9443724534617
465,561.0022792216439
466,561.0633193455474
467,561.1248083398731
468,561.1842929145777
469,561.2394165020524
470,561.2877664739192
471,561.3268043414496
472,561.3539618962577
473,561.3669208534733
474,561.3640115135303
475,561.3446073239933
476,561.3093850271931
477,561.2603669061863
478,561.2007344960984
479,561.1344639451655
480,561.0658629585242
481,560.9990897003065
482,560.9377143819963
483,560.8843597244983
484,560.8404433801614
485,560.8060467022303
486,560.77993945769
487,560.7597847056752
488,560.7425188877795
489,560.7248516122013
490,560.7037875970877
491,560.6770739420559
492,560.6435179196657
493,560.6031651931542
494,560.5573434131328
495,560.5085679510165
496,560.460303224172
497,560.4165885137509
498,560.3815610192897
499,560.3589254409541
500,560.3514267015696
501,560.3603871498866
502,560.3853705270003
503,560.424026883102
504,560.472157019832
505,560.5240097918368
506,560.5727822766065
507,560.611243262855
508,560.6323804376913
509,560.6299967513532
510,560.5992223640226
511,560.5369290717779
512,560.4420350800365
513,560.315691366223
514,560.1613469793143
515,559.9846825348816
516,559.7933824697341
517,559.5967143840634
518,559.4049133964095
519,559.2284176211341
520,559.0770432777953
521,558.9592054784426
522,558.8812731770574
523,558.8471016952367
524,558.8577443835977
525,558.9113352052426
526,559.0031498693069
527,559.1258640117039
528,559.2700195301044
529,559.4246939895378
530,559.5783479980246
531,559.7197963034612
532,559.8392096922241
533,559.9290167573891
534,559.984555989138
535,560.0043534699483
536,559.9899808716888
537,559.9455537704127
538,559.8770026840833
539,559.7912566851425
540,559.6954483565102
541,559.5962209408492
542,559.49919804592
543,559.4086442968946
544,559.3273073814589
545,559.2564164381021
546,559.195824291764
547,559.1442930922124
548,559.0999107715201
549,559.0605978354756
550,559.0246436955227
551,558.9912051101552
552,558.9606921001152
553,558.9349562839676
554,558.9172090884751
555,558.9116562613111
556,558.9229229664448
557,558.9554092435064
558,559.0127179405973
559,559.0972392447047
560,559.2098993218805
561,559.3500317614778
562,559.5153282668481
563,559.7018567958132
564,559.9041759521181
565,560.1155975581447
566,560.3286312533588
567,560.5355854447312
568,560.729237496035
569,560.9034664231062
570,561.053762334086
571,561.1775551368478
572,561.2743231788054
573,561.345458148836
574,561.3938876318308
575,561.4234956600245
576,561.4384279472445
577,561.4424056302073
578,561.4381827072477
579,561.4272584291882
580,561.4098943593375
581,561.385399753324
582,561.3525748573824
583,561.3101803809978
584,561.2573391824573
585,561.1938353735005
586,561.1203127590409
587,561.0383770295134
588,560.9505889581969
589,560.8603176699814
590,560.771423130872
591,560.6877722306621
592,560.6126577687695
593,560.5482469896236
594,560.4951943558086
595,560.4525048671861
596,560.4176604756882
597,560.3869623105766
598,560.3560152666472
599,560.3202811057685
600,560.2756309202267
601,560.218829879444
602,560.1478957657139
603,560.0622936993487
604,559.9629573841396
605,559.8521566797533
606,559.7332586781603
607,559.6104460103131
608,559.488452166056
609,559.3723508128567
610,559.2674071808376
611,559.1789731013287
612,559.1123826651622
613,559.0727873333223
614,559.0648728922
615,559.0924354215322
616,559.1578485229791
617,559.2615032926554
618,559.4013252671696
619,559.5724682772868
620,559.7672661463863
621,559.975498891046
622,560.1849978311265
623,560.3825616852324
624,560.5550838069264
625,560.6907301324202
626,560.7799953522598
627,560.8165041062716
628,560.7974837686909
629,560.7238871981306
630,560.6001789005919
631,560.4338169335444
632,560.2344739786763
633,560.0130624145045
634,559.7806652695067
635,559.5475064770721
636,559.3220983982143
637,559.110682459494
638,558.9170377490499
639,558.7426729822186
640,558.5873419764835
641,558.4497482684992
642,558.3282591305598
643,558.2214575096499
644,558.1284210873215
645,558.0486994523194
646,557.98203018
647,557.9278859898461
648,557.8849869442876
649,557.8509362791846
650,557.8221209513558
651,557.79394736064
652,557.7613819352426
653,557.7196773476966
654,557.6651195776969
655,557.5956379711715
656,557.5111716205923
657,557.4137571413916
658,557.3073623965785
659,557.1975181021054
660,557.0908018403851
661,556.994228303095
662,556.9146084067319
663,556.8579513981123
664,556.8289797548017
665,556.830796945644
666,556.8647049228072
667,556.9301370723797
668,557.0246705993671
669,557.1441061238024
670,557.282633124034
671,557.4331156237197
672,557.5875180340848
673,557.7374547546317
674,557.8748155367527
675,557.9924027837079
676,558.0845090153996
677,558.1473648953262
678,558.1794079155234
679,558.1813475035746
680,558.1560184383584
681,558.1080260134894
682,558.0432088510357
683,557.9679843876379
684,557.8886854932615
685,557.8110142110673
686,557.7397020092204
687,557.6783836636992
688,557.6296131777831
689,557.594920418015
690,557.574827755435
691,557.5687899006269
692,557.5750712362983
693,557.5906277607587
694,557.6110954558058
695,557.630977687779
696,557.6440688468967
697,557.6440745965169
698,557.6253245174584
699,557.5834468507502
700,557.5158931725482
701,557.4222446625024
702,557.3042752626936
703,557.1657796117988
704,557.0121999911446
705,556.8501086426159
706,556.6866116540953
707,556.5287328424458
708,556.3828184692495
709,556.2539924226526
710,556.1456974808361
711,556.0593734285202
712,555.9943259765074
713,555.9478219181
714,555.9154148406811
715,555.8914717408921
716,555.8698374854444
717,555.8445481787398
718,555.8104952068178
719,555.7639502504513
720,555.7028834408605
721,555.6270397180898
722,555.5377797909815
723,555.4377328153387
724,555.3303367186213
725,555.2193546531419
726,555.1084527605076
727,555.0009028604018
728,554.8994334683005
729,554.8062078790705
730,554.7228831871839
731,554.650708779667
732,554.5906425850452
733,554.5434801099886
734,554.5099979805755
735,554.491107710423
736,554.4879967839092
737,554.5022119965329
738,554.5356320597616
739,554.5902986924604
740,554.6681226998949
741,554.770522612263
742,554.8980628406821
743,555.050143919389
744,555.2247816566775
745,555.4185053711237
746,555.6264064994268
747,555.8423677167514
748,556.0594824656191
749,556.2706298021662
750,556.4691202636872
751,556.6493071594639
752,556.8070760025269
753,556.9401604639668
754,557.0482579532332
755,557.1329339816808
756,557.1973320585353
757,557.2457440736824
758,557.2831236564264
759,557.3146269787641
760,557.3452406238915
761,557.3795145916937
762,557.4213823765349
763,557.474038087752
764,557.5398477328743
765,557.6202815505444
766,557.7158663160966
767,557.826176868292
768,557.9499016687555
769,558.0850089543806
770,558.2290085079958
771,558.3792654232519
772,558.5332956811465
773,558.6889744832598
774,558.844616169533
775,558.9989205355217
776,559.1508107070069
777,559.299211360876
778,559.4428247117652
779,559.5799425283024
780,559.708300424403
781,559.8249738586238
782,559.9263440860168
783,560.00819013171
784,560.0659510925983
785,560.0951564174811
786,560.0919743572048
787,560.0538009001137
788,559.979799945382
789,559.8713049442781
790,559.7320057692482
791,559.5678743350885
792,559.3868222368886
793,559.1981211944676
794,559.0116437800735
795,558.8369998669085
796,558.6826587308101
797,558.5551542342157
798,558.4584635431181
799,558.393629544133
800,558.3586743426198
801,558.3488339738452
802,558.357123177557
803,558.3751950564044
804,558.3943968486459
805,558.4068691502598
806,558.406516129191
807,558.3896928400009
808,558.3555060773862
809,558.3056949902154
810,558.244131391219
811,558.1760449748535
812,558.1071243694931
813,558.0426579532818
814,557.9868535936022
815,557.9424246142332
816,557.9104678246267
817,557.8906020214388
818,557.8812909979182
819,557.8802508049957
820,557.884842730137
821,557.8923848233859
822,557.900369490229
823,557.9066278954189
824,557.9095029386572
825,557.90806921311
826,557.9023811979994
827,557.893668195801
828,557.8843694564034
829,557.8779430807455
830,557.8784614488903
831,557.8900657296078
832,557.9163635819106
833,557.9598394014985
834,558.0213444133016
835,558.0997552726496
836,558.1919037958311
837,558.2928483968124
838,558.3964764706684
839,558.4963326482283
840,558.5865066690254
841,558.6624130017624
842,558.7213464137578
843,558.7627703171737
844,558.7883495370905
845,558.8017615717488
846,558.8083260546424
847,558.8144986458562
848,558.8272814240584
849,558.8536016800308
850,558.8997091457464
851,558.970637328171
852,559.0697591258881
853,559.1984488131607
854,559.3558670071152
855,559.5389124423145
856,559.7423966596434
857,559.9594686875527
858,560.1822648376484
859,560.4027145565755
860,560.6134027554191
861,560.8083667059611
862,560.9837007210143
863,561.137868569873
864,561.2716755204796
865,561.3879070509905
866,561.4906903057544
867,561.5846819557795
868,561.6742232587108
869,561.7626057904054
870,561.8515525914501
871,561.9409616148846
872,562.0289102517715
873,562.1118934960192
874,562.1852561056229
875,562.2437669098483
876,562.2822686750219
877,562.2963295801668
878,562.282829121944
879,562.2404297776594
880,562.1699103625781
881,562.0743557820095
882,561.9591942931728
883,561.8320494981284
884,561.7023579414242
885,561.5807198173106
886,561.4780021466177
887,561.4042845641967
888,561.3677992692772
889,561.3740384846752
890,561.4251727130606
891,561.5198551070586
892,561.6534094702815
893,561.8183398694845
894,562.0050753962339
895,562.202867795495
896,562.4007673264862
897,562.588596173227
898,562.7578262545903
899,562.9022687542816
900,563.0185060828387
901,563.1060358325748
902,563.1671346569012
903,563.2064774249625
904,563.2305638138778
905,563.2470168445309
906,563.263829628291
907,563.2886456362896
908,563.3281552258561
909,563.3876648798408
910,563.4708478179151
911,563.5796437422106
912,563.7142699342184
913,563.873327929905
914,564.0540058222327
915,564.2523680571563
916,564.4637035105034
917,564.6828878126732
918,564.9047170156197
