frame_number,force
0,598.1331200000301
1,598.519075838443
2,598.8901556008383
3,599.2326206552467
4,599.5348872873292
5,599.7883387325966
6,599.9878867270276
7,600.1322596641473
8,600.2240005427204
9,600.269164342628
10,600.2767205650573
11,600.2576945586342
12,600.2241228041318
13,600.187942451303
14,600.1599538631175
15,600.1489652407533
16,600.1611723718571
17,600.1997884994896
18,600.2649303332335
19,600.3537600022588
20,600.4608652779285
21,600.5788432300037
22,600.699039340365
23,600.8123773898179
24,600.9102022119351
25,600.9850624292932
26,601.0313779847528
27,601.0459472738371
28,601.0282452785203
29,600.9804627701225
30,600.9072548723233
31,600.8152081301871
32,600.7120841135372
33,600.6059330916495
34,600.5041853016836
35,600.4128288052042
36,600.3357768554118
37,600.2745026979587
38,600.2279702273264
39,600.1928382870303
40,600.1638945364409
41,600.1346777357844
42,600.0982440984836
43,600.0480098366249
44,599.9785759206986
45,599.8864361088806
46,599.770490425018
47,599.6323195381013
48,599.4761997778614
49,599.3088413054638
50,599.138826667103
51,598.9757469731783
52,598.8290966283116
53,598.7070739219995
54,598.61549590713
55,598.5570313368866
56,598.5308821640527
57,598.5329396355881
58,598.5563528157201
59,598.5923974377966
60,598.6315137750018
61,598.66438114915
62,598.6829085693012
63,598.6810408689024
64,598.655303805243
65,598.6050418239745
66,598.5323393970565
67,598.4416569902502
68,598.339250837735
69,598.2324752890623
70,598.1290770727571
71,598.0365714002994
72,597.9617396202481
73,597.910228673044
74,597.886201021063
75,597.8920011953585
76,597.9278566969928
77,597.9916815876057
78,598.0790699230505
79,598.1835405429168
80,598.2970393585716
81,598.4106513457155
82,598.5154372389233
83,598.6032845007644
84,598.6676542497528
85,598.7041330620254
86,598.7107507203161
87,598.6880620524505
88,598.6389968745037
89,598.5684853730675
90,598.4828930041671
91,598.3893356544372
92,598.2949642785052
93,598.2063028614614
94,598.1287072663106
95,598.0659923096441
96,598.0202480851318
97,597.9918368053638
98,597.9795402428773
99,597.9808231937926
100,597.9921822179022
101,598.0095488654258
102,598.0287143751038
103,598.0457470685428
104,598.0573810047317
105,598.0613516445427
106,598.0566387484657
107,598.0435658050833
108,598.0237182468106
109,597.9996801166997
110,597.9746364966121
111,597.9519297870778
112,597.934672475054
113,597.9254922380939
114,597.9264257092262
115,597.9389210894294
116,597.9638911339512
117,598.0017771224899
118,598.0526128358694
119,598.1160897487911
120,598.1916202405971
121,598.2783928300881
122,598.3754200709818
123,598.4815811126025
124,598.5956461718204
125,598.716256116072
126,598.8418422530184
127,598.970505915229
128,599.099903505576
129,599.2271795265656
130,599.3489659728913
131,599.4614429424662
132,599.5604490594577
133,599.6416425035708
134,599.7007300023774
135,599.7337871521089
136,599.737679902613
137,599.7105575912271
138,599.6523324922298
139,599.5650256967065
140,599.4528739148362
141,599.322144961077
142,599.1806689450731
143,599.0371405365619
144,598.9002806026393
145,598.7779603137196
146,598.6763939135353
147,598.5995069000653
148,598.5485786547365
149,598.522227810793
150,598.5167507778797
151,598.5267542616887
152,598.5459694912956
153,598.5681190471258
154,598.5877219075352
155,598.6007489033257
156,598.6050643338854
157,598.6006065343013
158,598.589276620582
159,598.5745336631029
160,598.5607467832177
161,598.552420391971
162,598.5534543541514
163,598.5665931801399
164,598.593154029344
165,598.6330350844397
166,598.6849402842756
167,598.7467359921807
168,598.81586435262
169,598.8897523626118
170,598.966168121516
171,599.0434869022888
172,599.1208357512452
173,599.1980878691172
174,599.2756883545159
175,599.3543183557575
176,599.434441103029
177,599.5158122584384
178,599.5970687702531
179,599.6755187648922
180,599.7472252716522
181,599.8074122018947
182,599.8511404517553
183,599.8741252101411
184,599.8735177942305
185,599.8484859496274
186,599.8004963065554
187,599.7332862665921
188,599.6525605124822
189,599.5654563676119
190,599.4798288771547
191,599.4034372264264
192,599.3431516581497
193,599.3043058294552
194,599.2902848251078
195,599.3023895342906
196,599.3399713581058
197,599.4007852219496
198,599.481470483604
199,599.5780567128785
200,599.6864070598497
201,599.802540825108
202,599.922809379924
203,600.043937249806
204,600.1629766110842
205,600.277238327251
206,600.3842455691481
207,600.4817268663513
208,600.5676538085002
209,600.6403352155559
210,600.6985762676461
211,600.7418830470797
212,600.770660882203
213,600.7863454553085
214,600.7914176506258
215,600.7892704005063
216,600.7839181466088
217,600.7795733380564
218,600.7801463838886
219,600.788738294636
220,600.8071959477495
221,600.8358053066132
222,600.8732025837851
223,600.9165624752679
224,600.9620638799495
225,601.0055573658742
226,601.0433030798375
227,601.0726329673014
228,601.0924079055613
229,601.1031771068891
230,601.1070079779764
231,601.107036019558
232,601.1068531450468
233,601.1098711568386
234,601.1187654887461
235,601.1350591705384
236,601.1588761606279
237,601.1888751212107
238,601.2223582685085
239,601.2555297408472
240,601.2838558713535
241,601.3024697887982
242,601.3065789972162
243,601.2918644732426
244,601.2548723251062
245,601.1933842904868
246,601.1067304187802
247,600.9959926786049
248,600.8640425081394
249,600.7153644986612
250,600.5556583716849
251,600.3912736781732
252,600.228572687457
253,600.0733093923565
254,599.9300828348316
255,599.8019097652946
256,599.6899632682855
257,599.5935145883122
258,599.5100887139374
259,599.4358148552155
260,599.3659302167233
261,599.2953767967851
262,599.2194149675187
263,599.1341713481006
264,599.0370493499339
265,598.9269563249394
266,598.8043300766398
267,598.6709732054615
268,598.5297325885007
269,598.3840943147387
270,598.2377841340307
271,598.0944526024598
272,597.9574831511692
273,597.8299059735797
274,597.7143593401915
275,597.6130407801691
276,597.5276275527912
277,597.4591756902114
278,597.408003143301
279,597.3735538934372
280,597.3542639902854
281,597.3474881439886
282,597.3495454538197
283,597.3559001245499
284,597.3614523045745
285,597.3609029828895
286,597.3491604624794
287,597.3217541182531
288,597.2752160203082
289,597.2073932419033
290,597.1176606718619
291,597.0070068148441
292,596.8779701483631
293,596.7344258896882
294,596.5812530114273
295,596.4239213426492
296,596.2680268773775
297,596.1187977866492
298,595.9806080973864
299,595.856557303225
300,595.7481864969803
301,595.655396035979
302,595.5766003352119
303,595.5091079917247
304,595.449669391484
305,595.3951037193639
306,595.3429034088472
307,595.2917139458724
308,595.2416025930919
309,595.1940649629324
310,595.1517747342923
311,595.1181474891488
312,595.0968332562147
313,595.0912461617413
314,595.1041937452602
315,595.1376211675939
316,595.1924583366583
317,595.2685457290618
318,595.3646150671115
319,595.4783195643462
320,595.6063335417451
321,595.7445468105041
322,595.8883559810499
323,596.0330188911972
324,596.1740112426477
325,596.3073164121571
326,596.4295913030979
327,596.5381852906075
328,596.6310418591756
329,596.7065572366973
330,596.7634755931092
331,596.8008640469271
332,596.8181595588803
333,596.8152434901966
334,596.7924953962872
335,596.7508018765957
336,596.6915250542021
337,596.6164464663788
338,596.5276984169014
339,596.4276966165027
340,596.3191033314838
341,596.2048594048645
342,596.0883015729539
343,595.973332756271
344,595.8645700807535
345,595.7673842758077
346,595.6877623038037
347,595.6319595215518
348,595.6059559032307
349,595.6147883389317
350,595.6618749259978
351,595.7484544993819
352,595.873238628923
353,596.0323363558657
354,596.2194769595221
355,596.4265171594454
356,596.6441685812797
357,596.8628279689251
358,597.0733647263861
359,597.2677432441014
360,597.4394222462236
361,597.5835412873536
362,597.6969471224352
363,597.778128206231
364,597.8271169428692
365,597.8453865938216
366,597.8357270339634
367,597.8020576339665
368,597.749143420932
369,597.6822161800894
370,597.6065417748312
371,597.5269947101157
372,597.4476926609536
373,597.371718684638
374,597.3009385166237
375,597.2359203024499
376,597.1759799517025
377,597.1193836341383
378,597.0637196187159
379,597.0064072246242
380,596.9452596295755
381,596.8789808571821
382,596.807477016738
383,596.7319072689384
384,596.6544715895739
385,596.5779973154588
386,596.5054259147455
387,596.4393085661706
388,596.3813919614269
389,596.3323310400359
390,596.2915365080594
391,596.2571678480242
392,596.2262953196798
393,596.1952415065299
394,596.1600662622096
395,596.1171102768692
396,596.0634991249443
397,595.9975347986372
398,595.9189397613425
399,595.8289478503748
400,595.7302514786007
401,595.6268160222482
402,595.5235654252076
403,595.425945252876
404,595.3393943644795
405,595.2687895446314
406,595.21794049666
407,595.189198923901
408,595.1832206306221
409,595.1988972444956
410,595.2334591712462
411,595.2827444625913
412,595.3416214840471
413,595.4045324663606
414,595.4660902093168
415,595.5216331829835
416,595.5676443818564
417,595.6019620288207
418,595.6237425570478
419,595.6331809890438
420,595.6310567270685
421,595.6182329465865
422,595.5952581250413
423,595.562183627281
424,595.5186364313462
425,595.464099431165
426,595.3982891195681
427,595.3215121002995
428,595.2349240907193
429,595.1406667909672
430,595.0418804619754
431,594.9425853079395
432,594.8474261132155
433,594.7613025261371
434,594.6889443271288
435,594.6345033528137
436,594.6012126935333
437,594.5911324187002
438,594.6049829789308
439,594.6420659437435
440,594.7002794412266
441,594.7762447423727
442,594.8655613495134
443,594.9631907824967
444,595.0639333179826
445,595.1629241876865
446,595.2560612643348
447,595.3402934549698
448,595.4137332560681
449,595.4755921575703
450,595.5259699541341
451,595.5655576235138
452,595.5953324940419
453,595.6163260248745
454,595.6295224567633
455,595.6359037412005
456,595.6366092062242
457,595.6331448624352
458,595.6275616837687
459,595.6225234587173
460,595.6212069596584
461,595.6270239703302
462,595.6432159891538
463,595.6724232769184
464,595.7163468822133
465,595.7755955188838
466,595.8497449661007
467,595.9375644543541
468,596.0373216078153
469,596.1470780031754
470,596.2649106945865
471,596.3890225052763
472,596.5177341326098
473,596.6493824812535
474,596.7821728743421
475,596.9140380829393
476,597.0425407027093
477,597.1648279685076
478,597.2776323126691
479,597.3773186091712
480,597.459996008302
481,597.5217157770993
482,597.558761941352
483,597.5680230532889
484,597.5474210010393
485,597.4963589457483
486,597.4161256475177
487,597.3101685852357
488,597.1841523575513
489,597.0457658877663
490,596.9043074974559
491,596.7701194640562
492,596.6539411859663
493,596.5662120588055
494,596.5163171803542
495,596.5117726982407
496,596.5574039237424
497,596.6546407400068
498,596.8010856766274
499,596.9904741550706
500,597.2130640702143
501,597.4564069442629
502,597.7063960507944
503,597.9484584251815
504,598.168747341669
505,598.3552046631274
506,598.4984039013954
507,598.5921332159979
508,598.6337048101302
509,598.6239887055409
510,598.5671902757247
511,598.4704203112316
512,598.343114382572
513,598.1963373052743
514,598.0419904328049
515,597.8919543153137
516,597.7572365720706
517,597.647215939203
518,597.5690549628683
519,597.5273106624537
520,597.5237381082662
521,597.5572755306756
522,597.6242141354642
523,597.7185672899683
524,597.832641496365
525,597.9577738510441
526,598.085154840583
527,598.20662449503
528,598.3153284606288
529,598.4061498414871
530,598.4758839202719
531,598.5231776799678
532,598.5482932790337
533,598.5527674776278
534,598.5390373064068
535,598.5100924733667
536,598.4691922005183
537,598.4196512738837
538,598.3646780612239
539,598.3072526359172
540,598.2500560170143
541,598.1954768050429
542,598.1457125534424
543,598.1029486557403
544,598.0695489238229
545,598.0481559089061
546,598.041608331946
547,598.0526479699871
548,598.0834784827325
549,598.1353040655716
550,598.2079835737527
551,598.2998902249125
552,598.4080052748741
553,598.5282314721608
554,598.6558857681357
555,598.7862958829039
556,598.9153844039977
557,599.0401076881689
558,599.1586396878491
559,599.2702450423891
560,599.3748666874104
561,599.4725484259984
562,599.5628774867542
563,599.6446199540313
564,599.7156406147963
565,599.7731030371674
566,599.8138785595023
567,599.835057250642
568,599.8344416607597
569,599.8109225083832
570,599.7646866896835
571,599.697264333964
572,599.6114490502587
573,599.5111227903476
574,599.4010066100134
575,599.2863555058874
576,599.1726209541594
577,599.0651127839378
578,598.9686870704874
579,598.8874618409877
580,598.8245437044325
581,598.7817688839358
582,598.7595060150253
583,598.7565843303414
584,598.7703848372134
585,598.7970964111549
586,598.8321122908973
587,598.8705140760395
588,598.9075611664797
589,598.9390973203557
590,598.9618154638191
591,598.9733709395681
592,598.9723736063346
593,598.9583078147355
594,598.9314328070684
595,598.8927067427339
596,598.843748915445
597,598.786816242008
598,598.7247483282133
599,598.6608447467962
600,598.5986699824118
601,598.541817779682
602,598.4936876902467
603,598.4573164266159
604,598.4352681956625
605,598.4295510846233
606,598.4415245510887
607,598.4717964759672
608,598.5201417854681
609,598.5854799465094
610,598.6659306032344
611,598.758945679461
612,598.8615065810201
613,598.9703782534202
614,599.0824141151809
615,599.1948887458574
616,599.3058006242054
617,599.4140627360526
618,599.5195093315297
619,599.622692140775
620,599.7245001700212
621,599.8256895645255
622,599.926431509473
623,600.0259706164567
624,600.1224512345277
625,600.2129349065077
626,600.2936029741488
627,600.3601112455857
628,600.4080398785956
629,600.4333685074546
630,600.4329139384137
631,600.4046895404568
632,600.3481590828308
633,600.2643589428644
634,600.155871863001
635,600.0266594885694
636,599.8817835379045
637,599.7270541810375
638,599.5686396002912
639,599.4126601443224
640,599.264783231029
641,599.1298370466509
642,599.011476047783
643,598.9119565747519
644,598.8320906069588
645,598.7714080164862
646,598.7284833974596
647,598.7013263961435
648,598.6877336885468
649,598.6855452887809
650,598.692797734078
651,598.7077936108691
652,598.7291105315488
653,598.7555667821981
654,598.7861558043614
655,598.8199606077008
656,598.8560602092334
657,598.8934395997379
658,598.9309140693457
659,598.9670843554322
660,599.0003495537808
661,599.0290058348206
662,599.0514370473273
663,599.0663627566084
664,599.0730757447022
665,599.0715980746637
666,599.0627088273825
667,599.0478276243592
668,599.0287691992094
669,599.0074195017415
670,598.985410894111
671,598.9638687131668
672,598.9432630748447
673,598.9233556517652
674,598.903207182586
675,598.8812187420176
676,598.8552125192838
677,598.8225869327418
678,598.7805732697944
679,598.7265761928642
680,598.6585312240884
681,598.5751909827018
682,598.4762693465525
683,598.3624199764108
684,598.2350770739215
685,598.0962125073518
686,597.9480615325489
687,597.7928633290863
688,597.6326632198346
689,597.4692152731772
690,597.3039994687058
691,597.1383407528424
692,596.9735990466996
693,596.8113884274167
694,596.6537814391129
695,596.5034622709945
696,596.3637996520913
697,596.2388064479117
698,596.1329493720696
699,596.0507903691465
700,595.9964845519108
701,595.9732108716006
702,595.9826500063024
703,596.0246344472831
704,596.0970724815259
705,596.1961955264112
706,596.3171088915542
707,596.4545517843515
708,596.6037094909706
709,596.7608953902949
710,596.9239517751415
711,597.092292540232
712,597.2665930255248
713,597.4482007236129
714,597.6383874311522
715,597.8375805466743
716,598.0446988623262
717,598.2566934685753
718,598.4683721608925
719,598.672562327024
720,598.860630661548
721,599.0233232461793
722,599.15182452184
723,599.2388798272046
724,599.2798053580391
725,599.2732237496961
726,599.2213999431193
727,599.130107597664
728,599.0080385764085
729,598.8658649114033
730,598.7151330588197
731,598.5671788843721
732,598.4322040338396
733,598.3185857119445
734,598.2324341744429
735,598.1773803038927
736,598.1545692964243
737,598.1628394947521
738,598.1990598981681
739,598.2585884734505
740,598.335807601247
741,598.4246883722374
742,598.5193258255456
743,598.6143864587809
744,598.7054279609865
745,598.7890731799725
746,598.8630326156114
747,598.9259870916096
748,598.9773755087139
749,599.0171599329303
750,599.0456370058525
751,599.0633360177001
752,599.0710103743314
753,599.0696994793544
754,599.0608112627461
755,599.0461569629459
756,599.027872561832
757,599.0081940540722
758,598.989110165173
759,598.9719742963412
760,598.9571888877666
761,598.9440619029523
762,598.9308811113018
763,598.9151802712156
764,598.8941124778507
765,598.8648272130822
766,598.8247763406514
767,598.7719253382215
768,598.704883042428
769,598.6229730308914
770,598.5262638423751
771,598.4155670635097
772,598.2924094903145
773,598.1589886402804
774,598.0181189759761
775,597.8731609597352
776,597.7279095765629
777,597.5864213206266
778,597.4527743665702
779,597.330770666119
780,597.22360184231
781,597.1335221611494
782,597.0615960952125
783,597.0075948265525
784,596.970089319251
785,596.9467331464717
786,596.9346747874074
787,596.9310147524791
788,596.9332308359512
789,596.9395169614031
790,596.9490000128117
791,596.9618111174271
792,596.9789993268146
793,597.0022913634102
794,597.0337212033497
795,597.075176950308
796,597.1279336243608
797,597.1922437505671
798,597.2670377895514
799,597.3497657237766
800,597.4364112332149
801,597.521718401154
802,597.599659996991
803,597.6641377345977
804,597.7098479254319
805,597.7331840007662
806,597.7330012328828
807,597.7110668075703
808,597.6720743161853
809,597.6231960083289
810,597.5732382752994
811,597.5315307028668
812,597.5067183817785
813,597.5056438840917
814,597.5324906901807
815,597.5883120681278
816,597.6709986876331
817,597.7756555190672
818,597.8952825001505
819,598.0216143362107
820,598.1459868081243
821,598.2601383926789
822,598.3568936436441
823,598.4306973718163
824,598.4779825659186
825,598.4973605802786
826,598.4896166345876
827,598.4574899797461
828,598.4052392823338
829,598.3380457343989
830,598.2613608935574
831,598.1803219013802
832,598.0993239825922
833,598.0217903735327
834,597.9501419087569
835,597.8859396919739
836,597.8301442468128
837,597.7834137030219
838,597.7463709418377
839,597.7198030404107
840,597.7047878061543
841,597.7027452608221
842,597.7153916844336
843,597.7445623295665
844,597.7918892783741
845,597.8583652250114
846,597.9438674220005
847,598.0467409044916
848,598.1635420555672
849,598.2890232435631
850,598.4163967988897
851,598.53785766875
852,598.6452878687479
853,598.7310362049029
854,598.7886704810202
855,598.8136205865611
856,598.8036482654264
857,598.7590870808388
858,598.6828083366394
859,598.579900619843
860,598.4570960669424
861,598.3220164039077
862,598.1823392762686
863,598.0450042884282
864,597.9155822575818
865,597.7979076183267
866,597.6940252383606
867,597.6044406877132
868,597.5285912918399
869,597.4653896192852
870,597.4136723065369
871,597.3724415822674
872,597.340886929637
873,597.3182629350173
874,597.3037409735074
875,597.2963445542762
876,597.295031103894
877,597.2989150038065
878,597.3075686551006
879,597.3213114821833
880,597.3413952623515
881,597.3700088690927
882,597.4100601938408
883,597.4647426538727
884,597.5369385046612
885,597.6285412450179
886,597.7398014702852
887,597.8688171198535
888,598.011286301592
889,598.1606038969983
890,598.3083195353603
891,598.4449103105022
892,598.5607733275893
893,598.6473095940997
894,598.6979493904096
895,598.7089635247007
896,598.6799220519491
897,598.6137125225595
898,598.5161137030682
899,598.3950133527657
900,598.2594261709183
901,598.1184922478985
902,597.9806158958194
903,597.8528484526058
904,597.7405472697543
905,597.6472819838541
906,597.5749220265254
907,597.5238260626453
908,597.4930601209991
909,597.4805909691453
910,597.483430843156
911,597.497747405933
912,597.5189882131739
913,597.5420799901589
914,597.5617373835812
915,597.5728686617812
916,597.571028547903
