frame_number,force
0,615.4478800077926
1,615.4616306354291
2,615.4752982912152
3,615.4888003121413
4,615.502054656667
5,615.5149802248765
6,615.5274971892298
7,615.539527337487
8,615.5509944275708
9,615.5618245526524
10,615.5719465138227
11,615.5812921973223
12,615.5897969532974
13,615.5973999731133
14,615.6040446620588
15,615.6096790037492
16,615.6142559120545
17,615.6177335662427
18,615.6200757252943
19,615.621252017836
20,615.6212382045795
21,615.6200164104022
22,615.617575323259
23,615.6139103570592
24,615.6090237754372
25,615.6029247729049
26,615.5956295092582
27,615.5871610925475
28,615.5775495058012
29,615.5668314733254
30,615.555050263717
31,615.5422554282039
32,615.528502474101
33,615.513852474228
34,615.4983716145446
35,615.4821306840753
36,615.4652045128943
37,615.4476713650542
38,615.4296122938204
39,615.4111104667212
40,615.3922504681443
41,615.3731175875303
42,615.3537971013328
43,615.3343735566976
44,615.3149300646057
45,615.295547610399
46,615.2763043900898
47,615.2572751812141
48,615.2385307568857
49,615.2201373511169
50,615.202156182539
51,615.1846430424469
52,615.1676479517258
53,615.1512148898787
54,615.1353815979728
55,615.1201794554884
56,615.1056334287553
57,615.0917620865633
58,615.078577677207
59,615.066086260642
60,615.0542878892923
61,615.0431768312319
62,615.0327418301083
63,615.0229663973764
64,615.0138291338683
65,615.005304078712
66,614.9973610836176
67,614.9899662096801
68,614.9830821427367
69,614.9766686225059
70,614.9706828804485
71,614.9650800813289
72,614.9598137633101
73,614.9548362708175
74,614.9500991737593
75,614.9455536667457
76,614.9411509430853
77,614.9368425402189
78,614.9325806549045
79,614.9283184270314
80,614.9240101904629
81,614.9196116888604
82,614.9150802547925
83,614.910374951246
84,614.9054566749953
85,614.900288220963
86,614.8948343064573
87,614.8890615549276
88,614.8829384408989
89,614.8764352003797
90,614.8695237132248
91,614.8621773650028
92,614.8543708958788
93,614.8460802433016
94,614.8372823844907
95,614.8279551843398
96,614.818077254607
97,614.8076278310549
98,614.7965866760562
99,614.7849340144023
100,614.7726505093631
101,614.7597172847762
102,614.7461159972287
103,614.7318289599276
104,614.7168393164729
105,614.7011312588061
106,614.6846902800638
107,614.6675034510483
108,614.6495597089362
109,614.6308501476619
110,614.6113682998606
111,614.5911104003651
112,614.5700756219937
113,614.5482662761559
114,614.5256879731371
115,614.5023497392596
116,614.478264090245
117,614.4534470619469
118,614.4279182008706
119,614.4017005171607
120,614.3748204021083
121,614.3473075116225
122,614.3191946172612
123,614.2905174269844
124,614.2613143779996
125,614.231626403844
126,614.2014966778185
127,614.1709703355721
128,614.1400941808866
129,614.1089163799229
130,614.077486149856
131,614.0458534479203
132,614.0140686665465
133,613.9821823395222
134,613.9502448630965
135,613.918306235174
136,613.8864158157116
137,613.8546221120401
138,613.8229725933423
139,613.7915135380464
140,613.7602899163189
141,613.7293453079493
142,613.6987218544695
143,613.6684602433972
144,613.63859972175
145,613.6091781353273
146,613.5802319896126
147,613.5517965273463
148,613.5239058170087
149,613.4965928460684
150,613.4698896132148
151,613.4438272146862
152,613.4184359207453
153,613.3937452391966
154,613.369783963853
155,613.3465802070109
156,613.3241614158449
157,613.3025543730882
158,613.2817851827778
159,613.26187924229
160,613.2428612019058
161,613.2247549123734
162,613.2075833597693
163,613.1913685860609
164,613.1761315935648
165,613.1618922319866
166,613.1486690676608
167,613.1364792356735
168,613.1253382766201
169,613.1152599608013
170,613.1062561035427
171,613.0983363759203
172,613.0915081154708
173,613.0857761415759
174,613.081142580493
175,613.0776067059143
176,613.0751648021375
177,613.0738100573994
178,613.0735324941562
179,613.0743189413631
180,613.0761530514903
181,613.0790153623058
182,613.082883400782
183,613.0877318243308
184,613.093532592963
185,613.1002551644634
186,613.1078667030015
187,613.1163322903217
188,613.1256151288907
189,613.135676728479
190,613.1464770706823
191,613.1579747486903
192,613.1701270818813
193,613.182890206716
194,613.1962191468217
195,613.2100678660415
196,613.2243893089295
197,613.2391354340116
198,613.2542572460645
199,613.2697048346291
200,613.2854274269843
201,613.3013734645773
202,613.3174907118716
203,613.3337264054185
204,613.3500274487232
205,613.3663406552037
206,613.3826130375821
207,613.3987921383575
208,613.4148263934501
209,613.4306655195327
210,613.4462609144274
211,613.4615660592968
212,613.4765369115845
213,613.49113227877
214,613.5053141646977
215,613.5190480820879
216,613.5323033263
217,613.5450532061176
218,613.557275227497
219,613.5689512264694
220,613.5800674481235
221,613.590614569664
222,613.60058766637
223,613.6099861195673
224,613.6188134659358
225,613.6270771883895
226,613.6347884507093
227,613.6419617806683
228,613.6486147089134
229,613.6547673726936
230,613.6604420942958
231,613.6656629437958
232,613.6704552949207
233,613.6748453819812
234,613.6788598651677
235,613.6825254109056
236,613.6858682934994
237,613.6889140243052
238,613.691687015174
239,613.6942102832838
240,613.6965052039853
241,613.6985913167636
242,613.7004861871893
243,613.7022053254942
244,613.7037621607814
245,613.70516806889
246,613.7064324511226
247,613.7075628602727
248,613.7085651698454
249,613.70944378197
250,613.710201868965
251,613.7108416429477
252,613.7113646475854
253,613.7117720661064
254,613.7120650397226
255,613.7122449905336
256,613.7123139430284
257,613.7122748387822
258,613.712131839744
259,613.7118906159899
260,613.7115586135793
261,613.7111452977418
262,613.7106623668438
263,613.7101239334772
264,613.7095466698798
265,613.7089499155028
266,613.7083557454138
267,613.7077889998216
268,613.7072772768871
269,613.7068508922061
270,613.7065428084798
271,613.7063885381858
272,613.7064260209656
273,613.706695476499
274,613.7072392335058
275,613.7081015362123
276,613.7093283303278
277,613.710967030553
278,613.7130662710471
279,613.7156756395675
280,613.7188453955287
281,613.7226261724185
282,613.7270686660551
283,613.7322233114784
284,613.7381399518762
285,613.7448675024173
286,613.7524536107607
287,613.7609443153048
288,613.7703837024146
289,613.7808135644738
290,613.7922730609625
291,613.8047983847287
292,613.8184224356067
293,613.8331745037074
294,613.8490799647791
295,613.8661599898854
296,613.8844312713942
297,613.9039057672628
298,613.9245904659883
299,613.9464871751813
300,613.9695923371372
301,613.993896874963
302,614.0193860732538
303,614.0460394982874
304,614.0738309637351
305,614.1027285481803
306,614.1326946697925
307,614.1636862213833
308,614.1956547662938
309,614.2285467929242
310,614.2623040240001
311,614.2968637759257
312,614.3321593628931
313,614.3681205390974
314,614.4046739709379
315,614.441743730429
316,614.4792518013426
317,614.5171185902706
318,614.5552634355411
319,614.5936051080691
320,614.6320622999926
321,614.6705540986901
322,614.7090004445997
323,614.7473225710651
324,614.7854434241211
325,614.8232880602919
326,614.8607840208081
327,614.8978616806954
328,614.9344545709066
329,614.9704996712506
330,615.0059376714473
331,615.0407131973415
332,615.0747749992672
333,615.1080760997106
334,615.1405738977797
335,615.1722302286466
336,615.2030113770201
337,615.2328880446803
338,615.2618352732861
339,615.2898323253871
340,615.3168625287838
341,615.3429130913222
342,615.3679748940694
343,615.3920422704905
344,615.4151127784748
345,615.4371869716441
346,615.458268176383
347,615.4783622807811
348,615.4974775407608
349,615.5156244075336
350,615.5328153796771
351,615.549064882378
352,615.5643891753804
353,615.5788062897998
354,615.5923359924235
355,615.6049997747189
356,615.6168208626963
357,615.6278242427135
358,615.6380366968828
359,615.6474868401465
360,615.6562051500574
361,615.6642239803379
362,615.6715775503277
363,615.6783019040984
364,615.6844348349751
365,615.6900157731521
366,615.6950856357139
367,615.6996866395947
368,615.7038620789112
369,615.7076560687728
370,615.711113257955
371,615.7142785126958
372,615.7171965738137
373,615.7199116900391
374,615.7224672320644
375,615.7249052938562
376,615.7272662894788
377,615.7295885546466
378,615.7319079625931
379,615.7342575638291
380,615.7366672588323
381,615.7391635117438
382,615.7417691121237
383,615.7445029910576
384,615.7473800973477
385,615.7504113388895
386,615.753603593228
387,615.7569597894657
388,615.7604790611773
389,615.7641569670496
390,615.7679857731166
391,615.7719547881841
392,615.776050742396
393,615.7802581975874
394,615.78455997701
395,615.7889376016374
396,615.7933717210567
397,615.7978425288936
398,615.802330155213
399,615.8068150307201
400,615.8112782195154
401,615.8157017184868
402,615.8200687220717
403,615.8243638510799
404,615.8285733437974
405,615.8326852073022
406,615.8366893274099
407,615.8405775369827
408,615.8443436438237
409,615.8479834203828
410,615.8514945579353
411,615.8548765881374
412,615.8581307754876
413,615.8612599856367
414,615.8642685364974
415,615.867162040693
416,615.8699472480789
417,615.8726318961009
418,615.8752245745933
419,615.8777346105755
420,615.880171977118
421,615.8825472283545
422,615.8848714610003
423,615.8871563019068
424,615.889413920942
425,615.8916570681013
426,615.8938991327004
427,615.8961542206613
428,615.898437243322
429,615.9007640084457
430,615.9031513020598
431,615.9056169492007
432,615.9081798427488
433,615.9108599318675
434,615.9136781642683
435,615.9166563789255
436,615.9198171478931
437,615.9231835678614
438,615.9267790042213
439,615.9306267925355
440,615.9347499041703
441,615.9391705840641
442,615.9439099688099
443,615.948987692383
444,615.954421485546
445,615.9602267740286
446,615.9664162802816
447,615.9729996336546
448,615.9799829938768
449,615.9873686927401
450,615.9951548989192
451,616.0033353107559
452,616.0118988815403
453,616.0208295816914
454,616.0301062025588
455,616.0397022070745
456,616.0495856327473
457,616.0597190522005
458,616.0700595955117
459,616.0805590373869
460,616.091163951088
461,616.1018159298624
462,616.112451874936
463,616.1230043469881
464,616.1334019761234
465,616.1435699241982
466,616.1534303928145
467,616.1629031699792
468,616.1719062079825
469,616.1803562243828
470,616.1881693174332
471,616.1952615873569
472,616.2015497558009
473,616.2069517772837
474,616.2113874380703
475,616.2147789392873
476,616.2170514617868
477,616.2181337101094
478,616.2179584322105
479,616.2164629111073
480,616.2135894246996
481,616.2092856705273
482,616.203505152742
483,616.1962075289736
484,616.18735891517
485,616.1769321467888
486,616.1649069947684
487,616.1512703345757
488,616.1360162663838
489,616.1191461840983
490,616.1006687906977
491,616.0806000574966
492,616.0589631255044
493,616.0357881478092
494,616.0111120728465
495,615.9849783700784
496,615.9574367024959
497,615.9285425538596
498,615.8983568212534
499,615.8669453843228
500,615.8343786615113
501,615.8007311612486
502,615.7660810330975
503,615.7305096212248
504,615.6941010209539
505,615.6569416387971
506,615.6191197568692
507,615.5807251034358
508,615.5418484319094
509,615.5025811101398
510,615.4630147202424
511,615.4232406675386
512,615.3833497967166
513,615.3434320139172
514,615.3035759137402
515,615.2638684095593
516,615.224394364926
517,615.1852362244096
518,615.146473644032
519,615.1081831235678
520,615.0704376443908
521,615.0333063169131
522,614.9968540412348
523,614.9611411838748
524,614.9262232729164
525,614.8921507140333
526,614.8589685305574
527,614.8267161312584
528,614.7954271093568
529,614.7651290759612
530,614.7358435312088
531,614.707585776673
532,614.6803648724538
533,614.6541836415854
534,614.6290387232307
535,614.6049206747555
536,614.5818141212676
537,614.5596979497967
538,614.5385455443122
539,614.5183250575504
540,614.4989997163073
541,614.4805281581821
542,614.4628647988869
543,614.4459602293637
544,614.4297616410056
545,614.4142132758503
546,614.3992568974406
547,614.3848322775907
548,614.370877694396
549,614.3573304369222
550,614.344127311826
551,614.3312051469811
552,614.3185012872777
553,614.3059540781493
554,614.2935033330187
555,614.2810907815648
556,614.2686604961368
557,614.2561592937965
558,614.2435371117502
559,614.230747354493
560,614.2177472115635
561,614.2044979452812
562,614.190965148186
563,614.1771189700844
564,614.1629343146726
565,614.1483910057302
566,614.1334739228687
567,614.1181731069286
568,614.1024838355899
569,614.0864066705639
570,614.0699474784024
571,614.053117426889
572,614.0359329580081
573,614.0184157370851
574,614.0005925764506
575,613.98249533095
576,613.9641607616542
577,613.9456303634627
578,613.9269501524875
579,613.9081704102401
580,613.8893453832324
581,613.8705329382169
582,613.8517941748121
583,613.8331929984049
584,613.8147956566528
585,613.7966702427275
586,613.7788861683334
587,613.7615136101047
588,613.7446229342958
589,613.7282841061509
590,613.7125660912903
591,613.6975362567842
592,613.6832597797219
593,613.6697990714226
594,613.6572132256491
595,613.6455574984028
596,613.6348828247843
597,613.6252353759933
598,613.616656158286
599,613.6091806557673
600,613.6028385190594
601,613.5976533012371
602,613.5936422415319
603,613.5908160973672
604,613.5891790262568
605,613.5887285197342
606,613.5894553910166
607,613.5913438170683
608,613.5943714348541
609,613.5985094910549
610,613.603723044232
611,613.60997121821
612,613.6172075051778
613,613.6253801167002
614,613.6344323805431
615,613.6443031807275
616,613.6549274372297
617,613.6662366202912
618,613.678159292952
619,613.6906216746513
620,613.7035482185278
621,613.716862195046
622,613.7304862745516
623,613.744343101375
624,613.758355852374
625,613.7724487734855
626,613.7865476888345
627,613.8005804780548
628,613.8144775186823
629,613.8281720918285
630,613.8416007505293
631,613.8547036508896
632,613.8674248464049
633,613.8797125458736
634,613.8915193352292
635,613.9028023634294
636,613.9135234923988
637,613.9236494112783
638,613.93315171616
639,613.9420069576539
640,613.9501966590998
641,613.9577073075052
642,613.9645303180355
643,613.9706619721978
644,613.9761033301639
645,613.9808601182767
646,613.9849425925926
647,613.9883653780362
648,613.9911472813643
649,613.9933110757893
650,613.9948832558997
651,613.9958937627562
652,613.9963756802674
653,613.996364905087
654,613.995899793047
655,613.9950207852023
656,613.9937700160153
657,613.9921909058801
658,613.9903277408761
659,613.9882252443357
660,613.9859281465258
661,613.9834807594058
662,613.9809265628969
663,613.9783078081656
664,613.9756651430322
665,613.9730372649801
666,613.9704606076587
667,613.9679690664221
668,613.9655937672916
669,613.963362882278
670,613.9613014924246
671,613.9594314980412
672,613.9577715735945
673,613.9563371631316
674,613.9551405113633
675,613.9541907254558
676,613.9534938626481
677,613.9530530387834
678,613.9528685530452
679,613.9529380250023
680,613.9532565413284
681,613.953816810877
682,613.9546093280218
683,613.9556225452847
684,613.9568430570765
685,613.9582557966772
686,613.9598442484627
687,613.9615906769544
688,613.9634763732507
689,613.9654819174438
690,613.9675874530724
691,613.9697729674633
692,613.9720185707826
693,613.9743047667739
694,613.976612709034
695,613.9789244378924
696,613.9812230943649
697,613.9834931090279
698,613.9857203649393
699,613.9878923351355
700,613.9899981970568
701,613.9920289283083
702,613.9939773897912
703,613.9958384026937
704,613.9976088247971
705,613.9992876294401
706,614.000875988168
707,614.002377356435
708,614.0037975610467
709,614.0051448879475
710,614.0064301689556
711,614.0076668659387
712,614.0088711508
713,614.0100619795446
714,614.0112611586716
715,614.0124934023314
716,614.0137863791549
717,614.0151707480352
718,614.0166801817103
719,614.0183513754343
720,614.0202240359307
721,614.022340844107
722,614.024747383977
723,614.0274920299235
724,614.0306257853242
725,614.0342020679725
726,614.0382764407905
727,614.0429062885471
728,614.0481504420922
729,614.0540687519176
730,614.0607216139689
731,614.0681694528913
732,614.0764721704646
733,614.0856885689822
734,614.095875760742
735,614.1070885757595
736,614.1193789797213
737,614.1327955125225
738,614.1473827551941
739,614.16318083118
740,614.1802249473614
741,614.198544980122
742,614.218165110967
743,614.2391035144454
744,614.261372098881
745,614.2849762983789
746,614.3099149132892
747,614.3361799960189
748,614.3637567795106
749,614.3926236460195
750,614.4227521335293
751,614.454106976625
752,614.486646178395
753,614.5203211100225
754,614.555076635202
755,614.5908512576555
756,614.6275772917594
757,614.6651810579588
758,614.7035831053423
759,614.7426984632658
760,614.7824369229279
761,614.8227033491464
762,614.8633980223643
763,614.9044170107363
764,614.9456525717698
765,614.9869935826121
766,615.028325998008
767,615.0695333352237
768,615.1104971854589
769,615.1510977511903
770,615.1912144087444
771,615.2307262954113
772,615.2695129204575
773,615.3074547993507
774,615.3444341104183
775,615.3803353730094
776,615.4150461457197
777,615.448457742217
778,615.4804659608523
779,615.510971822679
780,615.5398823105593
781,615.567111099677
782,615.59257926773
783,615.6162159721958
784,615.637959082541
785,615.6577557564536
786,615.6755629504888
787,615.6913478567274
788,615.705088258407
789,615.7167727993167
790,615.7264011640069
791,615.7339841681937
792,615.7395437606039
793,615.7431129386379
794,615.7447355804807
795,615.7444661958272
796,615.7423695967033
797,615.7385204895849
798,615.7330029905559
799,615.7259100665451
800,615.7173429071652
801,615.7074102326732
802,615.6962275439446
803,615.6839163206839
804,615.6706031750715
805,615.6564189696334
806,615.6414979094718
807,615.6259766193084
808,615.6099932150465
809,615.5936863783415
810,615.5771944414867
811,615.5606544891068
812,615.5442014829694
813,615.5279674166918
814,615.5120805075795
815,615.4966644322637
816,615.4818376108982
817,615.4677125422935
818,615.4543951908008
819,615.4419844253379
820,615.430571510882
821,615.4202396523934
822,615.4110635908389
823,615.4031092511397
824,615.3964334420529
825,615.3910836078597
826,615.3870976317046
827,615.3845036911425
828,615.3833201676711
829,615.3835556126176
830,615.3852087708588
831,615.3882686620025
832,615.3927147174132
833,615.3985169716568
834,615.4056363079372
835,615.41402475788
836,615.423625856181
837,615.4343750502501
838,615.446200164239
839,615.4590219160222
840,615.4727544850284
841,615.4873061282627
842,615.5025798412859
843,615.518474060387
844,615.5348834017524
845,615.5516994329736
846,615.5688114713951
847,615.5861074024004
848,615.6034745091301
849,615.6208003036962
850,615.6379733488283
851,615.6548840583133
852,615.6714254650524
853,615.6874939470417
854,615.702989903559
855,615.7178183758687
856,615.7318896087606
857,615.7451195509566
858,615.7574302935654
859,615.768750446556
860,615.7790154540672
861,615.7881678503226
862,615.7961574585365
863,615.8029415352167
864,615.8084848619278
865,615.8127597864026
866,615.8157462152338
867,615.8174315613201
868,615.8178106505253
869,615.8168855930295
870,615.8146656249833
871,615.8111669254693
872,615.8064124131004
873,615.8004315261619
874,615.793259989586
875,615.7849395706978
876,615.775517823683
877,615.765047820752
878,615.7535878666753
879,615.7412011929049
880,615.72795562752
881,615.7139232374707
882,615.6991799403165
883,615.6838050842694
884,615.6678809973968
885,615.6514925082286
886,615.6347264402607
887,615.6176710827546
888,615.6004156408
889,615.5830496688915
890,615.5656624934709
891,615.5483426303724
892,615.5311772027087
893,615.5142513636529
894,615.4976477272078
895,615.4814458089381
896,615.4657214782122
897,615.4505464240668
898,615.4359876384202
899,615.4221069224335
900,615.4089604231615
901,615.3965982074395
902,615.3850638787286
903,615.3743942414485
904,615.3646190165246
905,615.3557606112901
906,615.3478339464959
907,615.3408463430586
908,615.3347974712484
909,615.3296793650646
910,615.3254765042686
911,615.3221659657988
912,615.319717645113
913,615.3180945465342
914,615.3172531400886
915,615.3171437806973
916,615.3177111839602
917,615.3188949513141
918,615.3206301363572
