frame_number,force
0,780.9532270445739
1,780.9169269066962
2,780.8819116041418
3,780.8482327053636
4,780.8159407857643
5,780.7850853740548
6,780.7557148795072
7,780.7278764972702
8,780.7016160885282
9,780.6769780321418
10,780.6540050448741
11,780.632737968384
12,780.6132155224856
13,780.5954740252927
14,780.5795470819362
15,780.5654652449253
16,780.553255651088
17,780.5429416418922
18,780.5345423751902
19,780.5280724370056
20,780.5235414625246
21,780.5209537763785
22,780.5203080632643
23,780.5215970801847
24,780.5248074207001
25,780.5299193396747
26,780.5369066445711
27,780.5457366569283
28,780.5563702455906
29,780.5687619316318
30,780.5828600636747
31,780.5986070612776
32,780.6159397230656
33,780.63478959518
34,780.6550833943006
35,780.6767434781824
36,780.69968835575
37,780.723833228642
38,780.7490905565691
39,780.7753706393457
40,780.8025822085342
41,780.8306330214515
42,780.859430450356
43,780.888882060298
44,780.9188961703143
45,780.9493823938811
46,780.9802521555655
47,781.0114191817642
48,781.0427999642349
49,781.0743141953437
50,781.1058851733912
51,781.1374401754225
52,781.1689107941363
53,781.2002332352672
54,781.2313485720857
55,781.2622029541329
56,781.2927477680075
57,781.3229397493119
58,781.3527410467932
59,781.3821192418053
60,781.4110473278156
61,781.4395036552853
62,781.4674718466819
63,781.494940685085
64,781.521903978484
65,781.5483604007566
66,781.574313309389
67,781.599770539062
68,781.6247441692785
69,781.6492502636197
70,781.6733085786408
71,781.6969422424356
72,781.7201774060387
73,781.7430428737032
74,781.7655697195745
75,781.7877908984957
76,781.8097408582256
77,781.8314551593655
78,781.8529701078635
79,781.8743224034469
80,781.8955488059981
81,781.9166858206852
82,781.9377694015492
83,781.9588346724576
84,781.9799156640349
85,782.0010450654557
86,782.0222539906986
87,782.0435717597142
88,782.0650256954698
89,782.08664093766
90,782.1084402731715
91,782.130443982707
92,782.152669702834
93,782.1751323032227
94,782.1978437797512
95,782.2208131651029
96,782.2440464592478
97,782.2675465828347
98,782.2913133569418
99,782.3153435125112
100,782.3396307319464
101,782.3641657240905
102,782.38893633243
103,782.4139276749571
104,782.4391223127216
105,782.4645004430567
106,782.490040113185
107,782.5157174503383
108,782.5415069051506
109,782.5673815051877
110,782.5933131148223
111,782.619272696686
112,782.6452305696108
113,782.6711566589524
114,782.697020737104
115,782.7227926539001
116,782.7484425575873
117,782.7739411068326
118,782.799259673217
119,782.8243705326291
120,782.8492470436433
121,782.8738638112712
122,782.8981968347557
123,782.9222236380026
124,782.9459233812022
125,782.9692769526084
126,782.9922670401685
127,783.0148781832899
128,783.0370968054581
129,783.0589112288586
130,783.0803116726804
131,783.1012902372373
132,783.121840876213
133,783.1419593590563
134,783.1616432247926
135,783.180891727586
136,783.1997057740678
137,783.2180878532265
138,783.2360419609277
139,783.2535735217454
140,783.2706893103773
141,783.2873973742852
142,783.3037069590416
143,783.3196284378697
144,783.3351732464661
145,783.3503538233374
146,783.3651835550693
147,783.3796767258095
148,783.393848470988
149,783.4077147363793
150,783.4212922443321
151,783.4345984689909
152,783.4476516215728
153,783.4604706453243
154,783.473075218201
155,783.4854857603146
156,783.4977234429527
157,783.509810195922
158,783.5217687095852
159,783.5336224274212
160,783.5453955248549
161,783.5571128709728
162,783.5687999713801
163,783.5804828922073
164,783.5921881666325
165,783.6039426862245
166,783.6157735797054
167,783.6277080809953
168,783.6397733867486
169,783.6519965018633
170,783.6644040705092
171,783.6770221902937
172,783.6898762078174
173,783.7029904944266
174,783.7163882011539
175,783.7300909919659
176,783.7441187548438
177,783.7584892908299
178,783.773217981733
179,783.7883174377912
180,783.8037971274679
181,783.8196629927818
182,783.835917055027
183,783.852557017578
184,783.8695758748287
185,783.8869615388921
186,783.9046964977208
187,783.9227575189041
188,783.9411154120514
189,783.9597348600277
190,783.978574326833
191,783.9975860484316
192,784.0167161117203
193,784.0359046251366
194,784.0550859820614
195,784.0741892157797
196,784.0931384427168
197,784.1118533888128
198,784.1302499918827
199,784.1482410705626
200,784.1657370484788
201,784.1826467212999
202,784.1988780543971
203,784.2143389996136
204,784.2289383210083
205,784.2425864214232
206,784.2551961637856
207,784.2666836822431
208,784.2769691779542
209,784.285977693009
210,784.2936398543428
211,784.2998925784572
212,784.304679727529
213,784.3079527076477
214,784.3096709999506
215,784.3098026154688
216,784.3083244651549
217,784.3052226381021
218,784.3004925832644
219,784.2941391927886
220,784.2861767878786
221,784.2766290101032
222,784.2655286215779
223,784.252917216669
224,784.2388448469763
225,784.2233695615098
226,784.2065568652108
227,784.1884791005134
228,784.1692147578779
229,784.1488477222529
230,784.12746646338
231,784.1051631785479
232,784.0820328967586
233,784.0581725538245
234,784.0336800493086
235,784.0086532981198
236,783.9831892909251
237,783.9573831776987
238,783.9313273878978
239,783.9051107993304
240,783.8788179658213
241,783.8525284113276
242,783.8263159957647
243,783.8002483562751
244,783.7743864271955
245,783.7487840419492
246,783.7234876197773
247,783.6985359394714
248,783.6739600015283
249,783.6497829797543
250,783.6260202629396
251,783.6026795861089
252,783.5797612489665
253,783.5572584172972
254,783.5351575018665
255,783.5134386086237
256,783.4920760531957
257,783.471038931631
258,783.4502917386063
259,783.4297950241656
260,783.4095060802805
261,783.3893796483499
262,783.3693686379489
263,783.3494248461612
264,783.3294996665719
265,783.3095447779452
266,783.2895128043588
267,783.2693579402817
268,783.2490365352868
269,783.2285076339314
270,783.2077334671607
271,783.1866798926369
272,783.1653167826556
273,783.1436183593361
274,783.1215634771677
275,783.0991358529407
276,783.0763242428831
277,783.0531225661524
278,783.0295299725043
279,783.0055508508356
280,782.9811947754852
281,782.9564763888856
282,782.931415221662
283,782.9060354537179
284,782.8803656217597
285,782.8544382800785
286,782.8282896222929
287,782.8019590721336
288,782.7754888512626
289,782.7489235317153
290,782.722309579842
291,782.6956948976681
292,782.6691283667731
293,782.6426593993928
294,782.6163375012634
295,782.590211850495
296,782.5643308966373
297,782.5387419842154
298,782.5134910051091
299,782.4886220837897
300,782.4641772985276
301,782.4401964402945
302,782.4167168091013
303,782.3937730450074
304,782.3713969884844
305,782.3496175630735
306,782.3284606730457
307,782.3079491100555
308,782.2881024646948
309,782.2689370405111
310,782.250465769423
311,782.2326981289964
312,782.2156400635134
313,782.1992939114258
314,782.1836583414668
315,782.1687282991638
316,782.1544949653318
317,782.1409457282422
318,782.1280641712906
319,782.1158300782685
320,782.1042194590294
321,782.0932045991827
322,782.08275413789
323,782.0728331772913
324,782.0634034253217
325,782.0544233711131
326,782.0458484898085
327,782.0376314723977
328,782.0297224764454
329,782.022069394893
330,782.0146181416569
331,782.0073129536835
332,782.000096709267
333,781.9929112620937
334,781.9856977899442
335,781.9783971563143
336,781.9709502825166
337,781.9632985273851
338,781.9553840717336
339,781.9471503052259
340,781.9385422140709
341,781.9295067687497
342,781.9199933117542
343,781.9099539459256
344,781.8993439239499
345,781.8881220385583
346,781.8762510111927
347,781.8636978749948
348,781.8504343464894
349,781.8364371793156
350,781.8216884926304
351,781.8061760664897
352,781.7898935971763
353,781.7728409073894
354,781.7550241087911
355,781.7364557162664
356,781.7171547134557
357,781.6971465680418
358,781.6764631943454
359,781.6551428610617
360,781.6332300433056
361,781.6107752194731
362,781.5878346140441
363,781.5644698874081
364,781.5407477738127
365,781.5167396692734
366,781.4925211726263
367,781.4681715839528
368,781.4437733646682
369,781.4194115630705
370,781.3951732090945
371,781.3711466826604
372,781.3474210606021
373,781.3240854469915
374,781.3012282909916
375,781.2789366962729
376,781.2572957271435
377,781.2363877183207
378,781.2162915969437
379,781.1970822269218
380,781.1788297871129
381,781.1615991955798
382,781.1454495913497
383,781.1304338826152
384,781.1165983670779
385,781.1039824275482
386,781.0926183047959
387,781.082530949608
388,781.0737379561095
389,781.0662495782027
390,781.0600688303496
391,781.0551916726199
392,781.0516072776717
393,781.0492983743828
394,781.0482416600927
395,781.0484082717627
396,781.0497643060172
397,781.0522713782701
398,781.0558872112093
399,781.0605662426041
400,781.0662602420066
401,781.0729189256326
402,781.0804905587044
403,781.0889225350471
404,781.0981619251048
405,781.1081559857705
406,781.1188526280192
407,781.1302008405215
408,781.1421510686298
409,781.1546555482553
410,781.1676685936138
411,781.18114683734
412,781.1950494215539
413,781.209338139143
414,781.2239775254973
415,781.2389349018777
416,781.2541803722916
417,781.2696867763842
418,781.2854296018115
419,781.3013868607162
420,781.3175389355066
421,781.3338683987583
422,781.3503598111469
423,781.3669995003488
424,781.3837753229681
425,781.4006764108409
426,781.4176929027151
427,781.4348156624062
428,781.4520359852199
429,781.469345295556
430,781.4867348397806
431,781.5041953794372
432,781.521716890819
433,781.5392882780267
434,781.5568971075423
435,781.5745293724386
436,781.5921692931436
437,781.6097991594073
438,781.6273992156092
439,781.6449475896335
440,781.6624202645879
441,781.6797910924812
442,781.6970318491788
443,781.7141123300071
444,781.7310004847225
445,781.7476625890872
446,781.7640634485994
447,781.7801666289001
448,781.7959347073246
449,781.8113295406076
450,781.8263125444339
451,781.84084498108
452,781.8548882518068
453,781.868404190951
454,781.8813553589412
455,781.8937053318679
456,781.9054189857271
457,781.9164627737204
458,781.9268049948082
459,781.9364160510918
460,781.9452686906985
461,781.9533382322876
462,781.9606027678823
463,781.9670433425039
464,781.9726441109154
465,781.9773924727095
466,781.981279187209
467,781.984298469765
468,781.9864480709878
469,781.987729339991
470,781.9881472721615
471,781.987710541549
472,781.9864315174821
473,781.9843262641219
474,781.9814145204838
475,781.977719657374
476,781.9732686069285
477,781.968091760229
478,781.9622228290357
479,781.9556986689902
480,781.9485590633376
481,781.9408464679494
482,781.9326057201454
483,781.9238837155679
484,781.9147290590363
485,781.905191696582
486,781.8953225363825
487,781.8851730660733
488,781.874794973157
489,781.8642397741753
490,781.8535584571778
491,781.8428011412193
492,781.8320167564093
493,781.8212527479591
494,781.8105548070909
495,781.7999666306436
496,781.7895297106712
497,781.7792831556931
498,781.7692635456833
499,781.7595048224398
500,781.7500382158952
501,781.7408922060861
502,781.7320925200003
503,781.7236621617799
504,781.7156214735692
505,781.7079882230242
506,781.7007777123539
507,781.6940029027488
508,781.6876745473902
509,781.6818013259827
510,781.6763899734563
511,781.6714453947206
512,781.6669707567364
513,781.6629675501525
514,781.6594356160167
515,781.6563731374406
516,781.6537765998296
517,781.651640725737
518,781.6499583918786
519,781.6487205365256
520,781.6479160654166
521,781.647531763752
522,781.6475522211708
523,781.6479597760672
524,781.6487344851039
525,781.6498541230527
526,781.6512942171624
527,781.6530281193516
528,781.6550271186438
529,781.6572605950631
530,781.6596962144861
531,781.6623001620835
532,781.6650374104861
533,781.6678720179042
534,781.6707674507169
535,781.6736869238989
536,781.6765937511118
537,781.6794516954849
538,781.6822253130688
539,781.6848802831385
540,781.6873837213761
541,781.6897044727324
542,781.6918133811565
543,781.6936835341081
544,781.6952904805186
545,781.6966124210708
546,781.6976303694439
547,781.6983282831222
548,781.6986931628386
549,781.6987151206278
550,781.6983874174166
551,781.6977064716467
552,781.6966718405818
553,781.6952861762559
554,781.6935551588566
555,781.6914874113465
556,781.6890943996198
557,781.6863903221252
558,781.683391991787
559,781.6801187115869
560,781.6765921438209
561,781.6728361723714
562,781.6688767577399
563,781.6647417858187
564,781.6604609126823
565,781.656065408426
566,781.6515880030778
567,781.6470627367253
568,781.6425248141971
569,781.6380104625028
570,781.6335567879026
571,781.6292016295914
572,781.6249834079543
573,781.6209409661581
574,781.617113404021
575,781.6135399030165
576,781.6102595415437
577,781.6073111006405
578,781.6047328617045
579,781.6025623985845
580,781.6008363661497
581,781.5995902867364
582,781.5988583358551
583,781.598673129774
584,781.5990655194449
585,781.6000643965441
586,781.6016965175601
587,781.6039863510708
588,781.6069559519594
589,781.6106248644699
590,781.6150100540585
591,781.6201258664413
592,781.6259840112488
593,781.6325935671962
594,781.6399610055178
595,781.6480902283434
596,781.6569826184685
597,781.6666370965507
598,781.6770501814465
599,781.6882160496202
600,781.7001265906189
601,781.7127714572327
602,781.726138110634
603,781.740211862018
604,781.7549759127626
605,781.7704113948698
606,781.7864974130453
607,781.803211089921
608,781.8205276166774
609,781.8384203118434
610,781.8568606906312
611,781.8758185460478
612,781.8952620420247
613,781.9151578182679
614,781.9354711061517
615,781.9561658545301
616,781.9772048638565
617,781.9985499266693
618,782.0201619724556
619,782.0420012154894
620,782.0640273059124
621,782.0861994867511
622,782.108476761099
623,782.1308180729545
624,782.1531825026318
625,782.1755294747675
626,782.1978189746284
627,782.2200117669009
628,782.2420696104623
629,782.2639554627076
630,782.2856336676024
631,782.3070701225967
632,782.3282324209118
633,782.349089967393
634,782.3696140676963
635,782.389777991765
636,782.4095570133225
637,782.4289284273029
638,782.4478715465158
639,782.4663676777767
640,782.484400077182
641,782.5019538845775
642,782.5190160380452
643,782.5355751697604
644,782.5516214850126
645,782.5671466271474
646,782.5821435328039
647,782.5966062832564
648,782.6105299577979
649,782.6239104937804
650,782.6367445561843
651,782.6490294184395
652,782.6607628554791
653,782.6719430488546
654,782.6825685019553
655,782.6926379617623
656,782.7021503430367
657,782.7111046515621
658,782.719499904422
659,782.7273350466326
660,782.7346088645654
661,782.7413198975271
662,782.7474663493828
663,782.753046001972
664,782.758056131611
665,782.762493429949
666,782.7663539309958
667,782.7696329463448
668,782.7723250096676
669,782.7744238297247
670,782.7759222496685
671,782.7768122104509
672,782.7770847175522
673,782.7767298117128
674,782.7757365447128
675,782.7740929606366
676,782.771786082303
677,782.7688019021089
678,782.7651253765061
679,782.7607404237859
680,782.7556299259334
681,782.7497757368498
682,782.7431587006213
683,782.7357586843244
684,782.7275546301787
685,782.7185246319091
686,782.708646039937
687,782.6978955993428
688,782.6862496235109
689,782.6736842053494
690,782.6601754671457
691,782.6456998491424
692,782.6302344354366
693,782.6137573139632
694,782.596247965744
695,782.5776876777021
696,782.5580599730978
697,782.5373510535642
698,782.515550246547
699,782.4926504517372
700,782.4686485797087
701,782.443545975185
702,782.4173488165699
703,782.3900684836582
704,782.3617218870859
705,782.3323317550402
706,782.3019268738736
707,782.270542279467
708,782.2382193960866
709,782.205006119519
710,782.1709568415085
711,782.1361324132498
712,782.1006000472811
713,782.0644331593445
714,782.0277111535858
715,781.9905191553006
716,781.9529476958539
717,781.915092354738
718,781.877053363231
719,781.8389351722498
720,781.8008459847957
721,781.7628972523906
722,781.7252031354878
723,781.6878799289436
724,781.6510454540479
725,781.6148184181749
726,781.5793177425867
727,781.5446618591654
728,781.5109679783292
729,781.4783513330693
730,781.4469244073597
731,781.4167961601943
732,781.3880712583608
733,781.3608493315156
734,781.335224262557
735,781.3112835250206
736,781.2891075774605
737,781.2687693228355
738,781.2503336389507
739,781.2338569837666
740,781.2193870769622
741,781.2069626571978
742,781.1966133135256
743,781.1883593889808
744,781.1822119539497
745,781.1781728463333
746,781.1762347749664
747,781.1763814822716
748,781.1785879616156
749,781.1828207243371
750,781.1890381110898
751,781.1971906420889
752,781.2072214010799
753,781.219066448277
754,781.2326552583263
755,781.2479111806208
756,781.2647519205894
757,781.2830900408853
758,781.3028334802607
759,781.3238860861684
760,781.3461481561453
761,781.369516983431
762,781.393887403364
763,781.4191523379492
764,781.445203336571
765,781.4719311116116
766,781.4992260685947
767,781.5269788306373
768,781.5550807559757
769,781.583424445601
770,781.6119042366199
771,781.640416676468
772,781.668860973451
773,781.697139419765
774,781.7251577837379
775,781.7528256683898
776,781.7800568336395
777,781.80676948002
778,781.8328864929555
779,781.8583356483664
780,781.8830497818107
781,781.9069669237898
782,781.9300304034097
783,781.9521889219988
784,781.9733965979905
785,781.9936129842225
786,782.0128030586917
787,782.0309371899805
788,782.0479910794708
789,782.063945683833
790,782.078787122096
791,782.0925065710599
792,782.1051001511134
793,782.1165688024844
794,782.1269181502569
795,782.1361583550905
796,782.1443039450855
797,782.1513736226709
798,782.1573900394982
799,782.1623795328339
800,782.1663718188537
801,782.169399640847
802,782.1714983729192
803,782.1727055820185
804,782.1730605531812
805,782.1726037849704
806,782.1713764639675
807,782.1694199284616
808,782.1667751321395
809,782.1634821191963
810,782.1595795232768
811,782.1551041035473
812,782.1500903308298
813,782.1445700341532
814,782.1385721136227
815,782.1321223210106
816,782.1252431069496
817,782.1179535333767
818,782.1102692505096
819,782.1022025375815
820,782.0937624055028
821,782.0849547582144
822,782.0757826084014
823,782.0662463425112
824,782.0563440294919
825,782.046071767239
826,782.0354240603691
827,782.0243942227108
828,782.0129747980919
829,782.0011579936526
830,781.9889361207145
831,781.9763020388026
832,781.9632495987338
833,781.9497740810065
834,781.9358726264772
835,781.9215446577568
836,781.9067922913821
837,781.8916207414003
838,781.8760387137912
839,781.8600587885021
840,781.8436977828035
841,781.826977087155
842,781.8099229633734
843,781.7925667947053
844,781.77494527826
845,781.757100551835
846,781.7390802491304
847,781.7209374794112
848,781.702730729678
849,781.6845236893587
850,781.6663849996417
851,781.6483879316863
852,781.6306099993246
853,781.6131325119303
854,781.5960400722413
855,781.579420023165
856,781.5633618477508
857,781.5479565275743
858,781.5332958662351
859,781.5194717858875
860,781.5065756052717
861,781.4946973078099
862,781.4839248084008
863,781.4743432273718
864,781.4660341792174
865,781.4590750826351
866,781.4535384980576
867,781.4494914998056
868,781.4469950913277
869,781.4461036725786
870,781.4468645681274
871,781.449317623801
872,781.4534948789845
873,781.4594203206138
874,781.4671097226783
875,781.4765705719168
876,781.4878020773064
877,781.5007952587994
878,781.5155331099176
879,781.5319908291709
880,781.5501361162677
881,781.5699295297591
882,781.5913249025155
883,781.6142698104651
884,781.6387060889246
885,781.6645703898071
886,781.6917947717458
887,781.7203073137046
888,781.7500327414048
889,781.7808930553621
890,781.812808149813
891,781.8456964134093
892,781.8794753048363
893,781.9140618985786
894,781.9493733972587
895,781.9853276072851
896,782.0218433742883
897,782.0588409743785
898,782.0962424570922
899,782.1339719366292
900,782.1719558299238
901,782.2101230427614
902,782.2484051074346
903,782.2867362765508
904,782.3250535778378
905,782.363296834944
906,782.4014086597128
907,782.43933442212
908,782.4770222046977
909,782.514422748435
910,782.5514893967052
911,782.5881780431214
912,782.6244470887143
913,782.6602574131831
914,782.6955723634112
915,782.7303577596712
916,782.764581916734
917,782.7982156746172
