frame_number,force
0,780.9961765935457
1,780.9597168848368
2,780.9245819709844
3,780.8908245568704
4,780.8584941781432
5,780.8276371413579
6,780.7982964688713
7,780.7705118479511
8,780.7443195834453
9,780.7197525533225
10,780.6968401664566
11,780.6756083222306
12,780.6560793717745
13,780.6382720808572
14,780.6222015946443
15,780.6078794047909
16,780.5953133196919
17,780.5845074390613
18,780.5754621342459
19,780.5681740357683
20,780.5626360296876
21,780.5588372645266
22,780.5567631706892
23,780.5563954943201
24,780.5577123473583
25,780.5606882751418
26,780.5652943424078
27,780.5714982380384
28,780.5792643984712
29,780.5885541493503
30,780.5993258647346
31,780.6115351429582
32,780.6251349980317
33,780.6400760652393
34,780.6563068193163
35,780.6737738033218
36,780.6924218661344
37,780.7121944064735
38,780.7330336214324
39,780.7548807576201
40,780.7776763630226
41,780.8013605376609
42,780.8258731811496
43,780.8511542354003
44,780.8771439209632
45,780.9037829657691
46,780.9310128252465
47,780.9587758930048
48,780.9870157014509
49,781.0156771117787
50,781.0447064926802
51,781.0740518869585
52,781.1036631650942
53,781.1334921647972
54,781.1634928156568
55,781.1936212481306
56,781.2238358862835
57,781.2540975239788
58,781.2843693846432
59,781.3146171651762
60,781.344809064933
61,781.3749158008595
62,781.4049106097801
63,781.4347692386089
64,781.464469923017
65,781.4939933548967
66,781.5233226388017
67,781.5524432373956
68,781.581342905769
69,781.6100116143986
70,781.638441460627
71,781.6666265689754
72,781.6945629812446
73,781.7222485379565
74,781.7496827530035
75,781.7768666834298
76,781.803802796186
77,781.830494833517
78,781.8569476783615
79,781.8831672208441
80,781.9091602266783
81,781.9349342080508
82,781.9604972973434
83,781.9858581238775
84,782.0110256938044
85,782.0360092733092
86,782.0608182754281
87,782.0854621509375
88,782.109950283861
89,782.1342918920866
90,782.1584959334286
91,782.1825710173147
92,782.2065253222214
93,782.2303665190677
94,782.2541017009266
95,782.277737319586
96,782.3012791296135
97,782.3247321406818
98,782.3481005789686
99,782.3713878583908
100,782.3945965622411
101,782.4177284355072
102,782.4407843878594
103,782.4637645069758
104,782.4866680815719
105,782.5094936332616
106,782.5322389563012
107,782.5549011643244
108,782.5774767432812
109,782.5999616097912
110,782.6223511739737
111,782.644640405597
112,782.6668239023148
113,782.6888959589319
114,782.7108506370125
115,782.7326818345152
116,782.7543833553178
117,782.7759489784514
118,782.7973725266439
119,782.8186479335703
120,782.8397693091323
121,782.8607310021506
122,782.8815276599123
123,782.9021542840006
124,782.9226062818317
125,782.9428795134154
126,782.9629703330048
127,782.9828756254327
128,783.0025928370274
129,783.0221200011
130,783.0414557581196
131,783.0605993707934
132,783.0795507343248
133,783.0983103820809
134,783.1168794867691
135,783.1352598570547
136,783.1534539295081
137,783.1714647559484
138,783.1892959865237
139,783.2069518490196
140,783.2244371248196
141,783.2417571218438
142,783.2589176447794
143,783.2759249629412
144,783.2927857760425
145,783.309507178008
146,783.3260966188194
147,783.3425618643754
148,783.3589109545178
149,783.3751521596158
150,783.3912939362572
151,783.4073448826202
152,783.4233136939577
153,783.4392091183536
154,783.4550399126163
155,783.4708147979757
156,783.4865424152262
157,783.502231278946
158,783.5178897303655
159,783.5335258883468
160,783.5491475979367
161,783.5647623761197
162,783.5803773547417
163,783.5959992209138
164,783.6116341554836
165,783.6272877703431
166,783.6429650453949
167,783.6586702658449
168,783.6744069601484
169,783.6901778385799
170,783.7059847321939
171,783.7218285319476
172,783.7377091278621
173,783.7536253481951
174,783.7695748986125
175,783.7855543013515
176,783.8015588344256
177,783.8175824710188
178,783.8336178193035
179,783.8496560630098
180,783.865686903224
181,783.8816985021106
182,783.8976774295119
183,783.9136086137197
184,783.9294752981559
185,783.9452590061845
186,783.9609395166553
187,783.9764948528681
188,783.9919012873495
189,784.0071333642768
190,784.0221639408594
191,784.0369642486653
192,784.0515039756333
193,784.0657513691472
194,784.0796733600619
195,784.0932357070716
196,784.1064031603817
197,784.1191396432623
198,784.1314084496477
199,784.1431724554802
200,784.1543943411056
201,784.1650368218214
202,784.1750628836985
203,784.1844360219457
204,784.1931204793739
205,784.2010814829188
206,784.2082854766046
207,784.2147003495846
208,784.2202956578575
209,784.225042838008
210,784.2289154110174
211,784.2318891740076
212,784.2339423777626
213,784.2350558879326
214,784.2352133278608
215,784.2344012010168
216,784.2326089911847
217,784.2298292389014
218,784.2260575931288
219,784.22129283775
220,784.2155368930737
221,784.2087947929668
222,784.201074638377
223,784.1923875278799
224,784.1827474657496
225,784.1721712481083
226,784.1606783279923
227,784.1482906605111
228,784.135032529549
229,784.1209303576883
230,784.106012501249
231,784.0903090324966
232,784.0738515111586
233,784.0566727475134
234,784.0388065596056
235,784.0202875275314
236,784.0011507480068
237,783.9814315924688
238,783.9611654717916
239,783.940387610403
240,783.9191328321918
241,783.8974353600885
242,783.8753286307114
243,783.8528451251493
244,783.8300162168316
245,783.806872037412
246,783.7834413615079
247,783.7597515109602
248,783.7358282790981
249,783.711695875395
250,783.6873768907878
251,783.662892283677
252,783.6382613862213
253,783.6135019301347
254,783.5886300909227
255,783.5636605493179
256,783.5386065684813
257,783.5134800853067
258,783.4882918139834
259,783.4630513599291
260,783.4377673422142
261,783.412447522557
262,783.3870989387799
263,783.3617280404087
264,783.3363408240344
265,783.3109429662288
266,783.2855399521527
267,783.2601371983312
268,783.2347401683076
269,783.2093544800568
270,783.1839860042038
271,783.1586409523071
272,783.1333259547301
273,783.1080481278323
274,783.0828151303047
275,783.0576352084795
276,783.0325172304129
277,783.007470708426
278,782.98250580954
279,782.9576333530375
280,782.9328647944396
281,782.9082121955535
282,782.8836881807669
283,782.8593058802808
284,782.8350788613765
285,782.8110210491108
286,782.7871466380348
287,782.7634699966258
288,782.740005566129
289,782.7167677554454
290,782.6937708335781
291,782.6710288209777
292,782.6485553809783
293,782.6263637124555
294,782.6044664448085
295,782.5828755363432
296,782.5616021771065
297,782.5406566972623
298,782.5200484821182
299,782.4997858948485
300,782.4798762077784
301,782.4603255428119
302,782.4411388211907
303,782.4223197222597
304,782.403870650398
305,782.3857927089177
306,782.368085679669
307,782.3507480073386
308,782.3337767877932
309,782.3171677601365
310,782.3009153024002
311,782.2850124310795
312,782.2694508049927
313,782.2542207340548
314,782.2393111934649
315,782.2247098436798
316,782.2104030564822
317,782.1963759474554
318,782.1826124151656
319,782.1690951873924
320,782.1558058748521
321,782.1427250330036
322,782.1298322325858
323,782.1171061394037
324,782.1045246034977
325,782.0920647572962
326,782.0797031218547
327,782.0674157200164
328,782.055178195364
329,782.0429659360775
330,782.0307542031023
331,782.018518262209
332,782.0062335195395
333,781.9938756601587
334,781.9814207890148
335,781.9688455735726
336,781.9561273872395
337,781.9432444526168
338,781.9301759836181
339,781.9169023255989
340,781.9034050928057
341,781.8896673026147
342,781.8756735062018
343,781.8614099154199
344,781.8468645256756
345,781.8320272344048
346,781.8168899544185
347,781.8014467210285
348,781.7856937915908
349,781.769629735929
350,781.753255515981
351,781.7365745529792
352,781.7195927806395
353,781.7023186832535
354,781.6847633181306
355,781.6669403222444
356,781.6488659030069
357,781.63055881292
358,781.6120403076918
359,781.5933340875059
360,781.5744662214219
361,781.5554650551937
362,781.5363611029434
363,781.5171869231473
364,781.4979769794287
365,781.4787674868202
366,781.459596244456
367,781.440502455888
368,781.4215265382496
369,781.4027099214118
370,781.3840948382807
371,781.3657241075315
372,781.3476409101988
373,781.329888561522
374,781.31251027931
375,781.2955489500733
376,781.2790468943961
377,781.2630456333723
378,781.2475856582606
379,781.2327062058032
380,781.2184450419257
381,781.2048382566695
382,781.1919200730335
383,781.1797226718821
384,781.1682760344107
385,781.157607803122
386,781.147743162018
387,781.1387047366817
388,781.1305125149189
389,781.1231837885634
390,781.1167331168954
391,781.1111723118371
392,781.1065104446088
393,781.1027538729107
394,781.0999062871151
395,781.0979687735997
396,781.0969398932508
397,781.0968157731928
398,781.0975902097891
399,781.0992547808696
400,781.1017989650442
401,781.1052102658775
402,781.1094743386838
403,781.1145751177795
404,781.1204949422946
405,781.127214679069
406,781.1347138416721
407,781.1429707050034
408,781.1519624151655
409,781.1616650943218
410,781.1720539401306
411,781.1831033192439
412,781.1947868543778
413,781.2070775045859
414,781.2199476385673
415,781.233369101022
416,781.2473132722129
417,781.261751121014
418,781.2766532519238
419,781.2919899467515
420,781.3077312018086
421,781.3238467613622
422,781.3403061479313
423,781.3570786898116
424,781.3741335460484
425,781.3914397289385
426,781.4089661240747
427,781.4266815079736
428,781.4445545634708
429,781.4625538932946
430,781.4806480324706
431,781.4988054604083
432,781.5169946137175
433,781.5351839010256
434,781.5533417212503
435,781.5714364868033
436,781.5894366529626
437,781.6073107541979
438,781.6250274477344
439,781.6425555642551
440,781.6598641654559
441,781.6769226081348
442,781.6937006145417
443,781.7101683487255
444,781.7262964984819
445,781.7420563622176
446,781.7574199397013
447,781.7723600254775
448,781.7868503037035
449,781.8008654432853
450,781.8143811923239
451,781.8273744710042
452,781.8398234621388
453,781.8517076986512
454,781.8630081473325
455,781.8737072883054
456,781.8837891897257
457,781.8932395773171
458,781.9020458983048
459,781.9101973791982
460,781.9176850767049
461,781.9245019209586
462,781.9306427503684
463,781.9361043377695
464,781.9408854079337
465,781.9449866466965
466,781.9484107020205
467,781.9511621773519
468,781.9532476176346
469,781.9546754882674
470,781.9554561471954
471,781.955601810256
472,781.9551265098189
473,781.9540460465983
474,781.952377934292
475,781.9501413365042
476,781.9473569952655
477,781.9440471504427
478,781.9402354494518
479,781.9359468469715
480,781.9312074946982
481,781.9260446215475
482,781.9204864050599
483,781.9145618351308
484,781.9083005715265
485,781.9017327969124
486,781.8948890672261
487,781.8878001611864
488,781.8804969305803
489,781.8730101527625
490,781.8653703865707
491,781.8576078327021
492,781.8497521995496
493,781.8418325754777
494,781.8338773083983
495,781.8259138932868
496,781.8179688681674
497,781.8100677191594
498,781.8022347952475
499,781.7944932333397
500,781.7868648939482
501,781.7793703076394
502,781.7720286322874
503,781.7648576210009
504,781.757873600334
505,781.7510914581188
506,781.7445246400102
507,781.7381851536112
508,781.7320835788908
509,781.7262290835388
510,781.7206294418163
511,781.7152910552934
512,781.7102189737144
513,781.7054169144089
514,781.7008872792994
515,781.696631169409
516,781.692648397501
517,781.6889374999474
518,781.6854957492054
519,781.6823191683944
520,781.6794025494331
521,781.6767394760607
522,781.6743223529177
523,781.6721424417389
524,781.6701899055902
525,781.6684538619277
526,781.6669224450515
527,781.6655828783407
528,781.6644215564664
529,781.6634241375284
530,781.6625756447146
531,781.6618605766959
532,781.6612630256703
533,781.6607668017821
534,781.6603555624987
535,781.6600129453002
536,781.6597227017259
537,781.6594688306687
538,781.659235709003
539,781.6590082180775
540,781.6587718649855
541,781.6585128976892
542,781.6582184131582
543,781.6578764578474
544,781.6574761200013
545,781.6570076133262
546,781.6564623515426
547,781.6558330133416
548,781.6551135973796
549,781.6542994671439
550,781.6533873857387
551,781.6523755407648
552,781.6512635595309
553,781.6500525149073
554,781.6487449223263
555,781.6473447286576
556,781.6458572938095
557,781.6442893658493
558,781.6426490502447
559,781.6409457735508
560,781.6391902416183
561,781.6373943922857
562,781.6355713426186
563,781.6337353310234
564,781.6319016548454
565,781.6300866042235
566,781.628307392993
567,781.6265820872613
568,781.6249295319411
569,781.6233692751035
570,781.6219214897636
571,781.6206068927386
572,781.6194466604261
573,781.618462341516
574,781.6176757666923
575,781.6171089553675
576,781.6167840195496
577,781.6167230651537
578,781.6169480913459
579,781.6174808886685
580,781.6183429366382
581,781.619555301362
582,781.6211385337095
583,781.6231125688196
584,781.6254966280788
585,781.6283091249655
586,781.6315675761668
587,781.6352885192164
588,781.639487437601
589,781.6441786939014
590,781.6493754711331
591,781.6550897221227
592,781.6613321265409
593,781.6681120550971
594,781.6754375403549
595,781.6833152535919
596,781.6917504870692
597,781.7007471409719
598,781.7103077142016
599,781.7204332982304
600,781.7311235734195
601,781.7423768075151
602,781.7541898563551
603,781.7665581670478
604,781.7794757839723
605,781.7929353578803
606,781.8069281582871
607,781.8214440893549
608,781.8364717096133
609,781.8519982559503
610,781.8680096722192
611,781.884490642566
612,781.9014246293851
613,781.9187939156866
614,781.9365796515818
615,781.9547619045
616,781.9733197126462
617,781.9922311411469
618,782.0114733403128
619,782.0310226055743
620,782.0508544389766
621,782.0709436126099
622,782.0912642346657
623,782.1117898186628
624,782.1324933558825
625,782.1533473904756
626,782.1743240962523
627,782.1953953538664
628,782.2165328269789
629,782.2377080360145
630,782.2588924282533
631,782.2800574432039
632,782.3011745724937
633,782.322215413863
634,782.3431517191742
635,782.3639554366017
636,782.3845987473334
637,782.4050540971679
638,782.4252942232788
639,782.4452921762153
640,782.4650213371098
641,782.4844554301535
642,782.5035685305596
643,782.5223350683553
644,782.5407298284384
645,782.5587279475382
646,782.5763049090496
647,782.5934365370038
648,782.6100989904694
649,782.6262687594195
650,782.6419226627511
651,782.6570378489121
652,782.6715917994521
653,782.6855623355704
654,782.6989276273807
655,782.711666205284
656,782.7237569727278
657,782.7351792197703
658,782.745912637133
659,782.7559373306793
660,782.7652338364759
661,782.7737831367635
662,782.7815666772588
663,782.7885663861646
664,782.7947646951644
665,782.8001445626501
666,782.8046894995304
667,782.8083835979886
668,782.811211563353
669,782.8131587488563
670,782.81421119275
671,782.814355657226
672,782.8135796688624
673,782.8118715605846
674,782.8092205151833
675,782.8056166102978
676,782.8010508646
677,782.7955152848111
678,782.789002913161
679,782.7815078749794
680,782.7730254263062
681,782.763552001706
682,782.7530852627414
683,782.7416241477034
684,782.7291689232597
685,782.7157212386822
686,782.7012841832643
687,782.6858623473976
688,782.6694618875724
689,782.6520905953616
690,782.6337579702873
691,782.6144752962778
692,782.594255721134
693,782.5731143380674
694,782.551068268066
695,782.5281367416874
696,782.5043411788416
697,782.4797052651337
698,782.4542550233205
699,782.4280188784192
700,782.4010277149566
701,782.3733149247139
702,782.3449164431953
703,782.3158707731409
704,782.2862189937583
705,782.2560047547779
706,782.2252742546997
707,782.1940762026704
708,782.1624617634491
709,782.1304844849612
710,782.098200208031
711,782.0656669580586
712,782.0329448187708
713,782.0000957886498
714,781.9671836210415
715,781.9342736491514
716,781.901432597244
717,781.8687283794693
718,781.8362298876604
719,781.804006769107
720,781.7721291948884
721,781.7406676191737
722,781.7096925300351
723,781.6792741925551
724,781.6494823851075
725,781.6203861296137
726,781.5920534164784
727,781.564550924959
728,781.5379437400253
729,781.5122950672937
730,781.4876659482842
731,781.4641149788363
732,781.4416980338792
733,781.4204680018285
734,781.4004745317433
735,781.3817637961067
736,781.3643782717063
737,781.3483565406808
738,781.3337331133704
739,781.3205382741219
740,781.3087979506831
741,781.2985336073924
742,781.289762162126
743,781.2824959268456
744,781.2767425714554
745,781.2725051105167
746,781.2697819122159
747,781.2685667288347
748,781.2688487478259
749,781.2706126624539
750,781.2738387608456
751,781.2785030322461
752,781.2845772892703
753,781.2920293049901
754,781.3008229638174
755,781.3109184253548
756,781.3222723006121
757,781.3348378400092
758,781.3485651323268
759,781.3634013133851
760,781.3792907830068
761,781.3961754288758
762,781.4139948560941
763,781.4326866213977
764,781.4521864710898
765,781.4724285818903
766,781.4933458040709
767,781.5148699062644
768,781.536931821131
769,781.5594618907211
770,781.5823901100886
771,781.6056463676184
772,781.6291606806084
773,781.6528634247962
774,781.6766855566528
775,781.700558827348
776,781.7244159873673
777,781.7481909808796
778,781.7718191292199
779,781.7952373032216
780,781.8183840844464
781,781.8411999154717
782,781.8636272393387
783,781.8856106281766
784,781.9070969009898
785,781.9280352305965
786,781.9483772397135
787,781.968077086255
788,781.9870915381204
789,782.0053800380565
790,782.0229047593708
791,782.039630653196
792,782.0555254876938
793,782.0705598792083
794,782.0847073150663
795,782.0979441674664
796,782.1102496976241
797,782.1216060490511
798,782.131998228684
799,782.1414140747021
800,782.1498442102705
801,782.1572819829821
802,782.1637233903026
803,782.1691669917756
804,782.1736138091757
805,782.1770672162112
806,782.1795328197647
807,782.1810183349198
808,782.1815334561486
809,782.1810897271628
810,782.1797004121197
811,782.1773803710508
812,782.1741459422982
813,782.1700148342214
814,782.1650060275342
815,782.1591396887176
816,782.1524370944428
817,782.1449205668766
818,782.1366134198563
819,782.1275399158949
820,782.117725233757
821,782.1071954460482
822,782.0959775060303
823,782.0840992427179
824,782.0715893631921
825,782.0584774609727
826,782.0447940292091
827,782.0305704773888
828,782.0158391502998
829,782.0006333481032
830,781.9849873465313
831,781.9689364163353
832,781.9525168411683
833,781.9357659331563
834,781.9187220455589
835,781.9014245822179
836,781.883914003821
837,781.8662318311292
838,781.8484206450848
839,781.8305240831959
840,781.8125868309855
841,781.7946546068079
842,781.7767741380604
843,781.7589931268046
844,781.7413602029861
845,781.7239248637826
846,781.7067373980117
847,781.6898487949672
848,781.6733106374618
849,781.6571749792641
850,781.6414942075584
851,781.6263208914884
852,781.6117076181428
853,781.5977068173587
854,781.5843705765619
855,781.5717504467112
856,781.5598972404636
857,781.5488608238908
858,781.5386899033776
859,781.5294318095787
860,781.5211322804237
861,781.5138352451786
862,781.5075826115803
863,781.5024140580261
864,781.4983668326214
865,781.4954755606593
866,781.4937720620322
867,781.4932851802427
868,781.494040624939
869,781.4960608299992
870,781.4993648290748
871,781.5039681503254
872,781.5098827319212
873,781.5171168596429
874,781.5256751274427
875,781.5355584211728
876,781.5467639250471
877,781.5592851499408
878,781.5731119824386
879,781.5882307535798
880,781.6046243264253
881,781.6222722016796
882,781.6411506405194
883,781.6612328035615
884,781.6824889046565
885,781.7048863779632
886,781.7283900564788
887,781.7529623598858
888,781.7785634893102
889,781.8051516264546
890,781.8326831346517
891,781.861112759686
892,781.890393828677
893,781.9204784457171
894,781.9513176831888
895,781.9828617677424
896,782.0150602598561
897,782.0478622258105
898,782.0812164008713
899,782.1150713426285
900,782.1493755738264
901,782.184077714561
902,782.2191266041876
903,782.2544714135104
904,782.2900617478851
905,782.3258477419137
906,782.36178014651
907,782.3978104092845
908,782.4338907493313
909,782.4699742275567
910,782.5060148136188
911,782.5419674504369
912,782.5777881171485
913,782.6134338912865
914,782.6488630106552
915,782.6840349348566
916,782.7189104057915
