frame_number,force
0,780.9800273589732
1,780.9439096692845
2,780.908683080795
3,780.8744039864771
4,780.8411320235588
5,780.8089299987972
6,780.7778637616465
7,780.7480020177175
8,780.7194160737646
9,780.6921795049327
10,780.666367736046
11,780.6420575314061
12,780.6193263908256
13,780.598251852459
14,780.5789107056452
15,780.5613781205215
16,780.54572670593
17,780.5320255119422
18,780.5203389965441
19,780.5107259775374
20,780.5032385921581
21,780.4979212893787
22,780.4948098824154
23,780.4939306896898
24,780.4952997903098
25,780.4989224153567
26,780.5047924901417
27,780.5128923365158
28,780.5231925391564
29,780.5356519757638
30,780.5502180080791
31,780.5668268281664
32,780.5854039520693
33,780.6058648502783
34,780.6281157012559
35,780.652054251062
36,780.6775707599897
37,780.7045490169193
38,780.7328674034785
39,780.7623999915264
40,780.7930176578219
41,780.8245891993828
42,780.8569824332899
43,780.8900652665183
44,780.9237067245105
45,780.9577779304399
46,780.9921530297723
47,781.026710057189
48,781.0613317449971
49,781.0959062726754
50,781.1303279556839
51,781.1644978690882
52,781.1983243993953
53,781.2317237172468
54,781.2646201641563
55,781.2969465475367
56,781.3286443398856
57,781.3596637811332
58,781.389963887936
59,781.4195123788778
60,781.4482855284563
61,781.4762679640553
62,781.5034524184094
63,781.5298394464764
64,781.5554371118831
65,781.5802606450211
66,781.6043320722413
67,781.6276798129549
68,781.6503382388086
69,781.6723471873566
70,781.6937514235892
71,781.714600047689
72,781.734945855362
73,781.754844664346
74,781.7743546244047
75,781.7935355285668
76,781.8124481420929
77,781.8311535630382
78,781.8497126245437
79,781.8681853450233
80,781.8866304289543
81,781.9051048178559
82,781.9236632882164
83,781.9423580910961
84,781.9612386274383
85,781.9803511538806
86,781.9997385158099
87,782.0194399066979
88,782.0394906541909
89,782.0599220331144
90,782.0807611038692
91,782.102030573096
92,782.1237486732721
93,782.1459290593613
94,782.1685807231692
95,782.1917079286836
96,782.2153101738384
97,782.239382185956
98,782.2639139594037
99,782.288890843851
100,782.3142936895179
101,782.3400990527126
102,782.3662794615923
103,782.3928037385878
104,782.4196373724666
105,782.4467429304636
106,782.4740805003236
107,782.5016081533496
108,782.5292824212627
109,782.5570587800878
110,782.5848921326702
111,782.6127372789936
112,782.6405493627324
113,782.6682842850486
114,782.6958990816679
115,782.723352264181
116,782.7506041290762
117,782.7776170374967
118,782.8043556660743
119,782.8307872265273
120,782.8568816508374
121,782.8826117395869
122,782.9079532717348
123,782.9328850738739
124,782.9573890468515
125,782.9814501486667
126,783.0050563343508
127,783.0281984550278
128,783.0508701193698
129,783.0730675217188
130,783.0947892424341
131,783.1160360271203
132,783.1368105517397
133,783.15711717981
134,783.1769617158246
135,783.1963511565413
136,783.2152934408696
137,783.2337972009965
138,783.2518715205931
139,783.2695257074264
140,783.2867690865469
141,783.3036108185013
142,783.3200597464919
143,783.336124276334
144,783.3518122919285
145,783.3671311066446
146,783.3820874488074
147,783.3966874790399
148,783.4109368390014
149,783.4248407337678
150,783.4384040518462
151,783.4516315267178
152,783.4645279417181
153,783.4770983762493
154,783.4893484871207
155,783.5012848161306
156,783.5129151142797
157,783.5242486727611
158,783.5352966497856
159,783.5460723808081
160,783.5565916594169
161,783.5668729782907
162,783.5769377238043
163,783.5868103222859
164,783.5965183393901
165,783.606092536402
166,783.6155668880073
167,783.6249785641166
168,783.6343678740403
169,783.6437781668301
170,783.653255679194
171,783.6628493225824
172,783.6726104027363
173,783.6825922664549
174,783.6928498709017
175,783.7034392711768
176,783.7144170230446
177,783.7258394994013
178,783.7377621206742
179,783.7502385010501
180,783.7633195149078
181,783.7770522911761
182,783.7914791473353
183,783.8066364797629
184,783.8225536334556
185,783.8392517810787
186,783.8567428468401
187,783.8750285124936
188,783.894099339596
189,783.913934035609
190,783.9344988853481
191,783.955747365722
192,783.9776199591329
193,784.0000441768149
194,784.0229347976
195,784.0461943216983
196,784.0697136340199
197,784.0933728669922
198,784.117042447838
199,784.1405843096242
200,784.1638532404802
201,784.1866983429662
202,784.2089645758293
203,784.2304943524218
204,784.251129173605
205,784.2707112780566
206,784.2890852981692
207,784.3060999126737
208,784.3216094862964
209,784.335475683077
210,784.3475690356216
211,784.3577704495989
212,784.3659726219047
213,784.3720813510387
214,784.3760167179659
215,784.37771411549
216,784.377125105486
217,784.3742180869194
218,784.3689787631106
219,784.3614104035152
220,784.3515339021196
221,784.3393876392786
222,784.3250271547257
223,784.3085246370549
224,784.2899682322671
225,784.2694611739851
226,784.2471207407832
227,784.2230770496947
228,784.1974716978687
229,784.1704562666947
230,784.1421907049277
231,784.1128416089365
232,784.0825804189334
233,784.0515815513496
234,784.0200204910344
235,783.988071871807
236,783.9559075773768
237,783.9236948951005
238,783.8915947529784
239,783.8597600667498
240,783.8283342190439
241,783.7974496864139
242,783.7672268241572
243,783.7377728151499
244,783.7091807880088
245,783.6815291101583
246,783.6548808609379
247,783.6292834883349
248,783.6047686514096
249,783.5813522498868
250,783.5590346417638
251,783.5378010473191
252,783.5176221334816
253,783.4984547681231
254,783.4802429311229
255,783.462918767544
256,783.4464037665207
257,783.430610047194
258,783.4154417314088
259,783.4007963828669
260,783.3865664932442
261,783.3726409956222
262,783.3589067836904
263,783.3452502128417
264,783.3315585587746
265,783.3177214117457
266,783.3036319892116
267,783.2891883540489
268,783.2742945286412
269,783.2588614972505
270,783.2428080911261
271,783.2260617533882
272,783.208559183809
273,783.1902468660965
274,783.1710814810683
275,783.151030208734
276,783.130070921498
277,783.1081922686637
278,783.0853936486985
279,783.0616850624756
280,783.0370868408662
281,783.0116292441278
282,782.9853519366557
283,782.9583033466274
284,782.9305399246645
285,782.9021253188204
286,782.8731294851613
287,782.8436277538522
288,782.8136998701203
289,782.7834290281293
290,782.752900913681
291,782.7222027689248
292,782.6914224899053
293,782.660647766537
294,782.6299652739299
295,782.5994599232306
296,782.5692141796629
297,782.5393074556639
298,782.5098155871548
299,782.4808104000025
300,782.4523593713755
301,782.4245253870944
302,782.3973665909944
303,782.37093631587
304,782.3452830790732
305,782.3204506214106
306,782.2964779675207
307,782.2733994893599
308,782.2512449595454
309,782.230039585752
310,782.2098040211142
311,782.1905543497334
312,782.1723020504264
313,782.1550539437937
314,782.1388121271245
315,782.1235739005248
316,782.1093316875305
317,782.0960729540251
318,782.0837801298796
319,782.0724305387746
320,782.0619963436891
321,782.052444518008
322,782.0437368536087
323,782.0358300161504
324,782.0286756534847
325,782.0222205567354
326,782.0164068677124
327,782.0111723234226
328,782.0064505293115
329,782.0021712564755
330,781.9982607622394
331,781.9946421360838
332,781.9912356734225
333,781.9879592789733
334,781.9847289001983
335,781.9814589896213
336,781.9780629930985
337,781.9744538599941
338,781.9705445713
339,781.9662486830337
340,781.9614808841544
341,781.9561575702057
342,781.9501974358126
343,781.9435220906021
344,781.9360567029025
345,781.9277306727915
346,781.9184783312672
347,781.9082396571886
348,781.8969609995613
349,781.8845957898749
350,781.8711052270405
351,781.8564589163965
352,781.840635445653
353,781.8236228853843
354,781.8054192080352
355,781.7860326239114
356,781.7654818328197
357,781.7437961869371
358,781.7210157577643
359,781.6971913004504
360,781.6723841119008
361,781.6466657822732
362,781.6201178407721
363,781.5928312962828
364,781.5649060731984
365,781.5364503444636
366,781.507579767142
367,781.4784166283396
368,781.4490889093245
369,781.4197292742858
370,781.3904739899496
371,781.3614617838646
372,781.332832650689
373,781.304726615358
374,781.2772824602795
375,781.2506364235193
376,781.2249208778975
377,781.2002630056403
378,781.1767834876961
379,781.1545952308511
380,781.1338021596268
381,781.1144981020713
382,781.0967657967088
383,781.0806760417389
384,781.0662869994851
385,781.0536436627114
386,781.0427774868366
387,781.0337061922702
388,781.026433741688
389,781.0209504968348
390,781.0172335581321
391,781.0152472873111
392,781.0149440077479
393,781.0162648698536
394,781.0191408619944
395,781.0234939434118
396,781.0292382749375
397,781.0362815241427
398,781.044526221896
399,781.053871146685
400,781.0642127121499
401,781.0754463326593
402,781.0874677417954
403,781.1001742400018
404,781.1134658511849
405,781.1272463738175
406,781.1414243187494
407,781.1559137315153
408,781.1706348999733
409,781.1855149483131
410,781.200488316944
411,781.2154971263726
412,781.2304914232211
413,781.2454293081048
414,781.2602769474092
415,781.2750084732116
416,781.2896057771835
417,781.3040582057137
418,781.3183621657453
419,781.3325206535828
420,781.3465427201976
421,781.3604428853696
422,781.374240510439
423,781.3879591367488
424,781.4016257943877
425,781.4152702838819
426,781.428924432402
427,781.4426213261964
428,781.4563945226229
429,781.4702772479756
430,781.4843015902597
431,781.4984976985488
432,781.5128930030123
433,781.5275114725148
434,781.5423729290695
435,781.5574924386785
436,781.5728797950441
437,781.58853910685
438,781.6044684929093
439,781.6206598846464
440,781.6370989330446
441,781.6537650168988
442,781.6706313498946
443,781.6876651843066
444,781.7048281075811
445,781.7220764244131
446,781.7393616127214
447,781.756630839442
448,781.7738275220706
449,781.7908919234574
450,781.8077617692513
451,781.8243728789938
452,781.8406598030464
453,781.8565564584237
454,781.8719967574231
455,781.8869152241016
456,781.9012475949919
457,781.9149314012069
458,781.9279065286713
459,781.9401157516318
460,781.951505232318
461,781.9620249781852
462,781.971629249686
463,781.9802769160722
464,781.9879317614187
465,781.9945627453927
466,782.0001442238413
467,782.0046561344916
468,782.0080841528178
469,782.0104198218645
470,782.0116606582209
471,782.01181023514
472,782.010878242402
473,782.0088805200602
474,782.0058390600279
475,782.0017819664982
476,781.996743364085
477,781.9907632418685
478,781.983887222838
479,781.9761662514677
480,781.9676561964003
481,781.9584173695413
482,781.9485139671763
483,781.9380134431177
484,781.9269858281084
485,781.9155030128807
486,781.9036380135125
487,781.8914642370078
488,781.8790547630009
489,781.8664816546915
490,781.8538153091366
491,781.8411238549306
492,781.828472604715
493,781.8159235697746
494,781.8035350424421
495,781.791361249406
496,781.7794520776386
497,781.7678528756271
498,781.7566043337446
499,781.7457424465005
500,781.7352985566828
501,781.7252994792875
502,781.715767701934
503,781.7067216566286
504,781.6981760547519
505,781.69014227397
506,781.6826287828968
507,781.6756415868297
508,781.669184676264
509,781.6632604593733
510,781.6578701589788
511,781.6530141526692
512,781.6486922332618
513,781.6449037694474
514,781.6416477550014
515,781.6389227463483
516,781.6367266980158
517,781.6350567119684
518,781.6339087207189
519,781.6332771259952
520,781.6331544146507
521,781.6335307721085
522,781.6343937120175
523,781.6357277395076
524,781.6375140642069
525,781.6397303774095
526,781.6423507054594
527,781.6453453491554
528,781.6486809167851
529,781.6523204553499
530,781.6562236801667
531,781.6603472982466
532,781.6646454170351
533,781.669070027778
534,781.6735715509675
535,781.6780994283574
536,781.6826027420678
537,781.6870308392126
538,781.6913339429433
539,781.6954637364468
540,781.6993739111778
541,781.7030206725507
542,781.7063631972659
543,781.7093640382523
544,781.7119894750799
545,781.7142098081297
546,781.7159995941486
547,781.7173378205957
548,781.7182080173014
549,781.7185983061827
550,781.7185013921118
551,781.7179144993773
552,781.7168392584654
553,781.7152815485491
554,781.7132513031154
555,781.7107622886344
556,781.7078318673344
557,781.704480754066
558,781.7007327742815
559,781.6966146262519
560,781.6921556470217
561,781.6873875797655
562,781.6823443411364
563,781.6770617902887
564,781.6715775045182
565,781.665930568308
566,781.6601613824722
567,781.654311497734
568,781.6484234723531
569,781.6425407478287
570,781.6367075332171
571,781.630968688844
572,781.6253696026739
573,781.6199560546434
574,781.6147740647285
575,781.6098697202539
576,781.6052889786824
577,781.6010774448241
578,781.5972801249958
579,781.5939411627588
580,781.5911035602278
581,781.5888088871477
582,781.5870969799518
583,781.5860056362443
584,781.585570314993
585,781.5858238561623
586,781.5867962339951
587,781.5885143562012
588,781.5910019177867
589,781.5942793135752
590,781.5983636085437
591,781.6032685611656
592,781.6090046924988
593,781.6155793925692
594,781.6229970552752
595,781.6312592329739
596,781.6403648014266
597,781.6503101248104
598,781.6610892097644
599,781.6726938381394
600,781.6851136709355
601,781.6983363202374
602,781.7123473903663
603,781.7271304927489
604,781.742667240366
605,781.758937227087
606,781.7759179962228
607,781.7935850031034
608,781.8119115784947
609,781.8308689010943
610,781.8504259863289
611,781.8705496958454
612,781.8912047695625
613,781.9123538807967
614,781.9339577140538
615,781.9559750639278
616,781.9783629523415
617,782.0010767605118
618,782.0240703719195
619,782.0472963240678
620,782.0707059711323
621,782.0942496658497
622,782.1178769729395
623,782.1415369244029
624,782.1651783203686
625,782.18875007161
626,782.2122015738283
627,782.2354830997803
628,782.2585461934956
629,782.2813440509474
630,782.3038318729797
631,782.3259671786913
632,782.3477100709462
633,782.3690234498973
634,782.3898731743701
635,782.410228173908
636,782.430060516152
637,782.449345434601
638,782.4680613200584
639,782.4861896762021
640,782.5037150381447
641,782.5206248536971
642,782.5369093289123
643,782.5525612407333
644,782.5675757205821
645,782.5819500151111
646,782.5956832343996
647,782.6087761014754
648,782.6212307172788
649,782.6330503516716
650,782.644239266519
651,782.6548025738105
652,782.6647461298222
653,782.6740764632713
654,782.682800730768
655,782.6909266886615
656,782.6984626689778
657,782.7054175490022
658,782.711800707573
659,782.7176219646173
660,782.7228915033669
661,782.7276197771407
662,782.7318174039652
663,782.7354950520117
664,782.7386633177176
665,782.7413325984973
666,782.743512963441
667,782.7452140260662
668,782.7464448208443
669,782.74721368063
670,782.7475281084719
671,782.7473946375186
672,782.7468186765391
673,782.7458043425161
674,782.7443542828928
675,782.7424694886714
676,782.7401490977877
677,782.7373901872652
678,782.7341875527688
679,782.7305334755522
680,782.726417479807
681,782.721826087575
682,782.7167425821494
683,782.7111467931711
684,782.705014917635
685,782.6983193913351
686,782.6910288248073
687,782.6831080162291
688,782.6745180512185
689,782.6652164969651
690,782.6551576960803
691,782.6442931631369
692,782.6325720830936
693,782.6199419061165
694,782.6063490292386
695,782.5917395530372
696,782.576060100862
697,782.5592586879159
698,782.5412856269645
699,782.522094456811
700,782.5016428785898
701,782.4798936827542
702,782.4568156474415
703,782.4323843894354
704,782.4065831529881
705,782.379403526606
706,782.3508460805609
707,782.3209209181383
708,782.2896481331072
709,782.2570581656902
710,782.2231920496445
711,782.188101544623
712,782.1518491517878
713,782.1145080160541
714,782.0761617226887
715,782.0369039978216
716,781.9968383231947
717,781.9560774760357
718,781.9147430033388
719,781.8729646347348
720,781.830879632168
721,781.7886320717731
722,781.7463720546218
723,781.7042548456469
724,781.662439940931
725,781.6210900622493
726,781.5803700762642
727,781.5404458363042
728,781.5014829484069
729,781.4636454701861
730,781.4270945596498
731,781.3919870988822
732,781.3584743223375
733,781.3267004807842
734,781.2968015705792
735,781.2689041548206
736,781.243124298555
737,781.2195666354299
738,781.1983235783044
739,781.1794746808331
740,781.1630861510481
741,781.1492105132517
742,781.1378864122858
743,781.1291385535097
744,781.1229777710379
745,781.1194012156445
746,781.1183926526867
747,781.1199228595016
748,781.1239501107902
749,781.1304207395771
750,781.1392697608457
751,781.150421545178
752,781.1637905306306
753,781.1792819625418
754,781.1967926533388
755,781.216211758008
756,781.2374215644992
757,781.2602982993591
758,781.2847129461842
759,781.3105320701543
760,781.3376186395465
761,781.365832836294
762,781.3950328505729
763,781.4250756566953
764,781.4558177691391
765,781.4871159795861
766,781.5188280780671
767,781.5508135616928
768,781.582934331747
769,781.6150553753741
770,781.6470454242865
771,781.6787775815175
772,781.7101299079618
773,781.740985962003
774,781.7712352868415
775,781.8007738407942
776,781.8295043662038
777,781.8573366936828
778,781.8841879812154
779,781.9099828917675
780,781.934653716475
781,781.9581404512533
782,781.9803908332065
783,782.0013603414031
784,782.021012165463
785,782.0393171447191
786,782.0562536800887
787,782.0718076209499
788,782.0859721313434
789,782.0987475430837
790,782.1101412052043
791,782.1201673375054
792,782.1288468913385
793,782.136207415303
794,782.1422829189439
795,782.1471137237684
796,782.150746286889
797,782.1532329784343
798,782.1546317914649
799,782.1550059643794
800,782.1544235006857
801,782.1529565777502
802,782.1506808427944
803,782.1476746002514
804,782.1440179000101
805,782.1397915415474
806,782.1350760139577
807,782.1299503953466
808,782.1244912369538
809,782.1187714591658
810,782.1128592893501
811,782.1068172739944
812,782.1007013969448
813,782.0945603291656
814,782.088434824208
815,782.0823572622735
816,782.0763513395366
817,782.0704318991081
818,782.0646049019565
819,782.0588675362833
820,782.053208461409
821,782.0476081788984
822,782.0420395211072
823,782.0364682457226
824,782.0308537237647
825,782.0251497076358
826,782.0193051650566
827,782.0132651643415
828,782.0069717970817
829,782.0003651261362
830,781.9933841489965
831,781.9859677681176
832,781.9780557606623
833,781.969589740947
834,781.9605141107855
835,781.9507769966089
836,781.9403311763315
837,781.9291350003241
838,781.9171533075604
839,781.9043583309893
840,781.8907305780374
841,781.8762596654185
842,781.8609450835585
843,781.8447968651783
844,781.8278361344911
845,781.8100955172387
846,781.7916193965482
847,781.7724640046031
848,781.7526973449494
849,781.7323989449858
850,781.7116594433029
851,781.6905800216756
852,781.6692716947805
853,781.6478544705623
854,781.6264563915844
855,781.6052124654972
856,781.5842634929195
857,781.5637548035396
858,781.5438349148283
859,781.524654130739
860,781.5063630990576
861,781.489111346218
862,781.4730458085049
863,781.4583093780957
864,781.4450394802353
865,781.4333666949949
866,781.423413436323
867,781.4152927035864
868,781.4091069243981
869,781.4049469091933
870,781.4028909370257
871,781.4030039902214
872,781.4053371540091
873,781.4099271946891
874,781.4167963244447
875,781.4259521530873
876,781.4373878193633
877,781.4510822892215
878,781.4670008065552
879,781.4850954831803
880,781.5053060176995
881,781.5275605349689
882,781.5517765375388
883,781.5778619582297
884,781.6057163004555
885,781.6352318504612
886,781.6662949426611
887,781.6987872557107
888,781.7325871139363
889,781.7675707675429
890,781.8036136264446
891,781.8405914268175
892,781.8783813154607
893,781.9168628425018
894,781.9559188561218
895,781.9954362938138
896,782.0353068640426
897,782.0754276109974
898,782.1157013546614
899,782.1560370002599
900,782.196349716075
901,782.2365609854158
902,782.2765985443037
903,782.3163962191826
904,782.3558936794177
905,782.3950361195854
906,782.433773887608
907,782.4720620764476
908,782.5098600985222
909,782.5471312622321
910,782.5838423686596
911,782.6199633446107
912,782.6554669266677
913,782.6903284090507
914,782.7245254638442
915,782.7580380348227
916,782.7908482976039
917,782.8229406722778
