acceleration,velocity,displacement
0.19140269952284863,0.0,0.0
0.18504958915553202,0.00018822614433919034,9.411307216959517e-08
0.1788514180337175,0.0003701766479338151,3.7331446830609786e-07
0.1729520522273584,0.0005460783830643531,8.314419838051819e-07
0.167474975290297,0.0007162918968231808,1.4626271237489489e-06
0.16251685735630408,0.0008812878131464814,2.26141697873378e-06
0.15814424047275405,0.0010416183620610105,3.2228700663375263e-06
0.15439291349023648,0.0011978869390425059,4.342622716889284e-06
0.1512692250240315,0.00135071800829964,5.616925190560357e-06
0.14875248935366303,0.0015007288654884873,7.04264862745442e-06
0.14679770956025762,0.0016485039649454477,8.617265042671388e-06
0.1453381232991263,0.0017945718813751398,1.0338802965831682e-05
0.14428757417675317,0.0019393847301130795,1.2205781271575792e-05
0.1435432446463443,0.002083300139524628,1.4217123706394645e-05
0.14298954536601077,0.0022265665345308056,1.6372057043422362e-05
0.14250373788502366,0.0023693131761563227,1.8669996898765927e-05
0.14196326751304789,0.0025115466788553586,2.1110426826271768e-05
0.1412541471535582,0.0026531553861886617,2.3692777858793778e-05
0.14027938967926865,0.002793922154605075,2.6416316629190646e-05
0.13896650030937427,0.0029335450995993965,2.9280050256292882e-05
0.13727325525130457,0.0030716649773797357,3.2282655294782447e-05
0.13519123676603503,0.0032078972233884053,3.542243639516652e-05
0.13274673294573391,0.0033418662082442896,3.869731811098287e-05
0.12999860497508867,0.003473238877204701,4.210487065370736e-05
0.1270327935069666,0.0036017545764457284,4.564236738053258e-05
0.12395357316230099,0.0037272477597803623,4.930686854864562e-05
0.1208723920227481,0.0038496607423728867,5.309532279972225e-05
0.11789573284714751,0.003969044804807835,5.700467557331261e-05
0.11511365580375556,0.004085549499133286,6.103197272528317e-05
0.11259060961705894,0.004199401631843693,6.517444829077166e-05
0.11035982124797562,0.00431087684727621,6.942958753033161e-05
0.10842205858008093,0.004420267787190239,7.379515984756484e-05
0.10674881773900505,0.0045278532253497815,7.826922035383485e-05
0.10528915315577499,0.004633872210797171,8.285008307190833e-05
0.10397864870846023,0.004738506111729289,8.753627223317156e-05
0.10274866589005259,0.004841869769028545,9.232646017355048e-05
0.10153416626173392,0.004944011185104439,9.721940065061698e-05
0.10027898797092182,0.005044917762220767,0.00010221386512427958
0.09893813988513589,0.005144526326148795,0.00010730858716846436
0.09747722522904802,0.005242734008705887,0.0001125022173358917
0.09586953377694439,0.0053394073882088834,0.00011779328803434909
0.09409175009733195,0.005434388030146022,0.00012318018574352654
0.09211955184495481,0.005527493681117166,0.00012866112659915813
0.08992442317031776,0.005618515668624802,0.0001342341312740291
0.08747270036067181,0.0057072142303902975,0.00013989699622353667
0.08472725679690209,0.005793314208969084,0.00014564726044321636
0.0816514465569229,0.005876503560645997,0.0001514821693280239
0.07821423393149975,0.005956436400890208,0.000157398639308792
0.07439519744690982,0.006032741116579413,0.00016339322806752682
0.07018844140650683,0.006105032936006121,0.0001694621150938196
0.0656051185948743,0.006172929716006812,0.00017560109641982606
0.060674783040791914,0.0062360696668246444,0.0001818055961112418
0.055445841985379114,0.00629412997933773,0.00018807069593432298
0.049985133946507936,0.0063468454673036735,0.00019439118365764367
0.044376496889786274,0.0063940262827218205,0.00020076161953265642
0.03871814667676584,0.006435573604505096,0.00020717641947626988
0.03311860508368327,0.006471491980385321,0.0002136299522687151
0.02769091589431309,0.006501896740874319,0.00022011664662934492
0.022545189666429526,0.006527014793654691,0.00022663110239660943
0.017780041145847924,0.00654717740906083,0.00023316819849796718
0.01347393796517161,0.00656280439861634,0.00023972318940180577
0.00967761207738364,0.006574380173637618,0.00024629178168793274
0.006408401787334533,0.006582423180569977,0.0002528701833650365
0.0036469533194599993,0.006587450858123374,0.0002594551203843832
0.0013365974060993663,0.006589942633486154,0.00026604381713018794
-0.0006140394538033055,0.0065903039124623015,0.0002726339404031622
-0.002324638965994083,0.006588834573252403,0.00027922350964601955
-0.003933170969356729,0.006585705668284728,0.00028581077976678814
-0.0055834508345923035,0.006580947357382753,0.0002923941062796219
-0.007412128741868096,0.006574449567594523,0.00029897180474211055
-0.009536994367398487,0.00656597500603989,0.00030554201702892776
-0.012048134528963523,0.006555182441591709,0.00031210259575274355
-0.015002913017219562,0.006541656917818618,0.0003186510154324487
-0.018424906752812286,0.006524943007933602,0.00032518431539532483
-0.02230598365780439,0.006504577562728294,0.0003316990756806558
-0.026610089310343886,0.0064801195262442195,0.00033819142422514205
-0.03127741552493899,0.006451175773826578,0.00034465707187517747
-0.036228392800097535,0.00641742286966406,0.0003510913711969228
-0.04136776536500616,0.0063786247905815085,0.0003574893950270456
-0.04658924685297911,0.006334646284472516,0.0003638460305645726
-0.0517809394241249,0.006285461191333964,0.0003701560843024758
-0.05683131878969152,0.006231155062227056,0.00037641439242925635
-0.0616354374455689,0.006171921684109426,0.0003826159308024246
-0.06610105745676813,0.006108053436658257,0.00038875591836280845
-0.07015457776330211,0.006039925619048221,0.0003948299078906617
-0.07374664295401766,0.005967975008689562,0.0004008338582045306
-0.07685698921179311,0.0058926731926066565,0.0004067641823051787
-0.07949758778779398,0.0058144959041068625,0.0004126177668535355
-0.08171298826105287,0.005733890616082439,0.00041839196011363015
-0.0835771422195526,0.005651245550842136,0.00042408452819709243
-0.08518666734090737,0.005566863646061906,0.00042969358279554444
-0.08665122518469988,0.005480944699799103,0.00043521748696847493
-0.08808229087324945,0.005393577941770128,0.00044065474828925956
-0.08958192943568613,0.0053047458316156605,0.00044600391017595245
-0.09123310223941233,0.005214338315778111,0.00045126345224964933
-0.09309254329164718,0.005122175493012581,0.00045643170915404466
-0.09518664048738538,0.005028035901123064,0.00046150681485111246
-0.09751029846237,0.0049316874316481865,0.00046648667651749806
-0.10002851055965305,0.004832918027137175,0.0004713689792468907
-0.1026802938415146,0.004731563624936591,0.0004761512200729276
-0.10538473448760212,0.004627531110772032,0.00048083076744078195
-0.10804902961860212,0.00452081422871893,0.00048540494011052745
-0.11057829886374575,0.004411500564477756,0.0004898710975071258
-0.112886407866665,0.004299768211112551,0.0004942267318949209
-0.11490636088462702,0.0041858718267369045,0.0004984695519138457
-0.11659848097785463,0.004070119405805664,0.000502597547530117
-0.1179548654833812,0.003952842732575046,0.0005066090285993074
-0.11899939858189686,0.0038343656005424063,0.0005105026327658661
-0.11978367621606921,0.0037149740631434234,0.000514277302597709
-0.12038013455859864,0.0035948921577560896,0.0005179322357081587
-0.12087399227088658,0.003474265094341347,0.0005214668143342074
-0.12135522760497125,0.003353150484403418,0.0005248805221235799
-0.1219111360766414,0.003231517302562612,0.0005281728560170628
-0.1226195546776125,0.003109251957185485,0.0005313432406469368
-0.12354278153629229,0.0029861707890785323,0.0005343909520200688
-0.1247224355067879,0.0028620381805569924,0.0005373150565048866
-0.12617577695241933,0.0027365890743273886,0.0005401143701323288
-0.12789420979290891,0.0026095540809547247,0.0005427874417099699
-0.1298446663372075,0.0024806846428896663,0.0005453325610718921
-0.13197417304567965,0.0023497752231982226,0.000547747791004936
-0.13421711793729096,0.0022166795777067375,0.0005500310184053885
-0.13650391267181236,0.0020813190624021857,0.000552180017725443
-0.13876930893452832,0.0019436824515990153,0.0005541925184824435
-0.14095882162404136,0.0018038183863197305,0.0005560662689014029
-0.1430323709424848,0.0016618227900364675,0.000557799089489581
-0.1449649932545004,0.001517824107937975,0.0005593889129385682
-0.14674505840977153,0.001371969082105839,0.0005608338095335902
-0.14837089857269017,0.0012244111036146081,0.0005621319996264504
-0.14984707424004468,0.0010753021172082407,0.0005632818562368618
-0.15118148411011195,0.0009247878380331624,0.0005642819012144825
-0.15238409277092355,0.0007730050495926447,0.0005651307976582954
-0.15346740186318436,0.0006200793022755908,0.0005658273398342295
-0.1544481997929606,0.0004661215014475183,0.000566370440236091
-0.15534971811652817,0.0003112225424927739,0.0005667591122580611
-0.15620310579482002,0.0001554461305370998,0.0005669924465945761
-0.15704717613652083,-1.1790104285706285e-06,0.0005670695801546304
-0.15792580164552414,-0.0001586654993195931,0.0005669896578997563
-0.15888304276772208,-0.00031706992152621624,0.0005667517901893334
-0.1599568054215759,-0.00047648984562086524,0.0005663550103057599
-0.16117232031357553,-0.000637054408488441,0.0005657982381787052
-0.16253694477246508,-0.0007989090410314612,0.0005650802564539452
-0.16403759191329023,-0.0009621963093743389,0.0005641997037787424
-0.16564144713068935,-0.0011270358288963287,0.000563155087709607
-0.16729975987417728,-0.001293506432398762,0.0005619448165789595
-0.168953775895473,-0.0014616332002835872,0.0005605672467626184
-0.17054152963785116,-0.0016313808530502493,0.0005590207397359514
-0.1720042040636114,-0.0018026537199009806,0.0005573037224494759
-0.17329096910438668,-0.00197530130648498,0.0005554147449362829
-0.17436165671279558,-0.002149127619393571,0.0005533525304733435
-0.17518734360346425,-0.002323902119551701,0.0005511160156038709
-0.17574964397480697,-0.0024993706133408368,0.0005487043792374246
-0.17603984307344167,-0.002675265356864961,0.0005461170612523216
-0.17605868966312332,-0.002851314623233244,0.0005433537712622725
-0.17581686580140907,-0.00302725240096551,0.0005404144877501731
-0.17533537219990708,-0.0032028285199661682,0.0005372994472897072
-0.17464485839552524,-0.0033778186352638843,0.0005340091237120922
-0.17378342318147563,-0.003552032776052385,0.000530544198006434
-0.17279317723105142,-0.0037253210762586485,0.0005269055210802786
-0.17171634258512,-0.0038975758361667343,0.0005230940726240659
-0.1705917425756535,-0.004068729878747121,0.000519110919766609
-0.16945243783969527,-0.0042387519689547955,0.0005149571788427581
-0.16832503811590555,-0.004407640706932596,0.0005106339825048144
-0.1672306913503677,-0.0045754185716657325,0.0005061424528655153
-0.1661869977203162,-0.004742127416201074,0.0005014836798715818
-0.16520957856538,-0.004907825704343922,0.0004966587033113093
-0.16431217530080708,-0.005072586581277016,0.0004916684971684989
-0.16350492226422017,-0.005236495130059529,0.0004865139563128306
-0.16279133304134086,-0.00539964325771231,0.0004811958871189447
-0.16216506523891377,-0.0055621214568524376,0.00047571500476166235
-0.16160759695546667,-0.005724007787949628,0.00047007194013926133
-0.16108776480903247,-0.005885355468831878,0.00046426725851087057
-0.16056380074036788,-0.006046181251606578,0.00045830149015065134
-0.15998801657090084,-0.006206457160262213,0.00045217517094471696
-0.15931361730918525,-0.006366107977202256,0.0004458888883759847
-0.1585024493261064,-0.006525016010519902,0.00043944332638212367
-0.15753206256066696,-0.006683033266463289,0.00043283930174363205
-0.15640045286644985,-0.006839999524176847,0.000426077785348312
-0.1551272580710379,-0.006995763379645591,0.00041915990389640076
-0.15375092004221236,-0.007150202468702216,0.00041208692097222685
-0.15232226427440257,-0.007303239060860524,0.0004048602002074455
-0.15089585582794496,-0.007454848120911697,0.0003974811566165594
-0.14952103014322085,-0.00760505656389728,0.0003899512042741549
-0.14823442970696105,-0.0077539342938223715,0.00038227170884529507
-0.14705527409425148,-0.007901579145722978,0.0003744439521255224
-0.14598380452709298,-0.00804809868503365,0.0003664691132101441
-0.14500272957418006,-0.008193591952084286,0.0003583482678915851
-0.144081173683004,-0.008338133903712878,0.0003500824049636865
-0.14318048542053216,-0.008481764733264646,0.00034167245564519774
-0.14226109428900174,-0.008624485523119414,0.0003331193305170057
-0.1412893149297872,-0.008766260727728807,0.00032442395739158155
-0.1402427794079712,-0.008907026774897686,0.0003155873136402683
-0.13911333282873847,-0.009046704831016042,0.00030661044783731147
-0.1379067621543041,-0.009185214878507562,0.0002974944879825497
-0.13663940877717481,-0.009322487963973301,0.00028824063656130924
-0.13533241160773374,-0.009458473874165756,0.00027885015564223974
-0.13400495965011758,-0.009593142559794682,0.0002693243474252595
-0.13266822071573828,-0.00972647914997761,0.00025966453657037336
-0.1313213041214042,-0.00985847391239618,0.00024987206003918645
-0.12994992502652444,-0.009989109526970146,0.00023994826831950328
-0.12852786855633241,-0.010118348423761574,0.00022989453934413743
-0.12702108119367964,-0.01024612289863658,0.00021971230368293836
-0.12539397797498128,-0.010372330428220911,0.00020940307701950963
-0.12361712020435066,-0.010496835977310577,0.0001989684938167439
-0.12167496165406103,-0.010619482018239782,0.0001884103348189687
-0.11957225292681105,-0.010740105625530218,0.00017773054099708371
-0.11733807730308665,-0.010858560790645167,0.00016693120778899602
-0.11502712359280098,-0.010974743391093111,0.00015601455569812686
-0.11271824574340536,-0.011088616075761214,0.0001449828759646997
-0.11051034258660108,-0.011200230369926217,0.00013383845274185597
-0.10851530133059571,-0.011309743191884816,0.00012258346596095046
-0.10684772974684223,-0.011417424707423535,0.0001112198820112963
-0.10561180456398614,-0.01152365447457895,9.974934242029505e-05
-0.10488657221082848,-0.011628903662966358,8.817306335152239e-05
-0.104711932309186,-0.011733702915226366,7.649176006242603e-05
-0.10507793684371843,-0.011838597849802818,6.470560967991143e-05
-0.10591982243583993,-0.011944096729442596,5.2814262390288716e-05
-0.10712035990628788,-0.01205061682061366,4.081690561526059e-05
-0.10851974300737342,-0.01215843687207049,2.871237876891851e-05
-0.10993162315046888,-0.012267662555149411,1.649932905530856e-05
-0.11116255261431127,-0.0123782096430318,4.176392956217953e-06
-0.11203157239492806,-0.01248980670553642,-8.257615218066159e-06
-0.11238709832234359,-0.012602016040895055,-2.0803526591281895e-05
-0.11211920579271417,-0.012714269192952585,-3.346166920820571e-05
-0.11116638116604445,-0.012825911986431964,-4.623175979789799e-05
-0.10951660579408089,-0.012936253479912027,-5.911284253106999e-05
-0.10720329448722528,-0.01304461343005268,-7.210327598605234e-05
-0.1042971227455029,-0.013150363638669043,-8.52007645204132e-05
-0.10089511829472898,-0.01325295975918916,-9.84024262193423e-05
-0.09710857047058492,-0.013351961603571817,-0.0001117048869007228
-0.09305132081965872,-0.01344704154921694,-0.0001251043884771172
-0.08882983953410348,-0.01353798212939382,-0.00013859690031642257
-0.08453621382448022,-0.013624665156073112,-0.00015217822395915604
-0.08024477646644967,-0.013707055651218577,-0.00016584408436280188
-0.07601253264795554,-0.013785184305775779,-0.00017959020434129907
-0.07188285725909686,-0.013859132000729305,-0.0001934123624945516
-0.06789128918870793,-0.013929019073953207,-0.00020730643803189286
-0.06407179419223906,-0.01399500061564368,-0.0002212684478766913
-0.06046177613690726,-0.014057267400808253,-0.00023529458188491727
-0.05710450734612686,-0.01411605054254977,-0.0002493812408565963
-0.054048396755070054,-0.014171626994600369,-0.0002635250796251714
-0.051343297383794124,-0.014224322841669801,-0.00027772305454330646
-0.049034603672289144,-0.014274511792197842,-0.00029197247186024027
-0.047156143637927035,-0.01432260716585295,-0.00030627103133926565
-0.045722930127993666,-0.014369046702735911,-0.0003206168582735601
-0.04472481741324461,-0.01441427057650653,-0.00033500851691318134
-0.04412210347736181,-0.014458694036951833,-0.0003494449992199105
-0.04384414632844142,-0.014502677161854735,-0.0003639256848193138
-0.04379191254151582,-0.014546495191289713,-0.000378450270995886
-0.04384471870749636,-0.01459031350691422,-0.00039301867534498796
-0.043870328405992524,-0.014634171030470964,-0.00040763091761368054
-0.0437366129305093,-0.014677974501139215,-0.00042228699037948563
-0.04332271413785881,-0.0147215041646734,-0.00043698672971239196
-0.042528093327455975,-0.014764429568406057,-0.0004517296965789317
-0.041278644648091334,-0.014806332937393831,-0.0004665150778318316
-0.03952979936628711,-0.01484673715940102,-0.00048134161288022903
-0.0372670494256115,-0.01488513558379697,-0.0004962075492518281
-0.03450456792001205,-0.014921021392469782,-0.0005111106277399614
-0.031282644564649485,-0.014953914998712113,-0.0005260480959355524
-0.027664483149479252,-0.014983388562569177,-0.000541016747716193
-0.023732534955367555,-0.0150090870716216,-0.0005560129855332884
-0.01958410921313378,-0.01503074539370585,-0.0005710329017659521
-0.015325774694077785,-0.015048200335659456,-0.0005860723746306348
-0.011066260131994838,-0.015061396353072493,-0.0006011271729750008
-0.006908142057928256,-0.015070383554167455,-0.0006161930629286208
-0.002939272180953518,-0.015075307261286896,-0.000631265908336348
0.0007747102100672927,-0.015076389542272339,-0.0006463417567381276
0.004195440773537407,-0.015073904466780537,-0.000661416903742654
0.007313427273398855,-0.015068150032757069,-0.0006764879309924228
0.010145632984407862,-0.015059420502628165,-0.0006915517162601154
0.01272918681525746,-0.015047983092728333,-0.0007066054180577937
0.015112214838348952,-0.01503406239190153,-0.0007216464408001086
0.01734360574030289,-0.015017834481612204,-0.0007366723892368655
0.019463946425115435,-0.014999430705529495,-0.0007516810218304364
0.02149957626807395,-0.014978948944182901,-0.0007666702116552926
0.023460757608413912,-0.014956468777244656,-0.0007816379205160064
0.025343793072927653,-0.014932066501903986,-0.0007965821881555807
0.027135988026142182,-0.014905826611354452,-0.00081150113471221
0.02882185610048764,-0.014877847689291138,-0.0008263929718625327
0.03038892830883797,-0.014848242297086475,-0.0008412560168557215
0.031831878447766845,-0.014817131893708172,-0.0008560887039511188
0.03315425279953487,-0.014784638828084522,-0.0008708895893120152
0.03436772584265372,-0.014750877838763428,-0.0008856573476454392
0.03548939139718682,-0.014715949280143508,-0.0009003907612048927
0.03653806752405845,-0.014679935550682886,-0.0009150887036203059
0.03753083428354998,-0.014642901099779082,-0.0009297501219455369
0.038480898107078824,-0.014604895233583768,-0.0009443740201122183
0.039397399631626584,-0.014565956084714416,-0.0009589594457713674
0.040287176087544875,-0.01452611379685483,-0.000973505480712152
0.04115793110720823,-0.014485391243257454,-0.000988011233232208
0.04202178820349784,-0.0144438013836021,-0.0010024758295456378
0.04289794226374234,-0.01440134151836848,-0.001016898400996623
0.043813332962745546,-0.014357985880755236,-0.0010312780646961849
0.04480097748975544,-0.014313678725528986,-0.001045613896999327
0.04589646676687727,-0.01426833000340067,-0.0010599049013637917
0.04713368277690909,-0.014221814928628776,-0.0010741499738298064
0.048540803297115895,-0.014173977685591763,-0.0010883478701369167
0.05013727101208642,-0.014124638648437162,-0.001102497178303931
0.051931981930187464,-0.014073604021966024,-0.0011165962996391326
0.053922713591240505,-0.01402067667420531,-0.0011306434399872183
0.056096668404427605,-0.013965666983207477,-0.0011446366118159246
0.058431777033055694,-0.013908402760488735,-0.0011585736466877728
0.06089813636312441,-0.013848737803790645,-0.0011724522169699123
0.06345887443550785,-0.01378655929839133,-0.0011862698655210034
0.06607003963686074,-0.013721794841355144,-0.0012000240425908766
0.06867981309331245,-0.013654419914990057,-0.0012137121499690492
0.07122812040356369,-0.01358446594824162,-0.0012273315929006649
0.07364798041999236,-0.013512027897829841,-0.0012408798398237007
0.07586930231210233,-0.013437269256463795,-0.0012543544884008474
