frame_number,force
0,742.3374700048751
1,742.2491515846643
2,742.1610765621517
3,742.0734868693802
4,741.9866215275665
5,741.9007152407937
6,741.8159970442543
7,741.7326890205399
8,741.6510050957818
9,741.57114992569
10,741.4933178796749
11,741.4176921295985
12,741.344443848089
13,741.2737315194959
14,741.2057003647228
15,741.1404818799583
16,741.0781934888238
17,741.0189383069602
18,740.9628050167886
19,740.909867848247
20,740.8601866595989
21,740.8138071113083
22,740.7707609250904
23,740.731066219183
24,740.6947279099018
25,740.6617381692311
26,740.6320769287938
27,740.6057124214512
28,740.582601752137
29,740.5626914890902
30,740.5459182661551
31,740.5322093870344
32,740.5214834233669
33,740.5136507998255
34,740.5086143609296
35,740.5062699159013
36,740.5065067593366
37,740.5092081662497
38,740.5142518602696
39,740.5215104541322
40,740.5308518626518
41,740.5421396899421
42,740.5552335941577
43,740.5699896338641
44,740.5862606001953
45,740.6038963387308
46,740.6227440651633
47,740.6426486792622
48,740.6634530817721
49,740.6849984983405
50,740.7071248136492
51,740.7296709180015
52,740.7524750679606
53,740.7753752624953
54,740.7982096365718
55,740.820816874999
56,740.8430366499892
57,740.8647100856263
58,740.8856802510085
59,740.9057926817751
60,740.9248959277345
61,740.9428421226788
62,740.9594875711934
63,740.9746933465165
64,740.9883258934063
65,741.0002576303405
66,741.0103675458477
67,741.018541784184
68,741.0246742158267
69,741.0286669883403
70,741.0304310530344
71,741.0298866627442
72,741.0269638364208
73,741.0216027871445
74,741.0137543113071
75,741.0033801375218
76,740.9904532338727
77,740.9749580712846
78,740.9568908392698
79,740.936259608325
80,740.9130844311145
81,740.8873973729751
82,740.8592424622453
83,740.8286755528301
84,740.7957640946075
85,740.7605868107056
86,740.7232332835864
87,740.6838034539344
88,740.6424070376415
89,740.5991628674096
90,740.5541981671863
91,740.507647769517
92,740.459653287031
93,740.4103622492676
94,740.3599272151906
95,740.3085048704771
96,740.2562551171741
97,740.2033401617549
98,740.1499236062687
99,740.0961695464609
100,740.0422416807708
101,739.9883024350178
102,739.934512108876
103,739.8810280510472
104,739.8280038698726
105,739.7755886848053
106,739.7239264220661
107,739.6731551557779
108,739.6234064946965
109,739.5748050144791
110,739.5274677356649
111,739.4815036475583
112,739.4370132777574
113,739.3940883065421
114,739.3528112252925
115,739.3132550387237
116,739.275483011801
117,739.2395484635462
118,739.2054946113886
119,739.1733544709348
120,739.1431508165532
121,739.1148962076023
122,739.0885930834554
123,739.0642339282517
124,739.041801504333
125,739.021269152324
126,739.0026011558735
127,738.9857531695027
128,738.9706727081141
129,738.9572996962398
130,738.9455670740774
131,738.9354014558594
132,738.9267238344191
133,738.9194503244526
134,738.9134929362018
135,738.9087603706977
136,738.9051588266624
137,738.9025928078092
138,738.9009659185398
139,738.9001816367847
140,738.9001440548011
141,738.900758581125
142,738.9019325987776
143,738.9035760760871
144,738.9056021271341
145,738.9079275188266
146,738.9104731213317
147,738.9131642987084
148,738.9159312374987
149,738.9187092126416
150,738.9214387920232
151,738.9240659829914
152,738.9265423258656
153,738.92882494046
154,738.9308765315717
155,738.9326653584271
156,738.9341651717425
157,738.9353551208887
158,738.9362196330502
159,738.9367482665323
160,738.9369355414377
161,738.9367807521496
162,738.9362877666164
163,738.9354648169698
164,738.9343242847638
165,738.9328824827935
166,738.931159434765
167,738.9291786543457
168,738.9269669260248
169,738.924554091091
170,738.921972842174
171,738.9192585287384
172,738.9164489737689
173,738.9135842993657
174,738.9107067569554
175,738.9078605569018
176,738.9050916925331
177,738.9024477546315
178,738.8999777338414
179,738.8977318097956
180,738.895761126356
181,738.894117551745
182,738.8928534209815
183,738.8920212572121
184,738.8916734691134
185,738.8918620234828
186,738.8926380947152
187,738.894051695352
188,738.8961512937753
189,738.898983426124
190,738.9025923097455
191,738.9070194654112
192,738.912303355379
193,738.9184790439912
194,738.9255778866242
195,738.9336272515418
196,738.942650277651
197,738.9526656693671
198,738.9636875280025
199,738.9757252178815
200,738.9887832650487
201,739.0028612866846
202,739.0179539497829
203,739.0340509582129
204,739.0511370679206
205,739.0691921303719
206,739.0881911642072
207,739.1081044547886
208,739.1288976815105
209,739.1505320736434
210,739.1729645967064
211,739.1961481722489
212,739.2200319340456
213,739.2445615229257
214,739.2696794208482
215,739.295325322645
216,739.3214365415382
217,739.3479484425615
218,739.3747948964749
219,739.4019087456631
220,739.4292222731606
221,739.4566676667351
222,739.4841774715723
223,739.5116850267561
224,739.5391248818264
225,739.5664331900008
226,739.5935480744514
227,739.6204099637794
228,739.6469618928688
229,739.6731497655602
230,739.6989225759909
231,739.7242325864041
232,739.7490354610547
233,739.7732903581704
234,739.7969599839668
235,739.8200106141012
236,739.842412088934
237,739.8641377898547
238,739.885164604506
239,739.9054728882572
240,739.9250464271967
241,739.9438724046371
242,739.961941369918
243,739.9792472064287
244,739.9957870955906
245,740.0115614743465
246,740.0265739845853
247,740.0408314133148
248,740.0543436222164
249,740.0671234647185
250,740.079186688287
251,740.0905518196085
252,740.1012400311785
253,740.1112749895865
254,740.1206826877661
255,740.1294912645714
256,740.1377308148923
257,740.1454331924733
258,740.1526318062351
259,740.1593614098597
260,740.1656578841538
261,740.1715580122429
262,740.1770992485679
263,740.1823194836015
264,740.1872568068478
265,740.1919492708764
266,740.1964346590103
267,740.2007502590455
268,740.2049326450473
269,740.2090174685218
270,740.2130392590514
271,740.2170312334996
272,740.2210251132183
273,740.2250509505405
274,740.229136968294
275,740.2333094178357
276,740.2375924612807
277,740.2420080819949
278,740.2465760248791
279,740.2513137658389
280,740.2562365089836
281,740.2613572103054
282,740.2666866270386
283,740.272233391817
284,740.2780041098692
285,740.2840034762587
286,740.2902344092716
287,740.2966981958124
288,740.303394644974
289,740.3103222466958
290,740.3174783335344
291,740.3248592447285
292,740.3324604924
293,740.3402769297555
294,740.3483029209683
295,740.356532512355
296,740.3649596042352
297,740.3735781219875
298,740.3823821835663
299,740.3913662599642
300,740.400525325346
301,740.4098549946038
302,740.4193516471586
303,740.4290125363307
304,740.4388358835009
305,740.4488209563015
306,740.4589681309089
307,740.4692789399746
308,740.4797561086866
309,740.490403580946
310,740.5012265357317
311,740.5122313913845
312,740.5234257936986
313,740.5348185826749
314,740.5464197325541
315,740.5582402601281
316,740.5702920969843
317,740.5825879220059
318,740.5951409513441
319,740.6079646847046
320,740.6210726094005
321,740.634477866797
322,740.6481928885946
323,740.6622290121576
324,740.6765960849119
325,740.6913020681759
326,740.7063526511737
327,740.7217508866422
328,740.7374968600595
329,740.7535874041561
330,740.770015868372
331,740.7867719497705
332,740.8038415887133
333,740.8212069301866
334,740.8388463504107
335,740.8567345484028
336,740.8748427030498
337,740.8931386969613
338,740.911587407806
339,740.9301510657592
340,740.9487896729295
341,740.9674614782922
342,740.986123499939
343,741.0047320847466
344,741.0232434935534
345,741.0416144982087
346,741.0598029764889
347,741.0777684923589
348,741.0954728516641
349,741.1128806256904
350,741.129959636239
351,741.1466813960975
352,741.1630214987498
353,741.1789599512612
354,741.1944814445351
355,741.2095755556553
356,741.2242368780741
357,741.2384650771027
358,741.2522648701579
359,741.2656459331495
360,741.2786227360579
361,741.2912143119822
362,741.3034439646419
363,741.3153389198044
364,741.3269299267436
365,741.3382508165106
366,741.3493380240844
367,741.3602300813313
368,741.3709670876
369,741.3815901651292
370,741.3921409070601
371,741.4026608262499
372,741.4131908131169
373,741.4237706106975
374,741.4344383151642
375,741.4452299102607
376,741.4561788443256
377,741.4673156587045
378,741.4786676762399
379,741.4902587579461
380,741.5021091345326
381,741.5142353171026
382,741.5266500888113
383,741.5393625772924
384,741.5523784061629
385,741.565699922042
386,741.579326490642
387,741.5932548519228
388,741.6074795212604
389,741.6219932222155
390,741.6367873368933
391,741.6518523611544
392,741.667178353205
393,741.6827553654738
394,741.6985738515382
395,741.71462504204
396,741.7309012854136
397,741.7473963507147
398,741.7641056910836
399,741.7810266675355
400,741.7981587337048
401,741.8155035826742
402,741.8330652569075
403,741.8508502216644
404,741.8688674014278
405,741.8871281783479
406,741.9056463520068
407,741.9244380611372
408,741.9435216698516
409,741.9629176225787
410,741.9826482723942
411,742.0027376865514
412,742.0232114315522
413,742.044096339315
414,742.0654202565958
415,742.087211781353
416,742.1094999911247
417,742.1323141689387
418,742.1556835320365
419,742.1796369685286
420,742.2042027873349
421,742.2294084868464
422,742.2552805468171
423,742.2818442459528
424,742.3091235053323
425,742.3371407560869
426,742.3659168288489
427,742.3954708619003
428,742.425820224384
429,742.4569804502944
430,742.4889651781273
431,742.5217860901056
432,742.5554528444254
433,742.589972994417
434,742.6253518896382
435,742.6615925553099
436,742.6986955481116
437,742.7366587882526
438,742.7754773698615
439,742.8151433538497
440,742.8556455493263
441,742.8969692912196
442,742.9390962228548
443,742.9820040926357
444,743.0256665737442
445,743.0700531151499
446,743.1151288312898
447,743.1608544360544
448,743.2071862238658
449,743.2540760971222
450,743.3014716362328
451,743.3493162066336
452,743.3975490963046
453,743.4461056767566
454,743.4949175799865
455,743.5439128840457
456,743.5930163011409
457,743.6421493643893
458,743.6912306117262
459,743.7401757673483
460,743.7888979224879
461,743.8373077187053
462,743.8853135384032
463,743.9328217084344
464,743.9797367229914
465,744.0259614912371
466,744.071397613429
467,744.1159456869616
468,744.1595056415761
469,744.2019771016343
470,744.2432597727528
471,744.2832538497136
472,744.3218604422473
473,744.3589820153239
474,744.3945228412342
475,744.428389461951
476,744.4604911615794
477,744.4907404493249
478,744.519053552713
479,744.5453509190867
480,744.5695577216499
481,744.591604365095
482,744.6114269850809
483,744.6289679354145
484,744.6441762567904
485,744.6570081212595
486,744.6674272470538
487,744.6754052789864
488,744.6809221303123
489,744.6839662824024
490,744.684535038908
491,744.6826347317826
492,744.6782808777605
493,744.671498284903
494,744.6623211087689
495,744.6507928567221
496,744.6369663376457
497,744.6209035537844
498,744.6026755321831
499,744.5823620950879
500,744.5600515708346
501,744.5358404480809
502,744.5098329763098
503,744.4821407148146
504,744.4528820317364
505,744.4221815543094
506,744.390169570676
507,744.356981382283
508,744.3227566050424
509,744.2876384184561
510,744.2517727648935
511,744.2153075048211
512,744.1783915365494
513,744.1411738905364
514,744.1038028091061
515,744.066424823194
516,744.0291838381969
517,743.992220240581
518,743.9556700356686
519,743.9196640258149
520,743.8843270375767
521,743.8497772063166
522,743.8161253265055
523,743.7834742754922
524,743.7519185175485
525,743.721543693545
526,743.6924262998032
527,743.6646334575462
528,743.6382227717216
529,743.6132422747345
530,743.5897304475048
531,743.5677163083194
532,743.5472195596245
533,743.5282507836325
534,743.5108116787208
535,743.4948953297991
536,743.4804865067854
537,743.4675619856205
538,743.4560908859166
539,743.4460350190908
540,743.4373492414605
541,743.4299818084253
542,743.4238747280526
543,743.4189641143796
544,743.4151805418487
545,743.4124494023051
546,743.410691265243
547,743.4098222412149
548,743.409754348064
549,743.4103958799581
550,743.4116517797224
551,743.4134240151295
552,743.4156119593507
553,743.4181127750813
554,743.4208218015615
555,743.4236329439836
556,743.4264390652289
557,743.429132380327
558,743.431604854637
559,743.4337486075267
560,743.435456323813
561,743.4366216746284
562,743.4371397472186
563,743.4369074798769
564,743.4358240950364
565,743.4337915218031
566,743.4307147996324
567,743.4265024570839
568,743.4210668625162
569,743.4143245458099
570,743.4061964907489
571,743.3966083965823
572,743.3854909056195
573,743.3727797928448
574,743.3584161140338
575,743.3423463103259
576,743.3245222689511
577,743.3049013415103
578,743.2834463230012
579,743.2601253966376
580,743.2349120508694
581,743.2077849755038
582,743.1787279439048
583,743.1477296884377
584,743.1147837764435
585,743.07988849352
586,743.0430467395972
587,743.0042659414349
588,742.9635579830588
589,742.9209391536739
590,742.8764301110984
591,742.8300558575436
592,742.7818457230793
593,742.7318333503451
594,742.6800566728747
595,742.6265578797529
596,742.5713833612201
597,742.5145836324169
598,742.4562132349986
599,742.3963306186823
600,742.3349980069623
601,742.2722812526993
602,742.2082496893034
603,742.1429759816689
604,742.0765359787546
605,742.0090085680284
606,741.9404755314671
607,741.8710214030771
608,741.8007333283691
609,741.7297009266182
610,741.6580161568259
611,741.5857731876963
612,741.513068270626
613,741.4399996132349
614,741.3666672498377
615,741.2931729043833
616,741.2196198405113
617,741.1461126925514
618,741.0727572709482
619,740.9996603361506
620,740.926929336399
621,740.8546721067523
622,740.7829965286718
623,740.7120101510538
624,740.6418197746005
625,740.5725310022749
626,740.5042477598126
627,740.4370717916743
628,740.3711021388192
629,740.3064346049053
630,740.2431612169576
631,740.1813696855746
632,740.1211428689109
633,740.062558244322
634,740.0056873916076
635,739.9505954920648
636,739.8973408483448
637,739.845974431712
638,739.7965394655436
639,739.7490710558817
640,739.7035958805451
641,739.6601319472239
642,739.6186884285606
643,739.5792655795044
644,739.5418547402372
645,739.5064384267648
646,739.4729905101187
647,739.4414764835676
648,739.4118538156308
649,739.3840723855282
650,739.3580749969786
651,739.3337979655088
652,739.3111717732695
653,739.2901217837923
654,739.2705690074706
655,739.2524309072148
656,739.2356222330053
657,739.2200558741015
658,739.2056437184043
659,739.192297509765
660,739.1799296956431
661,739.1684542588723
662,739.1577875276519
663,739.1478489569258
664,739.1385618727894
665,739.1298541706619
666,739.1216589580841
667,739.1139151334306
668,739.106567892055
669,739.0995691519354
670,739.0928778925866
671,739.0864604038574
672,739.0802904442025
673,739.074349310037
674,739.0686258187613
675,739.063116208648
676,739.0578239595156
677,739.0527595388896
678,739.0479400787635
679,739.0433889881265
680,739.0391355064298
681,739.0352142034089
682,739.0316644309806
683,739.0285297330782
684,739.0258572194223
685,739.0236969098698
686,739.0221010574733
687,739.021123460246
688,739.0208187728269
689,739.0212418288926
690,739.0224469833629
691,739.0244874811874
692,739.0274148578876
693,739.0312783765048
694,739.0361245059097
695,739.0419964460972
696,739.04893370659
697,739.056971743654
698,739.0661416599847
699,739.0764699670718
700,739.0879784069772
701,739.1006838280562
702,739.1145981083841
703,739.1297281208643
704,739.1460757349438
705,739.1636378513999
706,739.1824064682125
707,739.2023687764987
708,739.2235072859323
709,739.2457999795628
710,739.2692204986913
711,739.293738358987
712,739.3193191989991
713,739.3459250619202
714,739.3735147112005
715,739.402043980286
716,739.4314661562114
717,739.4617323960837
718,739.4927921746078
719,739.5245937596939
720,739.557084711834
721,739.5902124011504
722,739.6239245336004
723,739.6581696752876
724,739.6928977622927
725,739.7280605835803
726,739.7636122259701
727,739.7995094718433
728,739.8357121415769
729,739.8721833739437
730,739.9088898393794
731,739.945801882885
732,739.9828935947781
733,740.0201428084396
734,740.0575310252101
735,740.0950432682276
736,740.1326678691235
737,740.1703961935978
738,740.208222313726
739,740.2461426365096
740,740.2841554997581
741,740.3222607476807
742,740.360459299127
743,740.3987527206826
744,740.4371428145298
745,740.4756312275102
746,740.5142190839885
747,740.5529066415772
748,740.5916929662251
749,740.6305756223568
750,740.6695503750148
751,740.7086109034428
752,740.7477485276655
753,740.7869519501883
754,740.8262070142476
755,740.8654964793434
756,740.9047998147703
757,740.944093012242
758,740.9833484192129
759,741.0225345952676
760,741.0616161950693
761,741.1005538827043
762,741.1393042834751
763,741.1778199796524
764,741.2160495558325
765,741.2539376974355
766,741.2914253434683
767,741.3284498930761
768,741.3649454649593
769,741.4008432088069
770,741.4360716675927
771,741.4705571885288
772,741.5042243792735
773,741.536996605366
774,741.5687965249526
775,741.5995466574143
776,741.6291699831685
777,741.6575905722177
778,741.6847342383719
779,741.7105292145714
780,741.7349068431929
781,741.7578022743058
782,741.7791551643213
783,741.7989103668491
784,741.817018607052
785,741.8334371310541
786,741.8481303231163
787,741.8610702845929
788,741.8722373694013
789,741.881620670779
790,741.8892184539012
791,741.8950385289206
792,741.899098559424
793,741.9014263021519
794,741.9020597747258
795,741.9010473488719
796,741.8984477673579
797,741.8943300835616
798,741.8887735227053
799,741.8818672630146
800,741.8737101342806
801,741.8644102317911
802,741.8540844455255
803,741.8428579066564
804,741.8308633545663
805,741.8182404277402
806,741.805134881977
807,741.7916977403062
808,741.7780843810334
809,741.7644535727428
810,741.7509664667159
811,741.7377855576041
812,741.7250736229139
813,741.712992651771
814,741.7017027735524
815,741.6913611968388
816,741.6821211686856
817,741.6741309637616
818,741.6675329125536
819,741.6624624773774
820,741.6590473841459
821,741.657406816706
822,741.6576506793314
823,741.6598789320309
824,741.6641810028271
825,741.6706352808955
826,741.679308694182
827,741.6902563745303
828,741.7035214121629
829,741.7191346997898
830,741.7371148653064
831,741.7574682914379
832,741.7801892206246
833,741.8052599435985
834,741.8326510704969
835,741.8623218837498
836,741.8942207716905
837,741.9282857402427
838,741.964444997383
839,742.0026176022495
840,742.0427141685451
841,742.0846376106404
842,742.1282839206194
843,742.173542965223
844,742.220299292865
845,742.2684329422232
846,742.3178202448677
847,742.3683346149443
848,742.4198473195802
849,742.4722282247762
850,742.5253465126943
851,742.5790713670051
852,742.6332726234978
853,742.6878213839901
854,742.7425905929639
855,742.7974555779105
856,742.8522945553096
857,742.9069891039721
858,742.961424606448
859,743.0154906581632
860,743.0690814434997
861,743.1220960781558
862,743.1744389173332
863,743.2260198291536
864,743.2767544321695
865,743.3265642953281
866,743.3753770988741
867,743.4231267554419
868,743.4697534912732
869,743.5152038875227
870,743.5594308812745
871,743.6023937255637
872,743.6440579075488
873,743.6843950242795
874,743.723382616574
875,743.7610039629051
876,743.7972478360834
877,743.832108225719
878,743.8655840295286
879,743.8976787169041
880,743.9283999684019
881,743.9577592944922
882,743.9857716363971
883,744.0124549520317
884,744.0378297913787
885,744.0619188676113
886,744.0847466321301
887,744.1063388627355
888,744.1267222739025
889,744.1459241563438
890,744.1639720502598
891,744.1808934540263
892,744.1967155683022
893,744.211465074455
894,744.2251679453796
895,744.2378492864402
896,744.2495332047465
897,744.2602427060675
898,744.2699996197855
899,744.2788245530519
900,744.2867368755649
901,744.2937547358688
902,744.2998951086212
903,744.3051738704245
904,744.3096059005555
905,744.3132052027224
906,744.3159850443419
907,744.3179581099484
908,744.3191366651024
909,744.3195327270709
910,744.3191582389634
911,744.3180252447703
912,744.3161460636198
913,744.3135334624324
914,744.3102008268127
915,744.306162330095
916,744.3014330997859
917,744.2960293796093
