frame_number,force
0,598.6123100000393
1,598.5173118710518
2,598.4212430268651
3,598.3233202522736
4,598.2233443087217
5,598.1219975690028
6,598.0210968305356
7,597.923718179639
8,597.8341105729196
9,597.7573577283925
10,597.6988107946568
11,597.6633731079343
12,597.6547570235692
13,597.6748446192412
14,597.7232736950308
15,597.7973407661901
16,597.8922578864867
17,598.0017239442456
18,598.1187003061714
19,598.2362469150104
20,598.3482837519396
21,598.4501730179182
22,598.5390519693347
23,598.6138824302149
24,598.6752206136864
25,598.7247524574085
26,598.76468653096
27,598.7971295118667
28,598.8235617710706
29,598.8444897115571
30,598.8593120040289
31,598.8664150317652
32,598.8634938108954
33,598.8480615763285
34,598.8180666362225
35,598.7724989582758
36,598.7118655776926
37,598.6384496902203
38,598.5563210123836
39,598.4711085516191
40,598.3895758138581
41,598.3190563044769
42,598.2668125313427
43,598.2393761041908
44,598.2419202132958
45,598.2777189440876
46,598.3477580484939
47,598.4505622134164
48,598.5822808993923
49,598.7370332309563
50,598.9074651726443
51,599.0854264045075
52,599.2626416270641
53,599.4312574867212
54,599.5842060574339
55,599.7154093042865
56,599.8199001975689
57,599.8939266819053
58,599.9350581174552
59,599.9422729671894
60,599.9159905995732
61,599.8580141097946
62,599.7713691990795
63,599.6600514147026
64,599.52871698556
65,599.3823586706976
66,599.2260002957214
67,599.0644351194751
68,598.9020316474375
69,598.7426316284829
70,598.5895577342138
71,598.4457267404039
72,598.313835326073
73,598.1965646797153
74,598.0967450363206
75,598.0174310307066
76,597.9618587005122
77,597.9332781013926
78,597.9346746398348
79,597.9684061446002
80,598.0357976300986
81,598.1367551008725
82,598.2694721650213
83,598.4302923702845
84,598.6137582865659
85,598.8128449008259
86,599.0193528297693
87,599.224422722523
88,599.4191185306447
89,599.5950171595485
90,599.7447467394834
91,599.862436660022
92,599.9440633135094
93,599.9876815383443
94,599.9935275165719
95,599.9639777302656
96,599.9033566420757
97,599.8176024375613
98,599.7138225195223
99,599.5997909246875
100,599.4834475347488
101,599.3724489313188
102,599.2737970326259
103,599.1935398573346
104,599.1365096386213
105,599.1060628966783
106,599.1038330454518
107,599.1295696445832
108,599.1811599458052
109,599.2548838429065
110,599.3458749939701
111,599.4486936604756
112,599.557887861632
113,599.6684407300602
114,599.776062185796
115,599.8773444649797
116,599.9698318663881
117,600.0520542332272
118,600.1235543184554
119,600.1849096839783
120,600.2377168673985
121,600.2844802760043
122,600.3283467296893
123,600.3726636034994
124,600.4204097248496
125,600.473620104133
126,600.5329549762836
127,600.5975283077962
128,600.6650245516013
129,600.7320392747589
130,600.7945288269963
131,600.8482630193282
132,600.8892155050714
133,600.9138637766256
134,600.9193949868124
135,600.9038328245085
136,600.8661142179778
137,600.8061430341572
138,600.72482806382
139,600.6240838438323
140,600.5067508076563
141,600.3763928179072
142,600.2369668574111
143,600.0924223527851
144,599.9463377123458
145,599.8016931715024
146,599.6608071747481
147,599.5253821966666
148,599.3965743389143
149,599.2750258765456
150,599.1608470787687
151,599.0535726072616
152,598.9521366386967
153,598.8549082161721
154,598.7598080036173
155,598.664498342326
156,598.566613307452
157,598.4639870448899
158,598.3548507240918
159,598.2379872950087
160,598.1128364172117
161,597.9795267853018
162,597.8388074663118
163,597.6918799310063
164,597.5401855557213
165,597.3852353836647
166,597.2285484100292
167,597.0717027573365
168,596.9164426388097
169,596.7647612816903
170,596.6189055180549
171,596.4813002874583
172,596.3544372465801
173,596.2407864826228
174,596.1427655388467
175,596.0627426745846
176,596.0029919063708
177,595.965505497013
178,595.9516305203497
179,595.961594915329
180,595.9940625403625
181,596.0458735900197
182,596.1120894659007
183,596.1863841476528
184,596.261729379937
185,596.3312415338329
186,596.3890223295969
187,596.430839443526
188,596.454538963345
189,596.4601365586393
190,596.4495854006328
191,596.4262630484866
192,596.3942558800053
193,596.3575494414866
194,596.3192560336886
195,596.2810173777718
196,596.2426950387354
197,596.2024002451984
198,596.1568383260634
199,596.1018861999155
200,596.0333027281066
201,595.9474764785762
202,595.8421170392594
203,595.7167903681525
204,595.5732053304679
205,595.4151917761193
206,595.2483628763423
207,595.079507378483
208,594.9157990665603
209,594.7639438087508
210,594.6294124544713
211,594.5159135396451
212,594.4252163054936
213,594.3573377638437
214,594.3109896390092
215,594.284098298438
216,594.2742107621685
217,594.2786791372785
218,594.294620915856
219,594.3187347760113
220,594.3470965344114
221,594.375063293187
222,594.3973712915503
223,594.4084411350979
224,594.4028358134454
225,594.375776512916
226,594.3236189056443
227,594.2442225832662
228,594.1371817862286
229,594.0039007857358
230,593.8474963610179
231,593.6725164593922
232,593.4844922878048
233,593.2893854067127
234,593.0930294691694
235,592.900669408666
236,592.7166614689598
237,592.544342234806
238,592.3860393720439
239,592.243190583798
240,592.1165389133912
241,592.0063595997492
242,591.9126537344512
243,591.8352473292783
244,591.7737764424311
245,591.7275972209022
246,591.6956953273414
247,591.6766693586014
248,591.6688448212105
249,591.6705502918978
250,591.680548834199
251,591.6985635429409
252,591.7257776292729
253,591.7651475260911
254,591.8213742519798
255,591.9004565994061
256,592.0088751919736
257,592.1525653504737
258,592.335883745828
259,592.560764091468
260,592.8262188024207
261,593.1282897346127
262,593.4604750407962
263,593.8145594540443
264,594.1816783802641
265,594.5533918917337
266,594.9225538369158
267,595.2838291987108
268,595.6338163606812
269,595.970829551692
270,596.294453939047
271,596.6049981785682
272,596.9029560658471
273,597.1885613509103
274,597.4614804627446
275,597.7206505698803
276,597.964254061885
277,598.1898260228099
278,598.3944990067408
279,598.5753769158752
280,598.7299888323332
281,598.856724439514
282,598.9551368338068
283,599.0260379380617
284,599.0713787684331
285,599.0939542210978
286,599.0969859149591
287,599.0836413998743
288,599.0565644967006
289,599.0175091989042
290,598.9671633281173
291,598.9052102372008
292,598.8306239716634
293,598.7421450930619
294,598.6388461279915
295,598.5206683569311
296,598.3888105087166
297,598.2458917515779
298,598.0958799550913
299,597.9438254278602
300,597.7954453821657
301,597.6565897762159
302,597.5326234573674
303,597.4277866261829
304,597.344618708487
305,597.283534516479
306,597.242634254649
307,597.217813841229
308,597.2032070756121
309,597.1919299306753
310,597.1770227416275
311,597.1524260378393
312,597.1138104354442
313,597.0591216726294
314,596.9887760708032
315,596.905512273984
316,596.8139535859046
317,596.719966224134
318,596.6299189302322
319,596.5499554989158
320,596.4853776469124
321,596.4402029291975
322,596.416925042846
323,596.4164770926582
324,596.4383835091061
325,596.4810734945387
326,596.5423113768622
327,596.6196788075804
328,596.7110286299527
329,596.814829733736
330,596.9303406335496
331,597.0575873721957
332,597.1971730266449
333,597.3499903352141
334,597.5169179660065
335,597.6985478257271
336,597.8949401084977
337,598.1053735007312
338,598.3280758059102
339,598.5599762062391
340,598.7965728131671
341,599.0320128521311
342,599.2594254497895
343,599.4714647752572
344,599.6609703174593
345,599.8216520064294
346,599.9487285201451
347,600.0394476664511
348,600.0933989267444
349,600.1125257569623
350,600.10078841189
351,600.0635124677094
352,600.0065485893621
353,599.9354200458894
354,599.8546206571162
355,599.7671644035855
356,599.6744206917126
357,599.5762198349263
358,599.4711797932517
359,599.3571859629511
360,599.231950941919
361,599.0935774335084
362,598.94103306538
363,598.7744361610731
364,598.5950758794371
365,598.4051552242366
366,598.2073244817034
367,598.004130649068
368,597.7975273355809
369,597.5885696963422
370,597.3773679938662
371,597.1633041075052
372,596.945447928909
373,596.7230676547991
374,596.4961215348511
375,596.2656399410536
376,596.0339354241127
377,595.8046056264116
378,595.5823232709436
379,595.3724376591676
380,595.1804365373965
381,595.0113367564264
382,594.8690910657384
383,594.7561099057392
384,594.6729868240304
385,594.6184788374379
386,594.5897386511914
387,594.582743037878
388,594.5928286792906
389,594.6152394585325
390,594.6455998351692
391,594.6802468032367
392,594.7163755826721
393,594.7519858607168
394,594.7856556210928
395,594.8162100961307
396,594.842384377483
397,594.8625876661616
398,594.8748516096501
399,594.8769873631483
400,594.8669117155298
401,594.8430591663379
402,594.804785504081
403,594.7526849082291
404,594.6887691686906
405,594.6164752460022
406,594.5404747737261
407,594.4662696537345
408,594.3995834548596
409,594.345601356481
410,594.308160697884
411,594.2890310462072
412,594.2874356723008
413,594.2999486153365
414,594.3208434825553
415,594.342874632973
416,594.3583665977798
417,594.3604137510507
418,594.343980622868
419,594.3067453313027
420,594.2496033402091
421,594.1767935427537
422,594.0956189909917
423,594.0157565684108
424,593.9482126745594
425,593.9040592945028
426,593.8931348606741
427,593.9229044904226
428,593.9976534499027
429,594.1181418438146
430,594.2817763005501
431,594.483259271191
432,594.7155797475816
433,594.9711448756049
434,595.2428394989431
435,595.5248305531929
436,595.8129896240174
437,596.1048881011125
438,596.3994175404729
439,596.696169255544
440,596.9947395517934
441,597.2941148461802
442,597.5922590119507
443,597.8859812423823
444,598.1710994106825
445,598.4428421891541
446,598.6963868116635
447,598.9274285577559
448,599.1327017785982
449,599.3103826244948
450,599.460296799853
451,599.5838689802998
452,599.6838098276926
453,599.7636192223575
454,599.827045445957
455,599.8776514691353
456,599.9185969664132
457,599.9526632630569
458,599.9824598738358
459,600.0106896410822
460,600.0403355561442
461,600.0746704849284
462,600.1170634075708
463,600.1706260576454
464,600.2377883839827
465,600.3199123055779
466,600.4170507807654
467,600.5279232034943
468,600.6501173865387
469,600.780476072727
470,600.9156033778856
471,601.0524157023426
472,601.1886331695414
473,601.3230775817664
474,601.4556691388552
475,601.5871180139504
476,601.7184277901714
477,601.850384223374
478,601.9831756364306
479,602.1162217013999
480,602.2482168583846
481,602.3773384940395
482,602.501535428412
483,602.6188079379806
484,602.7274167665147
485,602.8260011272895
486,602.9136195752142
487,602.9897325242964
488,603.0541289972646
489,603.1067967952431
490,603.1477637991771
491,603.1769745086282
492,603.1942689350875
493,603.1994885402302
494,603.1926714466341
495,603.1742497766382
496,603.1451476134115
497,603.1067126766246
498,603.0604945206323
499,603.0079682344816
500,602.950339988229
501,602.8885322143793
502,602.8233564453885
503,602.7557981829792
504,602.6873036983816
505,602.6199713263433
506,602.5565823811269
507,602.500446488142
508,602.4550852831858
509,602.4238260913958
510,602.4093992758129
511,602.413619939002
512,602.4371962662742
513,602.4796578224241
514,602.539358277262
515,602.6135018132767
516,602.6981755212043
517,602.7884196896321
518,602.8784006491242
519,602.9617414762639
520,603.032016735262
521,603.0833578620197
522,603.111074190885
523,603.112182558797
524,603.0857590383771
525,603.0330736492855
526,602.9575197786926
527,602.8643784326935
528,602.7604585315597
529,602.6536440744432
530,602.5523694668143
531,602.4650354073045
532,602.3993750003484
533,602.3617984281658
534,602.3567816661454
535,602.3863898384161
536,602.4500165513706
537,602.5443895379473
538,602.66386086006
539,602.8009643233119
540,602.947178334327
541,603.0937971484454
542,603.2328068143736
543,603.3576759611482
544,603.463983398235
545,603.5498097457038
546,603.6158359303706
547,603.6651288209888
548,603.7026434647614
549,603.7345153397983
550,603.7672455820856
551,603.8068925752657
552,603.8583730654788
553,603.9249500956213
554,604.0079495478196
555,604.1067066275364
556,604.2187085365932
557,604.3398827555937
558,604.4649849535517
559,604.58805660477
560,604.7029337133644
561,604.8037843863983
562,604.8856392510926
563,604.9448657187996
564,604.9795265512851
565,604.9895552404715
566,604.9766885887403
567,604.9441343084172
568,604.8960096744132
569,604.8366390610452
570,604.7698231439553
571,604.6981907609882
572,604.6227264765928
573,604.5425385462889
574,604.4548983871574
575,604.3555573280814
576,604.2393332193866
577,604.1009376769629
578,603.9359687836887
579,603.7419415569109
580,603.5191963524013
581,603.2715207051571
582,603.0063397229083
583,602.7343785188457
584,602.4687836340516
585,602.223799875608
586,602.013206472602
587,601.8487863265508
588,601.7391039547081
589,601.6887911487927
590,601.6984067005701
591,601.7647959791842
592,601.8817782828079
593,602.0409631800136
594,602.2325350777928
595,602.4459159132426
596,602.6702856236186
597,602.8949923166864
598,603.109918970968
599,603.3058900951147
600,603.4751843621272
601,603.6121552718353
602,603.7138726380297
603,603.7806327747747
604,603.8161827137641
605,603.8275603493978
606,603.8245313703217
607,603.8186729975175
608,603.8222114110357
609,603.8467693894303
610,603.9022048695939
611,603.995695308656
612,604.1311532489675
613,604.3089801420607
614,604.5261124765751
615,604.7763043522805
616,605.0506158818366
617,605.3381003974212
618,605.626671061734
619,605.9040865823888
620,606.1589601817149
621,606.3816807515294
622,606.5651358894762
623,606.7051468258793
624,606.8005708797568
625,606.853086831956
626,606.8667326420426
627,606.8473009891854
628,606.8017092007608
629,606.7374385883029
630,606.6620850729404
631,606.5830010782721
632,606.5069745302918
633,606.4399046495952
634,606.3864772745927
635,606.3498724206312
636,606.3315328235259
637,606.3310053772641
638,606.3458695409104
639,606.3717910426633
640,606.4027565260592
641,606.4315236291494
642,606.4502598538295
643,606.4512759970472
644,606.42772726146
645,606.374175537904
646,606.2869623505429
647,606.1643922967321
648,606.0067424182428
649,605.8161071512416
650,605.5960957242271
651,605.3514263840692
652,605.0874848349067
653,604.8099107742898
654,604.5242473431957
655,604.2356542996505
656,603.94867141077
657,603.6670271522539
658,603.3934991714611
659,603.129836462146
660,602.8767598267175
661,602.6340707816269
662,602.4008996109923
663,602.1760894451137
664,601.9586519114617
665,601.7481778594879
666,601.5450808168777
667,601.3505982879497
668,601.1665538598677
669,600.9949576385332
670,600.8375657665136
671,600.6955211062866
672,600.5691656320133
673,600.4580664677588
674,600.3612434016676
675,600.2775359518293
676,600.2060146498062
677,600.1463330344969
678,600.0989324363217
679,600.0650425118718
680,600.0464618171887
681,600.0451525089658
682,600.0627299205363
683,600.0999505359883
684,600.1562919148232
685,600.2296904072219
686,600.3164791042624
687,600.4115551088244
688,600.5087881479462
689,600.6016449156896
690,600.683945392721
691,600.7506127902151
692,600.7982615944511
693,600.8255064986454
694,600.8329555091134
695,600.8229367756023
696,600.7990646280571
697,600.7657591203075
698,600.7278018619244
699,600.6899595226836
700,600.656656520093
701,600.631652384495
702,600.6176990418361
703,600.616213751047
704,600.6270572248703
705,600.6485057608137
706,600.6774548298051
707,600.7098313078069
708,600.741149354189
709,600.7671182644065
710,600.7841957139906
711,600.7899901047974
712,600.7834638792244
713,600.7649577006492
714,600.7360983230944
715,600.6996437064238
716,600.6592774182084
717,600.6193306687059
718,600.5844061723492
719,600.5589033922604
720,600.5464877966081
721,600.5495863107844
722,600.5690053116743
723,600.6037459644103
724,600.651040394353
725,600.7065756153062
726,600.7648427711435
727,600.8195575275622
728,600.8641202958136
729,600.8920954613432
730,600.8976836354427
731,600.8761508798606
732,600.8241710409907
733,600.7400377939288
734,600.6237191992668
735,600.4767563802684
736,600.3020318180577
737,600.1034384155702
738,599.8854767844731
739,599.6528161986465
740,599.4098779722852
741,599.1605171735016
742,598.9078693069656
743,598.6543937533825
744,598.4020979051254
745,598.1528762100957
746,597.9088588851614
747,597.6726533227964
748,597.4473882002006
749,597.2365254913418
750,597.0434652733828
751,596.8710153010308
752,596.720823491098
753,596.5928745929415
754,596.4851415829356
755,596.393467237879
756,596.3117249186397
757,596.2322624101332
758,596.1465833226614
759,596.0461866560651
760,595.9234668019072
761,595.7725642709789
762,595.5900546834047
763,595.375383810659
764,595.1310029855571
765,594.8622125238214
766,594.5767554560424
767,594.2842129807389
768,593.9952498805208
769,593.7207611362469
770,593.4709909548465
771,593.2547246820786
772,593.0786650545155
773,592.9470737715016
774,592.8616973807517
775,592.8219373225838
776,592.8251889716366
777,592.8672604254762
778,592.9427848955676
779,593.0455673548322
780,593.1688545019283
781,593.3055652748725
782,593.4485394284676
783,593.5908405684776
784,593.726101368603
785,593.848859708344
786,593.9548325661918
787,594.0410989678073
788,594.1061862376179
789,594.150065092912
790,594.174062570873
791,594.1806996678033
792,594.173459301089
793,594.1564990141849
794,594.134335174085
795,594.1115226520417
796,594.0923350467765
797,594.0804372217016
798,594.0785506010142
799,594.0881368687252
800,594.1091513637551
801,594.1399300305527
802,594.1772675785044
803,594.2167221875112
804,594.2531481203299
805,594.281412792139
806,594.2972028153209
807,594.2977781454757
808,594.2825150708352
809,594.2531041087506
810,594.2133398735361
811,594.1685368463442
812,594.1246918781977
813,594.087560073085
814,594.0618111407307
815,594.0504067492786
816,594.054296840886
817,594.0724697700797
818,594.1023136850691
819,594.1401815993286
820,594.1820245677769
821,594.2239697579248
822,594.2627569672007
823,594.2959864662217
824,594.3221643518127
825,594.3405653764435
826,594.3509655967107
827,594.3533114342516
828,594.3473855809729
829,594.3325263638152
830,594.3074684295559
831,594.2703772302841
832,594.2191180901048
833,594.1517329687467
834,594.0670258136012
835,593.965113628458
836,593.847798856039
837,593.7186572468993
838,593.5828034496298
839,593.4463738909757
840,593.3158277841359
841,593.1971948100199
842,593.0953896311285
843,593.0136803160793
844,592.9533593940737
845,592.9136388395073
846,592.8917770150906
847,592.8834362900925
848,592.8832491733073
849,592.88553107813
850,592.8850340208157
851,592.8776196145889
852,592.8607586230645
853,592.8338166787267
854,592.7981248983101
855,592.7568490680094
856,592.7146800196841
857,592.6773850378975
858,592.6512760483986
859,592.6426498204578
860,592.6572439816329
861,592.6997499350614
862,592.773430906906
863,592.8798858416857
864,593.0189659906164
865,593.1888163470035
866,593.3860090799369
867,593.6057598741746
868,593.8422438297052
869,594.089025228771
870,594.3395749363643
871,594.5877978784905
872,594.8284739217662
873,595.0575406495049
874,595.2721906849862
875,595.4707913104724
876,595.652652880264
877,595.8176835111052
878,595.965979681581
879,596.0974150753345
880,596.211295898175
881,596.30614677951
882,596.3796817201495
883,596.4289997552485
884,596.4510140844935
885,596.4430706208316
886,596.4036536101866
887,596.3330388989039
888,596.2337541351778
889,596.1107382235543
890,595.971150794993
891,595.823853008405
892,595.6786455449663
893,595.5453909277259
894,595.4331564120282
895,595.349491222701
896,595.2999076206916
897,595.2875884738604
898,595.3133128178582
899,595.3755761721641
900,595.4708709399602
901,595.5940775607515
902,595.7389084207937
903,595.8983555742743
904,596.0651169847548
905,596.2319975267225
906,596.3922889452436
907,596.5401286166331
908,596.6708220102796
909,596.7810899486477
910,596.8691844741397
911,596.934827858963
912,596.9789703292371
913,597.003411678757
914,597.0103648509568
915,597.0020458510392
916,596.9803624866032
917,596.9467581409951
