frame_number,force
0,492.7614700054994
1,492.8111308424798
2,492.86061450799053
3,492.9097451000734
4,492.9583492442152
5,493.00625732832003
6,493.053304703522
7,493.09933283973606
8,493.144190424801
9,493.1877343961012
10,493.22983089438287
11,493.2703561314977
12,493.309197166185
13,493.3462525832203
14,493.3814330706021
15,493.41466188765025
16,493.4458752153585
17,493.4750223802168
18,493.50206594465385
19,493.5269816613378
20,493.5497582939109
21,493.570397311743
22,493.5889124696716
23,493.6053292851417
24,493.6196844251794
25,493.6320250150029
26,493.64240787938525
27,493.65089872738014
28,493.6575712905785
29,493.66250642457925
30,493.6657911831357
31,493.66751787481866
32,493.66778311263664
33,493.66668686697506
34,493.66433153092146
35,493.660821005081
36,493.65625980754703
37,493.65075221451883
38,493.6444014378334
39,493.6373088464832
40,493.6295732392675
41,493.621290174888
42,493.61255136446243
43,493.60344413019794
44,493.59405093325984
45,493.5844489735837
46,493.57470986403405
47,493.564899380594
48,493.55507728939693
49,493.5452972507562
50,493.535606799793
51,493.5260474024101
52,493.51665458400464
53,493.50745812644715
54,493.49848232658337
55,493.48974630727866
56,493.48126437058875
57,493.47304638255434
58,493.4650981802421
59,493.4574219933072
60,493.45001687378124
61,493.4428791283299
62,493.4360027464847
63,493.42937981665307
64,493.4230009202504
65,493.4168554944044
66,493.41093215592196
67,493.40521898309146
68,493.39970375616656
69,493.39437416067767
70,493.3892179590937
71,493.3842231355626
72,493.3793780162299
73,493.37467136558644
74,493.3700924589415
75,493.3656311326414
76,493.3612778157725
77,493.357023548331
78,493.3528599906065
79,493.34877942699546
80,493.34477476516184
81,493.34083952914006
82,493.336967843333
83,493.3331544037167
84,493.3293944328883
85,493.32568361658275
86,493.32201802038236
87,493.31839398606485
88,493.31480800733954
89,493.31125658493414
90,493.30773606136637
91,493.30424243642966
92,493.3007711654918
93,493.2973169439398
94,493.2938734822141
95,493.29043327688066
96,493.28698738416415
97,493.2835252029986
98,493.28003427447584
99,493.27650010357615
100,493.27290600786404
101,493.2692329973247
102,493.2654596901419
103,493.2615622704628
104,493.25751449492583
105,493.2532877540856
106,493.24885119284596
107,493.2441718913354
108,493.2392151052178
109,493.23394456286013
110,493.2283228161727
111,493.22231164183245
112,493.21587248938846
113,493.20896697220985
114,493.20155739648436
115,493.1936073225952
116,493.18508215225063
117,493.1759497337304
118,493.16618097661626
119,493.155750466619
120,493.14463707079636
121,493.13282452346306
122,493.1203019833347
123,493.10706455298657
124,493.09311375232716
125,493.07845793788726
126,493.063112659219
127,493.0471009433161
128,493.03045349845115
129,493.0132088301895
130,492.99541326421877
131,492.97712087284697
132,492.9583933045633
133,492.93929951868984
134,492.9199154294525
135,492.90032346545405
136,492.88061205152104
137,492.8608750203453
138,492.84121096127734
139,492.82172251303626
140,492.8025156062695
141,492.7836986615208
142,492.76538174869944
143,492.74767571524336
144,492.73069129111593
145,492.7145381793226
146,492.699324141129
147,492.6851540860328
148,492.67212917783667
149,492.6603459694414
150,492.64989557953913
151,492.64086292397184
152,492.63332601341045
153,492.6273553273191
154,492.6230132715167
155,492.62035372288426
156,492.61942166055735
157,492.62025287940014
158,492.6228737793386
159,492.62730122315264
160,492.6335424552677
161,492.6415950750655
162,492.65144706047255
163,492.6630768403636
164,492.67645341619465
165,492.691536533717
166,492.70827690547816
167,492.72661648480283
168,492.7464887915886
169,492.76781928885356
170,492.7905258069176
171,492.81451901052515
172,492.83970290362316
173,492.8659753663545
174,492.89322871849583
175,492.9213503032482
176,492.95022308566246
177,492.9797262613431
178,493.0097358728929
179,493.0401254329485
180,493.07076655313347
181,493.10152957791
182,493.13228422141924
183,493.1629002044035
184,493.19324788772343
185,493.2231988989568
186,493.2526267486739
187,493.2814074329695
188,493.3094200191846
189,493.33654721293124
190,493.3626759061421
191,493.38769770705176
192,493.4115094534325
193,493.43401371025584
194,493.45511925235013
195,493.47474153152547
196,493.4928031263059
197,493.5092341714856
198,493.5239727645838
199,493.5369653465758
200,493.54816705437406
201,493.5575420421433
202,493.5650637677778
203,493.57071523998326
204,493.5744892206253
205,493.57638837649796
206,493.576425374429
207,493.5746229137193
208,493.57101369061843
209,493.56564029105
210,493.55855500968283
211,493.5498195948507
212,493.53950491934324
213,493.52769057724225
214,493.51446440761185
215,493.4999219473071
216,493.4841658171182
217,493.46730504739475
218,493.4494543507615
219,493.43073335032176
220,493.4112657719002
221,493.3911786086903
222,493.37060126638414
223,493.34966469662413
224,493.3285005265043
225,493.30724019175875
226,493.28601408105243
227,493.2649506985576
228,493.24417585204867
229,493.2238118740487
230,493.20397688363795
231,493.18478409568394
232,493.1663411820816
233,493.1487496867438
234,493.1321044938969
235,493.11649334860056
236,493.1019964291942
237,493.08868597291763
238,493.07662595762116
239,493.06587184382147
240,493.0564703820496
241,493.04845949015623
242,493.04186820377265
243,493.0367167006834
244,493.03301639701687
245,493.03077011042933
246,493.02997228331213
247,493.0306092580745
248,493.0326595969088
249,493.03609443942287
250,493.04087789234086
251,493.0469674461824
252,493.0543144148048
253,493.0628643947138
254,493.07255774150434
255,493.08333006052777
256,493.09511270840136
257,493.10783330182056
258,493.12141623040986
259,493.1357831708766
260,493.150853600331
261,493.16654530707103
262,493.1827748970889
263,493.1994582940101
264,493.216511229451
265,493.2338497200252
266,493.2513905264224
267,493.2690515893593
268,493.2867524373045
269,493.304414562058
270,493.3219617603232
271,493.33932044164135
272,493.3564199046731
273,493.3731925841991
274,493.38957427024826
275,493.405504299071
276,493.4209257143808
277,493.435785397053
278,493.4500341622644
279,493.46362682457357
280,493.4765222331937
281,493.48868328104345
282,493.50007689174976
283,493.5106739889244
284,493.52044945207075
285,493.5293820632163
286,493.5374544475748
287,493.54465301043564
288,493.5509678713628
289,493.556392795617
290,493.5609251213728
291,493.56456567997924
292,493.5673187055423
293,493.5691917295483
294,493.5701954558982
295,493.5703436116651
296,493.56965276971687
297,493.56814214154633
298,493.5658333419425
299,493.5627501305047
300,493.5589181375202
301,493.5543645829575
302,493.5491179970644
303,493.5432079491974
304,493.5366647886789
305,493.52951939906296
306,493.5218029662405
307,493.5135467612586
308,493.50478193969866
309,493.4955393600612
310,493.48584942337374
311,493.475741935212
312,493.4652459899095
313,493.4543898756206
314,493.4432009986358
315,493.4317058258295
316,493.4199298447373
317,493.4078975410745
318,493.3956323935071
319,493.38315688522795
320,493.3704925316795
321,493.35765992404623
322,493.34467878878877
323,493.3315680637244
324,493.3183459906672
325,493.3050302240284
326,493.2916379546188
327,493.2781860480339
328,493.2646911969447
329,493.251170086083
330,493.2376395678524
331,493.22411684564264
332,493.2106196613217
333,493.1971664830295
334,493.1837766889779
335,493.17047074210416
336,493.1572703492838
337,493.144198598094
338,493.1312800642588
339,493.1185408836467
340,493.1060087837972
341,493.09371307144806
342,493.08168457413865
343,493.0699555351257
344,493.0585594615713
345,493.04753092697655
346,493.036905330537
347,493.02671861798615
348,493.0170069698643
349,493.00780646389984
350,492.99915271853774
351,492.99108052454824
352,492.9836234709915
353,492.97681357111173
354,492.97068089370555
355,492.96525320600256
356,492.96055563407884
357,492.95661034585595
358,492.95343626048816
359,492.9510487871497
360,492.94945959590416
361,492.9486764230965
362,492.948702913304
363,492.9495384992255
364,492.9511783201725
365,492.9536131792712
366,492.95682953909494
367,492.96080955501503
368,492.9655311451553
369,492.9709680957095
370,492.9770902007913
371,492.98386343700645
372,492.99125017413564
373,492.9992094237982
374,493.0076971272461
375,493.01666648191514
376,493.0260683048279
377,493.0358514296413
378,493.0459631328273
379,493.0563495830705
380,493.06695630660613
381,493.07772866006115
382,493.0886123017575
383,493.0995536528426
384,493.11050034075856
385,493.12140161833867
386,493.1322087514347
387,493.14287536680445
388,493.15335775125186
389,493.1636150937472
390,493.17360966455345
391,493.18330692864834
392,493.1926755944373
393,493.20168760255876
394,493.2103180629351
395,493.21854515029247
396,493.2263499686572
397,493.2337163941876
398,493.24063090410203
399,493.2470823982671
400,493.25306201966873
401,493.2585629804895
402,493.26358040128815
403,493.2681111708103
404,493.27215383238354
405,493.27570849967
406,493.27877680090035
407,493.2813618480704
408,493.28346822664855
409,493.28510200182393
410,493.2862707383666
411,493.2869835320192
412,493.2872510507468
413,493.28708558416156
414,493.28650109880454
415,493.285513295563
416,493.2841396637469
417,493.28239952509364
418,493.28031406084597
419,493.2779063160928
420,493.2752011772928
421,493.27222532080566
422,493.26900713213405
423,493.2655765972504
424,493.2619651684448
425,493.25820560724077
426,493.2543318062104
427,493.25037859062274
428,493.2463815005721
429,493.2423765549254
430,493.23839999983306
431,493.23448804617186
432,493.230676601664
433,493.2270010041154
434,493.2234957619255
435,493.2201943067653
436,493.2171287613703
437,493.2143297231862
438,493.2118260629017
439,493.2096447366196
440,493.2078106115773
441,493.2063463069036
442,493.20527205190245
443,493.2046055646375
444,493.2043619533906
445,493.20455364303507
446,493.2051903277765
447,493.20627895147265
448,493.20782371689586
449,493.2098261253763
450,493.21228504765304
451,493.21519682530715
452,493.2185554004205
453,493.2223524698148
454,493.22657765951624
455,493.2312187145603
456,493.2362616986664
457,493.24169119787354
458,493.24749052238195
459,493.25364190182364
460,493.2601266705522
461,493.2669254405501
462,493.2740182601985
463,493.281384758025
464,493.28900427153184
465,493.29685596141394
466,493.30491891065486
467,493.31317220706126
468,493.32159500779073
469,493.33016658537827
470,493.33886635588607
471,493.3476738903822
472,493.35656891101524
473,493.36553127302994
474,493.3745409345013
475,493.38357791634945
476,493.3926222561889
477,493.4016539604334
478,493.4106529593962
479,493.41959906951934
480,493.42847196515424
481,493.437251159849
482,493.4459159949789
483,493.4544456329997
484,493.46281905390606
485,493.47101505581736
486,493.47901226279015
487,493.4867891441344
488,493.4943240495323
489,493.5015952634724
490,493.50858108123117
491,493.5152599069639
492,493.52161037267115
493,493.5276114754918
494,493.53324273050265
495,493.53848433695896
496,493.54331735700634
497,493.54772390671087
498,493.5516873597862
499,493.5551925646699
500,493.55822607518394
501,493.56077639360194
502,493.56283422295036
503,493.564392723461
504,493.5654477665645
505,493.5659981786177
506,493.56604596578
507,493.56559651129055
508,493.5646587369385
509,493.5632452216652
510,493.56137227175213
511,493.5590599385985
512,493.5563319815084
513,493.55321577433574
514,493.54974215647957
515,493.54594523055664
516,493.54186211085715
517,493.5375326280403
518,493.53299899646413
519,493.5283054515047
520,493.5234978653445
521,493.5186233505276
522,493.51372986063893
523,493.5088657967087
524,493.50407962661615
525,493.4994195232864
526,493.49493302613655
527,493.4906667289021
528,493.4866659953461
529,493.48297470240755
530,493.4796350084505
531,493.47668714293104
532,493.47416921347974
533,493.472117027253
534,493.4705639251207
535,493.46954062926335
536,493.4690751066265
537,493.46919245215616
538,493.46991479645135
539,493.4712612419872
540,493.47324782996685
541,493.4758875365002
542,493.4791902936374
543,493.48316302931846
544,493.48780972065606
545,493.4931314562904
546,493.499126505337
547,493.5057903925442
548,493.51311598120066
549,493.5210935662963
550,493.52971098009067
551,493.53895371081705
552,493.54880503344026
553,493.55924614996775
554,493.5702563363219
555,493.58181309320065
556,493.5938922992127
557,493.6064683652887
558,493.61951438966616
559,493.6330023127189
560,493.64690307080417
561,493.66118674839186
562,493.67582272812757
563,493.6907798390158
564,493.70602650330414
565,493.7215308827601
566,493.73726102498733
567,493.7531850104687
568,493.76927110122693
569,493.78548789235924
570,493.8018044681826
571,493.8181905650342
572,493.8346167424131
573,493.85105456298
574,493.86747678043537
575,493.8838575331243
576,493.90017254059256
577,493.9163992998792
578,493.93251727747503
579,493.9485080914407
580,493.964355676706
581,493.98004642583237
582,493.99556929780243
583,494.0109158885354
584,494.02608045850826
585,494.0410599149188
586,494.0558537481631
587,494.0704639245804
588,494.08489473858225
589,494.0991526271175
590,494.113245948813
591,494.12718473035864
592,494.14098038409986
593,494.1546454025277
594,494.1681930365558
595,494.1816369648623
596,494.19499096114475
597,494.208268564918
598,494.22148275970056
599,494.23464566042253
600,494.2477682100321
601,494.2608598840397
602,494.27392840151936
603,494.28697944184165
604,494.30001636761125
605,494.31303995555925
606,494.3260481385616
607,494.3390357635808
608,494.3519943718967
609,494.36491200912684
610,494.37777307289394
611,494.39055820524004
612,494.4032442350954
613,494.41580417402764
614,494.42820726708976
615,494.4404191002839
616,494.45240176656716
617,494.46411409243564
618,494.47551192599
619,494.4865484851022
620,494.4971747620418
621,494.5073399795312
622,494.51699209236705
623,494.52607832776937
624,494.53454575625375
625,494.54234188315485
626,494.5494152492827
627,494.55571602836847
628,494.56119660966175
629,494.5658121558709
630,494.56952112834597
631,494.57228577229955
632,494.5740725553753
633,494.5748525537352
634,494.5746017812834
635,494.5733014594329
636,494.5709382265409
637,494.5675042875308
638,494.5629975053423
639,494.55742143695517
640,494.55078531801144
641,494.5431040013768
642,494.53439785571845
643,494.5246926295375
644,494.5140192839976
645,494.5024137953389
646,494.4899169260546
647,494.4765739642237
648,494.46243443220897
649,494.4475517680499
650,494.4319829839765
651,494.41578830643556
652,494.3990308016391
653,494.38177599034975
654,494.36409145496265
655,494.3460464404192
656,494.32771144830974
657,494.30915782171365
658,494.29045731781287
659,494.2716816661426
660,494.2529021119417
661,494.2341889460339
662,494.21561102482343
663,494.19723528586314
664,494.17912626541596
665,494.16134562416755
666,494.14395168615874
667,494.1269989949156
668,494.1105378902748
669,494.09461410943425
670,494.07926841576585
671,494.0645362587472
672,494.05044746836876
673,494.0370259879333
674,494.0242896501466
675,494.0122500023174
676,494.00091218679484
677,493.9902748822832
678,493.98033031068013
679,493.97106431308265
680,493.9624564975652
681,493.9544804596549
682,493.9471040737906
683,493.94028985095247
684,493.93399535474487
685,493.9281736658614
686,493.9227738833776
687,493.9177416512757
688,493.9130197002441
689,493.90854839743423
690,493.90426629942203
691,493.9001107055198
692,493.8960182096557
693,493.89192524908003
694,493.88776864735075
695,493.8834861480973
696,493.8790169354018
697,493.8743021361689
698,493.86928529968094
699,493.8639128499763
700,493.85813450733417
701,493.85190367514235
702,493.84517778782043
703,493.8379186153013
704,493.8300925206312
705,493.82167066938314
706,493.81262919197025
707,493.80294930162063
708,493.792617371239
709,493.78162497193114
710,493.7699688753281
711,493.7576510213873
712,493.7446784529104
713,493.7310632174185
714,493.7168222365377
715,493.7019771433324
716,493.6865540893378
717,493.67058352470696
718,493.6540999558164
719,493.6371416846915
720,493.6197505344199
721,493.6019715645629
722,493.583852780019
723,493.56544483561225
724,493.54680073726377
725,493.5279755394825
726,493.5090260385365
727,493.4900104610454
728,493.47098814825495
729,493.4520192363174
730,493.43316433255046
731,493.4144841873908
732,493.3960393619731
733,493.3778898919931
734,493.36009494947086
735,493.34271250453065
736,493.3257989888065
737,493.3094089609003
738,493.29359477361436
739,493.27840624323034
740,493.26389032251546
741,493.2500907802814
742,493.2370478904944
743,493.22479813340186
744,493.21337391056636
745,493.20280327538507
746,493.1931096806054
747,493.18431174450603
748,493.17642303776057
749,493.1694518936284
750,493.1634012452641
751,493.158268495472
752,493.15404542546327
753,493.15071814973413
754,493.1482671243266
755,493.1466672153007
756,493.145887832361
757,493.14589312889314
758,493.14664226518977
759,493.1480897280139
760,493.1501856977844
761,493.15287645434387
762,493.15610481280015
763,493.15981058212725
764,493.1639310411631
765,493.1684014290032
766,493.1731554486285
767,493.17812578320013
768,493.18324462380156
769,493.1884442062019
770,493.1936573532472
771,493.1988180190877
772,493.20386183152397
773,493.20872662898194
774,493.21335298841143
775,493.2176847393124
776,493.2216694575888
777,493.22525893204124
778,493.22840959650983
779,493.23108292156815
780,493.2332457608267
781,493.2348706483618
782,493.2359360456207
783,493.236426537974
784,493.23633298208466
785,493.2356526049393
786,493.2343890540609
787,493.23255239698597
788,493.2301590672373
789,493.22723175406554
790,493.22379923427826
791,493.2198961462207
792,493.21556270749784
793,493.2108443786143
794,493.2057914745788
795,493.20045872651104
796,493.1949047959927
797,493.18919174629
798,493.1833844761105
799,493.17755012253895
800,493.1717574399407
801,493.16607616125384
802,493.16057634769925
803,493.1553277327905
804,493.1503990667975
805,493.1458574684016
806,493.1417677905864
807,493.138192007349
808,493.13518862673715
809,493.13281213446294
810,493.13111247121867
811,493.13013454622876
812,493.1299177898927
813,493.13049574941743
814,493.13189573230477
815,493.1341385027896
816,493.1372380357933
817,493.141201332037
818,493.1460282970256
819,493.15171168592485
820,493.1582371160943
821,493.1655831492558
822,493.1737214457119
823,493.1826169931938
824,493.1922284123028
825,493.20250833902577
826,493.2134038828872
827,493.2248571576475
828,493.2368058803991
829,493.2491840341209
830,493.2619225874567
831,493.2749502632899
832,493.28819434501395
833,493.30158150726675
834,493.31503865719196
835,493.32849377307895
836,493.3418767286314
837,493.3551200920883
838,493.3681598897462
839,493.38093632369424
840,493.3933944342538
841,493.4054846986311
842,493.4171635585843
843,493.4283938717736
844,493.4391452838904
845,493.4493945207995
846,493.45912560080603
847,493.4683299669753
848,493.4770065394198
849,493.4851616885095
850,493.49280913164387
851,493.4999697575435
852,493.50667138261207
853,493.51294844428725
854,493.51884163710133
855,493.5243974984848
856,493.5296679526004
857,493.5347098208224
858,493.5395843063745
859,493.5443564586357
860,493.5490946209603
861,493.5538698651977
862,493.5587554157958
863,493.5638260656103
864,493.56915758440635
865,493.57482612004895
866,493.58090759174235
867,493.58747707452653
868,493.59460817489975
869,493.60237239900465
870,493.6108385168361
871,493.62007192781857
872,493.6301340346493
873,493.64108163366274
874,493.6529663312774
875,493.6658339970304
876,493.679724263472
877,493.69467008136303
878,493.7106973359736
879,493.72782452806615
880,493.7460625216221
881,493.7654143589582
882,493.78587514232845
883,493.80743197970105
884,493.8300639915181
885,493.8537423752375
886,493.87843052549886
887,493.90408420944675
888,493.93065179822094
889,493.9580745560832
890,493.98628698796796
891,494.0152172451866
892,494.04478758863235
893,494.07491490919733
894,494.1055113052323
895,494.1364847157741
896,494.1677396058983
