acceleration,velocity,displacement
-0.00970669707979892,0.0,0.0
-0.008719016837528331,-4.6064284793318134e-06,-1.1516071198329535e-09
-0.007734860272480524,-8.719897756834028e-06,-4.4831886788744136e-09
-0.006757725813179573,-1.2343044278249052e-05,-9.748924187645183e-09
-0.0057910616210266296,-1.5480241136800602e-05,-1.6704745541407596e-08
-0.0048382410285334075,-1.813756679919061e-05,-2.51091975254054e-08
-0.0039025386569449465,-2.03227617205602e-05,-3.47242796553431e-08
-0.002987107434045529,-2.204517324330782e-05,-4.53162633963101e-08
-0.0020949567338448857,-2.3315689285280423e-05,-5.665647902845716e-08
-0.0012289318591511013,-2.414666143352942e-05,-6.852206670815963e-08
-0.0003916950715794725,-2.4551818166212062e-05,-8.069668660809501e-08
0.0004142916665703246,-2.454616901746435e-05,-9.297118340401412e-08
0.0011867821214762526,-2.4145900570452704e-05,-1.0514420080099339e-07
0.0019237592950439811,-2.3368265216322645e-05,-1.1702274224768722e-07
0.0026234469042995426,-2.2231463666486764e-05,-1.2842267446838957e-07
0.003284318691165015,-2.0754522267620625e-05,-1.3916917095191643e-07
0.003905105390453173,-1.895716624721608e-05,-1.4909709308062562e-07
0.004484799181358648,-1.6859690104263125e-05,-1.580513071684954e-07
0.005022655486229037,-1.4482826437366203e-05,-1.6588693630390273e-07
0.005518192061668758,-1.1847614550391755e-05,-1.7246954655084223e-07
0.005971185433221486,-8.975270176669194e-06,-1.7767526773260748e-07
0.0063816648244711715,-5.88705761224603e-06,-1.813908496798363e-07
0.0067499037986908225,-2.6041654564555314e-06,-1.835136554470117e-07
0.0070764098599402706,8.524129582022421e-07,-1.83951593571575e-07
0.007361912260873645,4.461993488405721e-06,-1.82622991959923e-07
0.007607348252044124,8.204308616635163e-06,-1.7945641643366278e-07
0.007813847993734973,1.2059607678079939e-05,-1.74390437359984e-07
0.007982718341368945,1.6008749261855918e-05,-1.6737334812500006e-07
0.008115425706710743,2.003328527387584e-05,-1.583628394910671e-07
0.008213578187455326,2.4115536247417356e-05,-1.4732563411074381e-07
0.008278907153378933,2.823865758262592e-05,-1.34237085653233e-07
0.008313248484767007,3.2386696492162404e-05,-1.1908074713453593e-07
0.008318523670773832,3.6544639531047614e-05,-1.0184791312873342e-07
0.008296720973790495,4.06984506921887e-05,-8.253714057292435e-08
0.00824987684015331,4.483510014567465e-05,-6.115375286345851e-08
0.008180057698483106,4.894258378033375e-05,-3.7709331881956413e-08
0.008089342258322979,5.300993376953527e-05,-1.2221202494489158e-08
0.007979804418303012,5.702722043869177e-05,1.5288086057567604e-08
0.007853496908468536,6.0985545770384655e-05,4.4791277609836716e-08
0.007712435807428046,6.48770289493588e-05,7.625692128977258e-08
0.007558586076462495,6.869478442033144e-05,1.0964987463219514e-07
0.007393848236133496,7.243289299848043e-05,1.449317939868981e-07
0.007220046284272359,7.60863666285819e-05,1.8206160889366369e-07
0.007038916929801083,7.965110743210026e-05,2.2099597740883421e-07
0.006852100202745488,8.31238617152369e-05,2.616897196956685e-07
0.006661131495090367,8.650216963969587e-05,3.040962275344017e-07
0.00646743508028229,8.978431128353903e-05,3.4816784776521046e-07
0.006272319144868658,9.296924983982676e-05,3.9385623804605193e-07
0.006076972348419252,9.605657271314875e-05,4.4111269368429583e-07
0.0058824619148177566,9.9046431278958e-05,4.898884446823225e-07
0.005689733246977881,0.0001019394800694069,5.401349225194137e-07
0.005499611040079618,0.00010473681614117128,5.918039965720583e-07
0.005312801841476085,0.00010743991936156021,6.448481804477412e-07
0.005129897968309445,0.0001100505943140066,6.992208088666329e-07
0.00495138264873233,0.00011257091446826704,7.548761860622013e-07
0.004777636208116473,0.00011500316918247923,8.117697069748879e-07
0.004608943093094571,0.000117349814007782,8.698579527724532e-07
0.004445499524553918,0.00011961342466219412,9.290987624399473e-07
0.0042874215930746905,0.00012179665494160128,9.894512823408961e-07
0.004134753643186159,0.00012390219875066649,1.050875995763963e-06
0.003987476821203961,0.00012593275636676402,1.1133347345433206e-06
0.003845517672197999,0.0001278910049901145,1.1767906748825403e-06
0.003708756656883692,0.00012977957357238493,1.2412083195231651e-06
0.003577036425442246,0.00013160102184296642,1.306553468377003e-06
0.0034501696562232414,0.00013335782336338278,1.3727931796785904e-06
0.003327946269395782,0.00013505235234478755,1.439895723605633e-06
0.0032101398701664266,0.0001366868738796781,1.5078305301617494e-06
0.0030965133534086994,0.0001382635371855719,1.576568132928062e-06
0.0029868236865287544,0.00013978437144555625,1.6460801100858439e-06
0.0028808259530281196,0.00014125128385544548,1.7163390239110942e-06
0.002778276766600285,0.00014266605953535257,1.7873183597587937e-06
0.0026789371498066174,0.0001440303630144543,1.8589924653962454e-06
0.002582574927030886,0.00014534574103366367,1.931336491408275e-06
0.002488966640693335,0.00014661362642559472,2.0043263332730895e-06
0.0023978989926349056,0.00014783534283392677,2.07793857558797e-06
0.0023091698428894733,0.00014901211004280786,2.1521504388071537e-06
0.002222588840208189,0.00015014504971358228,2.226939728746251e-06
0.002137977783431493,0.0001512351913694922,2.30228478901702e-06
0.0020551708081149264,0.0001522834785173788,2.3781644564887378e-06
0.001974014462370816,0.00015329077483500022,2.4545580198268325e-06
0.0018943676901748492,0.00015425787037313664,2.5314451811288667e-06
0.0018161016941964727,0.00015518548771922946,2.608806020651958e-06
0.0017390996175419464,0.00015607428804716408,2.6866209645935563e-06
0.0016632559710566704,0.00015692487694431373,2.764870755841426e-06
0.0015884757392977836,0.00015773780987190234,2.84353642754548e-06
0.0015146731179457018,0.0001585135970862132,2.922599279285009e-06
0.0014417698572798258,0.00015925270783001959,3.002040855514067e-06
0.001369693200695741,0.00015995557359451348,3.0818429258702006e-06
0.001298373413282789,0.0001606225902480081,3.161987466830831e-06
0.001227740899715858,0.00016125411882625775,3.2424566440993973e-06
0.0011577229181077876,0.00016185048478071365,3.3232327950011404e-06
0.0010882399102951751,0.0001624119754878144,3.4042984100682722e-06
0.0010192014902979214,0.00016293883583796265,3.4856361128997165e-06
0.0009505021572457326,0.00016343126174984856,3.5672286372966694e-06
0.0008820168211485869,0.00016388939149444715,3.649058800607743e-06
0.0008135962498533528,0.00016431329476219764,3.7311094721719043e-06
0.000745062564961452,0.00016470295946590134,3.813363535728929e-06
0.0006762049270256919,0.00016505827633889813,3.895803844680129e-06
0.0006067755468793276,0.00016537902145737437,3.978413169129198e-06
0.0005364861401220157,0.00016566483687912472,4.061174133713322e-06
0.000465004917904862,0.00016591520964363143,4.1440691453440115e-06
0.00039195419705659307,0.0001661294494223718,4.227080310110512e-06
0.000316908725028729,0.00016630666515289312,4.3101893387543285e-06
0.00023939483990417744,0.00016644574104412635,4.393377440303583e-06
0.00015889060022403564,0.0001665453124041584,4.476625203665654e-06
7.482700663725919e-05,0.00016660374180587373,4.559912467218162e-06
-1.3409602861140027e-05,0.00016661909615681776,4.643218176708835e-06
-0.00010647395559137149,0.00016658912526720462,4.7265202320648405e-06
-0.0002050570647611506,0.0001665112425121165,4.809795324009671e-06
-0.00030988031924570936,0.00016638250816611479,4.893018761679229e-06
-0.0004216885058943203,0.00016619961595982979,4.976164292710715e-06
-0.000541241829795083,0.00016595888337590743,5.059203917544649e-06
-0.0006693070021239941,0.00016565624616792765,5.142107699930608e-06
-0.0008066474759194936,0.00016528725754841678,5.224843575859694e-06
-0.000954012925087393,0.00016484709244816507,5.307377163358839e-06
-0.0011121280794496246,0.0001643305571970308,5.389671575770139e-06
-0.0012816810476092564,0.00016373210491526607,5.471687241298213e-06
-0.0014633112794982818,0.00016304585683348918,5.553381731735402e-06
-0.0016575973403030755,0.00016226562967853884,5.634709603363408e-06
-0.0018650446824645527,0.00016138496917284694,5.715622253076255e-06
-0.0020860736087968787,0.0001603971896000316,5.796067792769475e-06
-0.0023210076196068974,0.00015929541929293064,5.875990944992715e-06
-0.0025700623319290113,0.00015807265180504666,5.95533296276721e-06
-0.0028333351482614966,0.00015672180243499903,6.034031576327221e-06
-0.003110795839884401,0.00015523576968796255,6.1120209693579615e-06
-0.0034022782078189343,0.00015360750117603673,6.189231787073961e-06
-0.003707472994583872,0.00015183006337543602,6.26559117821183e-06
-0.004025922227494912,0.00014989671456991632,6.3410228726981685e-06
-0.004357015164649033,0.00014780098022188032,6.4154472963961176e-06
-0.004699985987578312,0.0001455367299338235,6.488781723935043e-06
-0.005053913347204881,0.00014309825510012769,6.5609404701935316e-06
-0.00541772182568324,0.00014048034630690566,6.63183512054529e-06
-0.005790185326184771,0.00013767836951893866,6.7013747995017515e-06
-0.006169932350279187,0.00013468834009982268,6.769466476906441e-06
-0.006555453076836554,0.00013150699374304373,6.836015310367158e-06
-0.006945108123451279,0.00012813185344297178,6.900925022163663e-06
-0.007337138851739769,0.00012456129169917401,6.964098308449199e-06
-0.007729679068914098,0.00012079458721901054,7.025437278178745e-06
-0.008120767979314986,0.00011683197545695327,7.084843918847736e-06
-0.008508364251359557,0.00011267469239928463,7.142220585811795e-06
-0.008890361081903584,0.00010832501106596885,7.197470511678109e-06
-0.009264602147463554,0.00010378627025862707,7.250498332009258e-06
-0.009628898321130508,9.906289514147855e-05,7.301210623359284e-06
-0.009981045012102426,9.416040930817032e-05,7.349516449471696e-06
-0.010318839965973598,8.908543806365132e-05,7.395327911314652e-06
-0.010640101353005338,8.384570273390658e-05,7.438560696514041e-06
-0.010942685961775738,7.84500059052113e-05,7.479134623673821e-06
-0.011224507298293308,7.290820759019405e-05,7.516974177047672e-06
-0.011483553364870702,6.723119242440304e-05,7.552009027051321e-06
-0.01171790386780663,6.143082811623371e-05,7.584174532186481e-06
-0.011925746591732966,5.551991550134881e-05,7.613412218090876e-06
-0.012105392686754897,4.951213068172684e-05,7.639670229636645e-06
-0.012255290636565422,4.3421959850896766e-05,7.6629037522698e-06
-0.012374038709368953,3.726462751441317e-05,7.683075399111128e-06
-0.012460395746173514,3.105601890052755e-05,7.700155560714864e-06
-0.012513290215887167,2.4812597410012375e-05,7.714122714792498e-06
-0.012531827550350884,1.8551317968452863e-05,7.724963693637114e-06
-0.012515295842914073,1.2289537120136624e-05,7.732673907409262e-06
-0.01246317003828466,6.044920649836941e-06,7.737257521851756e-06
-0.012375114760830795,-1.646505499419239e-07,7.738727589376729e-06
-0.012250985929698317,-6.3211757225742015e-06,7.7371061328086e-06
-0.012090831289615465,-1.2406630027402647e-05,7.732424181371106e-06
-0.0118948899417575,-1.8403060335245887e-05,7.724721758780444e-06
-0.011663590903747398,-2.4292680546622112e-05,7.714047823559977e-06
-0.011397550690555524,-3.0057965945197842e-05,7.700460161937022e-06
-0.01109756989936296,-3.5681746092677466e-05,7.684025233927554e-06
-0.01076462878434954,-4.1147295763605594e-05,7.664817973463483e-06
-0.010399881807618637,-4.643842341159764e-05,7.642921543669683e-06
-0.010004651159605518,-5.153955665340368e-05,7.618427048653432e-06
-0.009580419270104567,-5.64358242608312e-05,7.5914332034248735e-06
-0.009128820371932899,-6.111313417134056e-05,7.562045963816831e-06
-0.00865163121055685,-6.5558247066963e-05,7.530378118507255e-06
-0.008150761004801516,-6.975884512080258e-05,7.496548845460314e-06
-0.007628240766856665,-7.370359556371713e-05,7.4606832352891845e-06
-0.007086212096332412,-7.73822087795144e-05,7.422911784203377e-06
-0.006526915569530515,-8.078549069598013e-05,7.383369859334503e-06
-0.005952678837652499,-8.390538929777588e-05,7.342197139336064e-06
-0.005365904520588548,-8.673503513733614e-05,7.299537033227286e-06
-0.004769057946745009,-8.926877575416953e-05,7.25553608050441e-06
-0.004164654761795857,-9.150220393130475e-05,7.210343335583041e-06
-0.0035552484197390916,-9.343217972668848e-05,7.164109739668543e-06
-0.00294341757652848,-9.505684622575538e-05,7.116987483180433e-06
-0.002331753424268757,-9.637563897595469e-05,7.069129361880005e-06
-0.0017228470237749482,-9.738928908796561e-05,7.020688129864025e-06
-0.0011192767048618108,-9.80998200201248e-05,6.9718158525870025e-06
-0.0005235956042211748,-9.851053809739554e-05,6.922663263057623e-06
6.168059137591668e-05,-9.862601685060686e-05,6.8733791243206225e-06
0.0006340856285485561,-9.845207529562574e-05,6.824109601284064e-06
0.0011912143364365697,-9.799575030437946e-05,6.774997644884063e-06
0.0017307339039858629,-9.726526324427384e-05,6.7261823914969e-06
0.0022503947798364755,-9.626998107331826e-05,6.677798580417502e-06
0.0027480412128645373,-9.5020372075143e-05,6.6299759921303865e-06
0.003221621459678798,-9.352795640700717e-05,6.582838910009849e-06
0.003669197682370852,-9.180525162149475e-05,6.536505608002723e-06
0.004088955547852624,-8.986571331393888e-05,6.491087866768865e-06
0.004479213518281889,-8.772367104740525e-05,6.446690520678528e-06
0.004838431795564469,-8.539425971894366e-05,6.403411037986941e-06
0.005165220864590264,-8.289334655390498e-05,6.361339136418729e-06
0.005458349577013489,-8.023745394350404e-05,6.320556436294377e-06
0.005716752723433693,-7.744367836839225e-05,6.2811361532164026e-06
0.005939538043712962,-7.452960567660558e-05,6.243142832205153e-06
0.006125992617462493,-7.151322301131172e-05,6.206632125033174e-06
0.00627558856164472,-6.841282771653492e-05,6.171650612351212e-06
0.0063879879446687715,-6.524693358995654e-05,6.138235672024589e-06
0.006463046810799758,-6.20341749010894e-05,6.106415394901828e-06
0.00650081819860677,-5.879320864873777e-05,6.076208549014371e-06
0.006501554032469198,-5.5542615590968775e-05,6.047624592954444e-06
0.006465705767745968,-5.230080064091499e-05,6.020663738896473e-06
0.006393923684248988,-4.9085893277916245e-05,5.995317065416765e-06
0.006287054752707081,-4.591564866867723e-05,5.971566679930117e-06
0.0061461390363645564,-4.280735022140932e-05,5.949385930207596e-06
0.0059724046178098586,-3.9777714307865714e-05,5.928739664075277e-06
0.005767261051498927,-3.6842797890538515e-05,5.909584536025676e-06
0.005532291345427037,-3.4017909791307025e-05,5.891869359105215e-06
0.005269242488034335,-3.131752633294168e-05,5.875535500074153e-06
0.004980014565382016,-2.875521206958759e-05,5.8605173154735205e-06
0.004666648552474395,-2.6343546290123488e-05,5.846742625883593e-06
0.004331312900924835,-2.409405592677368e-05,5.834133225329368e-06
0.003976289074356104,-2.2017155432953444e-05,5.822605422489436e-06
0.003603956198508929,-2.0122094114737184e-05,5.8120706101025136e-06
0.003216774996158493,-1.8416911316070327e-05,5.802435858744811e-06
0.0028172711731863148,-1.6908399773734124e-05,5.79360453097236e-06
0.002408018416486549,-1.560207737631591e-05,5.785476911684848e-06
0.001991621159609173,-1.450216748229198e-05,5.777950850470196e-06
0.0015706972698312745,-1.3611587874931868e-05,5.770922411630891e-06
0.0011478608085670132,-1.2931948355332295e-05,5.764286527573324e-06
0.0007257050125793602,-1.2463556900045702e-05,5.75793765125948e-06
0.0003067856388735233,-1.2205434237182481e-05,5.751770403475173e-06
-0.0001063951828904673,-1.2155336623186717e-05,5.745680210760081e-06
-0.0005114044406389826,-1.230978652906908e-05,5.739563929972017e-06
-0.0009058929214118859,-1.2664110869581796e-05,5.733320455622354e-06
-0.0012876089497530813,-1.3212486337373038e-05,5.726851306320615e-06
-0.0016544110916922176,-1.3947991347734362e-05,5.720061186899338e-06
-0.002004279789716515,-1.4862664068086545e-05,5.712858523045383e-06
-0.002335327937579119,-1.5947565999910455e-05,5.705155965528384e-06
-0.002645810416448941,-1.719285058841747e-05,5.696870861381302e-06
-0.0029341325983146755,-1.8587836342108375e-05,5.68792568964867e-06
-0.00319885779183347,-2.0121083939645412e-05,5.678248459578232e-06
-0.0034387135726472364,-2.178047678076559e-05,5.667773069398129e-06
-0.003652596913503382,-2.3553304402303243e-05,5.656439624102362e-06
-0.0038395780158192285,-2.5426348134633897e-05,5.644194710968127e-06
-0.003998902749898394,-2.7385968326063304e-05,5.630991631852953e-06
-0.0041299936401864,-2.9418192423584504e-05,5.6167905916655405e-06
-0.004232449380536238,-3.1508803178765166e-05,5.601558842764953e-06
-0.004306042921122472,-3.3643426254179844e-05,5.585270785406717e-06
-0.004350718222947547,-3.5807616540197345e-05,5.567908024708123e-06
-0.004366585818588621,-3.7986942550581386e-05,5.5494593849354285e-06
-0.00435391733722867,-4.016706833953571e-05,5.5299208822128995e-06
-0.0043131391450006345,-4.2333832460093035e-05,5.509295657012992e-06
-0.00424482523221243,-4.44733235543963e-05,5.48759386800937e-06
-0.004149689462777176,-4.6571952228143706e-05,5.464832549063735e-06
-0.00402857728708205,-4.861651891560851e-05,5.441035431277797e-06
-0.003882457000148478,-5.0594277487416146e-05,5.4162327321770405e-06
-0.0037124106066241266,-5.2492994389109295e-05,5.390460914207909e-06
-0.0035196243450825574,-5.4301003127035964e-05,5.363762414828873e-06
-0.003305378929382599,-5.6007253945652254e-05,5.336185350560701e-06
-0.0030710395743902105,-5.760135857159546e-05,5.30778319743139e-06
-0.0028180458764576212,-5.9073629934307416e-05,5.278614450304914e-06
-0.002547901613582758,-6.041511680681751e-05,5.248742263619633e-06
-0.0022621645196535026,-6.161763334012658e-05,5.218234076082897e-06
-0.0019624360752757176,-6.267378348885888e-05,5.187161221875651e-06
-0.001650351349020692,-6.357698034493297e-05,5.155598530917203e-06
-0.0013275689237642776,-6.432146041312922e-05,5.123623920727687e-06
-0.0009957609536419365,-6.490229288248077e-05,5.091317982403784e-06
-0.0006566034115672444,-6.531538397378306e-05,5.058763563189718e-06
-0.00031176660227824024,-6.555747647724443e-05,5.026045348076961e-06
3.7093968051232795e-05,-6.562614463580118e-05,4.9932494427987e-06
0.0003883462622311619,-6.551978457823058e-05,4.960462960495192e-06
0.0007403898210973365,-6.523760055739846e-05,4.927773614211285e-06
0.0010916632332323179,-6.477958729381605e-05,4.895269317248481e-06
0.0014406509283156409,-6.414650875342905e-05,4.86303779323667e-06
0.0017858893014946614,-6.333987369597647e-05,4.831166197624319e-06
0.0021259722082033207,-6.236190831855197e-05,4.7997407521206865e-06
0.00245955587664433,-6.121552629734006e-05,4.7688463934667135e-06
0.00278536326591994,-5.9904296511699e-05,4.738566437764454e-06
0.0031021878642095184,-5.8432408729166634e-05,4.708982261454238e-06
0.0034088968956205623,-5.6804637539209115e-05,4.680172999887144e-06
0.0037044338997091193,-5.5026304840376694e-05,4.652215264292247e-06
0.0039878206634399015,-5.310324119958944e-05,4.625182877782256e-06
0.004258158515537017,-5.1041746404845206e-05,4.599146630881147e-06
0.004514629028007924,-4.884854951895897e-05,4.574174056900196e-06
0.00475649419615338,-4.653076871291865e-05,4.550329227342226e-06
0.00498309618007037,-4.409587111886271e-05,4.527672567384281e-06
0.005193856693610213,-4.155163290044257e-05,4.506260691379455e-06
0.005388276127428956,-3.8906099695182777e-05,4.486146258230549e-06
0.005565932487587109,-3.616754754142876e-05,4.467377846421396e-06
0.0057264802154085494,-3.334444436567985e-05,4.449999848444619e-06
0.005869648932302698,-3.044541207875204e-05,4.4340523843335104e-06
0.005995242131082038,-2.7479189312905856e-05,4.419571233985596e-06
0.006103135812048675,-2.445459482712318e-05,4.406587787950589e-06
0.00619327703544985,-2.1380491615248546e-05,4.3951290163399955e-06
0.006265682335582453,-1.826575177249047e-05,4.385217455493061e-06
0.006320435922521606,-1.5119222207964455e-05,4.376871211997947e-06
0.006357687586338678,-1.1949691330749385e-05,4.370103983613269e-06
0.0063776502117134076,-8.765856881236365e-06,4.364925096560273e-06
0.006380596809730095,-5.5762951258754885e-06,4.361339558558495e-06
0.00636685699009933,-2.3894316759181322e-06,4.359348126858047e-06
0.006336812840862706,7.864857818223767e-07,4.358947390384523e-06
