frame_number,force
0,692.029602003221
1,692.0009522179922
2,691.9723936279654
3,691.9440167179517
4,691.9159105671832
5,691.888162183489
6,691.8608558789928
7,691.8340726966395
8,691.8078898936288
9,691.7823804848017
10,691.757612846579
11,691.7336503800992
12,691.7105512304703
13,691.6883680575356
14,691.6671478526388
15,691.6469317959669
16,691.6277551502006
17,691.609647188027
18,691.5926311529083
19,691.5767242536706
20,691.5619376937518
21,691.5482767355453
22,691.535740799512
23,691.5243235971184
24,691.5140132965803
25,691.5047927205934
26,691.496639574933
27,691.489526705884
28,691.4834223836483
29,691.4782906088257
30,691.4740914396342
31,691.4707813380753
32,691.4683135333412
33,691.4666384005349
34,691.4657038525953
35,691.4654557434195
36,691.4658382805912
37,691.4667944467058
38,691.4682664285989
39,691.4701960534688
40,691.4725252299745
41,691.4751963913083
42,691.4781529362425
43,691.4813396631563
44,691.4847031909111
45,691.4881923594235
46,691.4917586026153
47,691.4953562876009
48,691.4989430160681
49,691.5024798857811
50,691.505931711306
51,691.509267203505
52,691.5124591074635
53,691.5154842985371
54,691.5183238363275
55,691.5209629769887
56,691.5233911456233
57,691.5256018722081
58,691.5275926956059
59,691.5293650404869
60,691.5309240719043
61,691.532278532171
62,691.5334405640913
63,691.5344255231383
64,691.5352517794054
65,691.5359405091326
66,691.5365154756894
67,691.5370028006123
68,691.5374307258633
69,691.5378293682353
70,691.5382304657102
71,691.538667114205
72,691.5391734924656
73,691.5397845732748
74,691.5405358204944
75,691.5414628736202
76,691.5426012243485
77,691.5439858922971
78,691.5456511084885
79,691.5476300151633
80,691.5499543892552
81,691.5526543947959
82,691.555758366948
83,691.559292627786
84,691.563281332112
85,691.5677463409463
86,691.5727071205077
87,691.5781806646539
88,691.5841814385354
89,691.5907213409289
90,691.5978096830153
91,691.6054531827158
92,691.6136559756977
93,691.6224196457204
94,691.6317432773297
95,691.641623533158
96,691.6520547567959
97,691.6630291008319
98,691.6745366783849
99,691.6865657353206
100,691.699102839297
101,691.7121330808664
102,691.7256402812252
103,691.7396072011219
104,691.7540157461247
105,691.7688471648128
106,691.7840822380417
107,691.7997014587255
108,691.815685202245
109,691.8320138876193
110,691.848668129213
111,691.8656288783588
112,691.882877554028
113,691.9003961614399
114,691.9181673969647
115,691.9361747369088
116,691.95440250715
117,691.9728359303839
118,691.9914611478212
119,692.0102652123092
120,692.0292360500786
121,692.0483623890156
122,692.067633652784
123,692.0870398219932
124,692.1065712650892
125,692.1262185420945
126,692.1459721839962
127,692.1658224504752
128,692.1857590694218
129,692.2057709630049
130,692.2258459660507
131,692.2459705422654
132,692.2661295023892
133,692.2863057267841
134,692.3064798944421
135,692.3266302211908
136,692.3467322112864
137,692.3667584279616
138,692.3866782896955
139,692.4064578999831
140,692.4260599189871
141,692.4454434853093
142,692.4645641952171
143,692.4833741452193
144,692.5018220420974
145,692.519853382586
146,692.5374107032303
147,692.5544338997669
148,692.5708606143853
149,692.5866266879127
150,692.6016666721492
151,692.6159143957829
152,692.629303576176
153,692.641768468761
154,692.6532445450869
155,692.6636691894003
156,692.6729824025678
157,692.6811275018471
158,692.6880518055905
159,692.6937072929915
160,692.698051230212
161,692.7010467556007
162,692.7026634179772
163,692.7028776627144
164,692.7016732606297
165,692.699041674831
166,692.6949823608621
167,692.6895029957997
168,692.6826196325243
169,692.6743567763106
170,692.6647473821035
171,692.6538327724675
172,692.6416624783453
173,692.6282940070206
174,692.6137925431316
175,692.5982305890219
176,692.5816875508264
177,692.5642492770888
178,692.5460075571146
179,692.527059585958
180,692.5075074015169
181,692.4874572969427
182,692.467019209431
183,692.4463060855396
184,692.4254332237809
185,692.4045175967009
186,692.3836771561041
187,692.3630301262126
188,692.3426942904052
189,692.3227862776671
190,692.3034208549175
191,692.2847102312734
192,692.2667633802151
193,692.249685385314
194,692.2335768144459
195,692.2185331264182
196,692.204644113093
197,692.191993379736
198,692.1806578663866
199,692.1707074131715
200,692.1622043726206
201,692.1552032725839
202,692.1497505344007
203,692.1458842518028
204,692.1436340356538
205,692.1430209277562
206,692.1440573841545
207,692.1467473254208
208,692.1510862488892
209,692.1570613958486
210,692.1646519652744
211,692.1738293651292
212,692.1845574933933
213,692.1967930438116
214,692.2104858344005
215,692.2255791582407
216,692.2420101554092
217,692.2597102028099
218,692.2786053162744
219,692.2986165575237
220,692.3196604380006
221,692.3416493124697
222,692.3644917573847
223,692.3880929314538
224,692.412354917903
225,692.4371770497758
226,692.4624562214042
227,692.4880871903343
228,692.5139628739055
229,692.5399746440739
230,692.5660126243009
231,692.5919659936392
232,692.617723304224
233,692.6431728178628
234,692.6682028653325
235,692.692702229477
236,692.7165605513699
237,692.7396687580483
238,692.7619195102207
239,692.783207668091
240,692.8034307724135
241,692.8224895362077
242,692.8402883410997
243,692.8567357317949
244,692.8717449027076
245,692.885234171529
246,692.8971274347538
247,692.9073545997685
248,692.9158519873515
249,692.9225626978282
250,692.9274369340479
251,692.9304322750679
252,692.9315138959311
253,692.9306547308004
254,692.9278355783122
255,692.9230451489337
256,692.9162800544271
257,692.9075447395829
258,692.8968513565927
259,692.8842195831404
260,692.8696763865157
261,692.8532557372489
262,692.8349982764919
263,692.8149509418799
264,692.7931665573909
265,692.7697033938035
266,692.744624707477
267,692.7179982660472
268,692.6898958696671
269,692.6603928749483
270,692.6295677260327
271,692.5975014946981
272,692.564277430453
273,692.5299805222027
274,692.4946970740963
275,692.4585142986441
276,692.421519930062
277,692.3838018604981
278,692.3454478015633
279,692.3065449732361
280,692.2671798215706
281,692.2274377660694
282,692.1874029776751
283,692.1471581889783
284,692.1067845386297
285,692.0663614514814
286,692.0259665550034
287,691.9856756318852
288,691.945562608846
289,691.9056995818474
290,691.8661568770785
291,691.8270031450137
292,691.7883054823742
293,691.7501295749987
294,691.7125398538691
295,691.6755996566835
296,691.6393713880834
297,691.6039166725675
298,691.5692964950802
299,691.5355713253467
300,691.5028012232943
301,691.4710459240414
302,691.4403649015683
303,691.4108174102003
304,691.3824625025626
305,691.3553590217936
306,691.3295655645828
307,691.3051404102913
308,691.2821414104881
309,691.2606258330588
310,691.2406501556553
311,691.222269804725
312,691.205538838901
313,691.1905095790828
314,691.1772321914435
315,691.1657542328257
316,691.1561201697681
317,691.1483708829151
318,691.142543168499
319,691.1386692481889
320,691.1367762976431
321,691.1368860028435
322,691.13901415257
323,691.1431702754606
324,691.1493573302153
325,691.157571456499
326,691.1678017915307
327,691.1800303539089
328,691.1942319934277
329,691.2103744043471
330,691.2284181994634
331,691.2483170424642
332,691.2700178358989
333,691.2934609615753
334,691.3185805696961
335,691.3453049128972
336,691.3735567212207
337,691.403253613324
338,691.4343085380589
339,691.4666302397923
340,691.5001237408798
341,691.534690835225
342,691.5702305875619
343,691.606639834119
344,691.6438136819
345,691.6816460056109
346,691.7200299422356
347,691.7588583827015
348,691.7980244584987
349,691.8374220196289
350,691.8769460995087
351,691.9164933624025
352,691.955962529279
353,691.9952547783079
354,692.0342741163744
355,692.0729277179732
356,692.1111262278131
357,692.1487840238534
358,692.1858194389578
359,692.222154941927
360,692.2577172813604
361,692.2924375973136
362,692.326251505773
363,692.3590991603577
364,692.3909252953109
365,692.4216792539485
366,692.4513150067202
367,692.4797911624495
368,692.5070709751584
369,692.5331223475894
370,692.5579178315551
371,692.5814346246553
372,692.6036545624129
373,692.6245641042144
374,692.6441543105752
375,692.6624208083075
376,692.6793637393112
377,692.6949876880202
378,692.709301582182
379,692.7223185619567
380,692.7340558136823
381,692.7445343670419
382,692.7537788572612
383,692.7618172566519
384,692.7686805819309
385,692.7744025852425
386,692.7790194377444
387,692.7825694148706
388,692.7850925916117
389,692.7866305543438
390,692.78722613347
391,692.786923159059
392,692.7857662398849
393,692.7838005646618
394,692.7810717230207
395,692.7776255432656
396,692.7735079442248
397,692.7687647991338
398,692.7634418098517
399,692.757584389494
400,692.7512375510113
401,692.7444457989285
402,692.7372530217041
403,692.729702382696
404,692.7218362082051
405,692.713695871551
406,692.7053216729029
407,692.6967527156075
408,692.6880267806023
409,692.6791802009103
410,692.6702477384792
411,692.6612624662713
412,692.6522556596044
413,692.6432567017864
414,692.6342930095748
415,692.6253899837561
416,692.6165709892101
417,692.6078573673575
418,692.5992684821852
419,692.5908217993771
420,692.5825329965827
421,692.5744161014368
422,692.566483652489
423,692.558746876762
424,692.5512158764217
425,692.543899816316
426,692.5368071042716
427,692.52994555706
428,692.5233225465088
429,692.5169451219507
430,692.5108201069834
431,692.5049541701972
432,692.4993538707208
433,692.494025680031
434,692.4889759820232
435,692.484211054238
436,692.4797370339069
437,692.4755598723658
438,692.4716852801794
439,692.4681186636121
440,692.4648650517379
441,692.4619290129737
442,692.4593145599713
443,692.4570250421879
444,692.455063026041
445,692.4534301634968
446,692.452127051095
447,692.4511530824224
448,692.4505062977279
449,692.4501832346654
450,692.4501787839541
451,692.4504860531694
452,692.4510962414644
453,692.4519985282367
454,692.4531799792096
455,692.4546254733718
456,692.4563176536121
457,692.4582369032938
458,692.4603613506425
459,692.4626669022445
460,692.4651273059408
461,692.4677142421954
462,692.470397441844
463,692.4731448270311
464,692.4759226712355
465,692.4786957740071
466,692.4814276466748
467,692.4840807063631
468,692.4866164761593
469,692.4889957888602
470,692.4911789911571
471,692.493126145248
472,692.4947972257867
473,692.4961523113363
474,692.4971517706958
475,692.4977564454022
476,692.4979278304007
477,692.4976282553996
478,692.4968210697581
479,692.4954708337629
480,692.4935435187456
481,692.4910067176482
482,692.4878298663251
483,692.4839844741784
484,692.4794443608695
485,692.4741858939967
486,692.4681882209075
487,692.4614334863925
488,692.4539070272045
489,692.4455975344526
490,692.4364971762009
491,692.4266016751036
492,692.4159103392341
493,692.4044260473529
494,692.3921551916982
495,692.3791075819345
496,692.3652963140868
497,692.3507376087098
498,692.3354506228064
499,692.319457239542
500,692.3027818388578
501,692.2854510514296
502,692.2674934983628
503,692.2489395193693
504,692.2298208927607
505,692.210170551328
506,692.1900222988719
507,692.1694105325753
508,692.1483699764069
509,692.1269354299707
510,692.1051415355961
511,692.0830225647103
512,692.0606122235607
513,692.0379434782078
514,692.015048398683
515,691.9919580218954
516,691.9687022324639
517,691.945309660371
518,691.9218075941284
519,691.8982219079908
520,691.8745770018728
521,691.8508957533703
522,691.8271994827372
523,691.8035079332715
524,691.7798392704046
525,691.7562101025442
526,691.7326355259233
527,691.7091291948024
528,691.6857034171369
529,691.6623692741719
530,691.6391367608597
531,691.6160149432205
532,691.5930121288538
533,691.5701360472599
534,691.5473940368229
535,691.5247932350693
536,691.5023407681588
537,691.4800439345059
538,691.4579103761395
539,691.4359482303769
540,691.414166254151
541,691.3925739141467
542,691.3711814377846
543,691.3499998226852
544,691.329040804967
545,691.3083167890758
546,691.2878407437148
547,691.2676260699828
548,691.2476864489611
549,691.2280356765286
550,691.2086874930692
551,691.1896554151102
552,691.170952575011
553,691.1525915737843
554,691.1345843510982
555,691.1169420754723
556,691.0996750566205
557,691.0827926806918
558,691.0663033677694
559,691.0502145494991
560,691.0345326633034
561,691.0192631586235
562,691.0044105104113
563,690.9899782357542
564,690.9759689106544
565,690.9623841850977
566,690.9492247952251
567,690.9364905713967
568,690.9241804403473
569,690.9122924190476
570,690.9008235978762
571,690.8897701114838
572,690.8791270971665
573,690.8688886424493
574,690.8590477256186
575,690.8495961543837
576,690.8405245078918
577,690.8318220859557
578,690.8234768675311
579,690.815475479165
580,690.8078031736844
581,690.8004438195177
582,690.7933799012001
583,690.7865925315737
584,690.780061476117
585,690.7737651898628
586,690.7676808674292
587,690.7617845068968
588,690.7560509887027
589,690.7504541710318
590,690.7449670028894
591,690.7395616551262
592,690.7342096686037
593,690.7288821177928
594,690.7235497874448
595,690.7181833594918
596,690.7127536069618
597,690.7072315914432
598,690.7015888605296
599,690.6957976418064
600,690.6898310302812
601,690.6836631663782
602,690.6772694014721
603,690.6706264476642
604,690.6637125087644
605,690.6565073906206
606,690.648992590554
607,690.6411513665963
608,690.6329687868518
609,690.6244317583661
610,690.6155290345558
611,690.6062512008798
612,690.5965906396978
613,690.5865414770195
614,690.5760995158105
615,690.5652621619307
616,690.5540283489378
617,690.5423984668629
618,690.530374298205
619,690.5179589623435
620,690.5051568677395
621,690.491973669981
622,690.4784162332049
623,690.464492592667
624,690.4502119170969
625,690.4355844709444
626,690.4206215785568
627,690.4053355942343
628,690.3897398835103
629,690.3738488215137
630,690.3576778134316
631,690.3412433397592
632,690.3245630258418
633,690.3076557322371
634,690.2905416601359
635,690.2732424644454
636,690.255781366175
637,690.2381832554494
638,690.2204747765653
639,690.2026843869035
640,690.1848423824007
641,690.1669808838619
642,690.1491337804434
643,690.1313366285705
644,690.1136265058702
645,690.0960418206163
646,690.0786220783235
647,690.0614076085475
648,690.0444392560246
649,690.0277580407924
650,690.01140479238
651,689.9954197639406
652,689.9798422327804
653,689.964710093441
654,689.9500594486099
655,689.9359242026283
656,689.922335662863
657,689.9093221552507
658,689.8969086609253
659,689.8851164805845
660,689.8739629325704
661,689.8634610898588
662,689.8536195600168
663,689.8444423105875
664,689.8359285408421
665,689.8280726000539
666,689.820863952419
667,689.8142871888481
668,689.8083220854749
669,689.8029437078095
670,689.7981225584062
671,689.7938247651731
672,689.7900123070768
673,689.7866432737571
674,689.7836721555732
675,689.7810501612815
676,689.7787255618246
677,689.7766440600572
678,689.7747491871478
679,689.7729827264352
680,689.7712851645354
681,689.7695961680096
682,689.7678550828414
683,689.7660014535825
684,689.763975558911
685,689.7617189602387
686,689.7591750600172
687,689.7562896664712
688,689.7530115611618
689,689.7492930648807
690,689.7450905965038
691,689.7403652193301
692,689.7350831697374
693,689.729216362634
694,689.7227428668327
695,689.7156473419075
696,689.7079214272071
697,689.699564073622
698,689.6905818090733
699,689.6809889294202
700,689.6708076077033
701,689.6600679163063
702,689.6488077584647
703,689.6370727073123
704,689.6249157523134
705,689.6123969545313
706,689.5995830137383
707,689.5865467520291
708,689.5733665205464
709,689.5601255379765
710,689.5469111709469
711,689.533814166933
712,689.5209278501649
713,689.5083472911786
714,689.496168461395
715,689.4844873848464
716,689.4733992990978
717,689.4629978363049
718,689.453374233555
719,689.4446165797222
720,689.4368091046455
721,689.430031515851
722,689.4243583880472
723,689.4198586104186
724,689.4165948957991
725,689.4146233545251
726,689.4139931350895
727,689.4147461339643
728,689.4169167774758
729,689.42053187832
730,689.4256105677628
731,689.4321643023388
732,689.4401969419034
733,689.4497048947142
734,689.4606773247216
735,689.4730964160111
736,689.4869376892066
737,689.5021703648939
738,689.5187577701181
739,689.5366577855661
740,689.5558233324712
741,689.5762028991006
742,689.5977411069523
743,689.6203793162538
744,689.6440562684955
745,689.6687087605872
746,689.6942723419711
747,689.7206820240042
748,689.7478729904818
749,689.7757812985991
750,689.8043445601741
751,689.8335025936979
752,689.8631980390612
753,689.8933769282336
754,689.9239892058399
755,689.9549891932411
756,689.9863359890243
757,690.0179937985941
758,690.0499321863156
759,690.0821262455554
760,690.1145566848239
761,690.1472098313454
762,690.1800775559723
763,690.213157125094
764,690.2464509862893
765,690.279966495164
766,690.3137155913248
767,690.3477144319822
768,690.3819829920536
769,690.4165446393732
770,690.4514256927536
771,690.4866549698446
772,690.5222633313181
773,690.5582832274877
774,690.5947482526583
775,690.6316927113337
776,690.6691511992956
777,690.7071582018629
778,690.745747711344
779,690.7849528654123
780,690.8248056076612
781,690.8653363713602
782,690.9065737879712
783,690.9485444232615
784,690.9912725450614
785,691.0347799269705
786,691.0790856912477
787,691.1242061922164
788,691.1701549397267
789,691.2169425612511
790,691.2645768012496
791,691.3130625570338
792,691.3624019506666
793,691.412594435968
794,691.4636369388401
795,691.5155240282924
796,691.5682481146105
797,691.6217996698521
798,691.6761674646508
799,691.7313388147618
800,691.7872998312853
801,691.8440356700196
802,691.9015307772579
803,691.95976913063
804,692.0187344740029
805,692.0784105454533
806,692.1387812974707
807,692.1998311090038
808,692.2615449895771
809,692.3239087763608
810,692.3869093256278
811,692.4505347002633
812,692.5147743545353
813,692.5796193161492
814,692.6450623640196
815,692.7110981986493
816,692.7777236007603
817,692.8449375730406
818,692.9127414598452
819,692.9811390406121
820,693.050136594303
821,693.1197429335771
822,693.1899694083246
823,693.2608298791066
824,693.3323406624863
825,693.4045204516722
826,693.477390216154
827,693.5509730827223
828,693.6252941982806
829,693.700380573374
830,693.7762609048328
831,693.85296537606
832,693.9305254337984
833,694.0089735406511
834,694.0883429033455
835,694.168667177656
836,694.2499801517561
837,694.3323154103954
838,694.4157059827073
839,694.5001839765865
840,694.5857802022751
841,694.6725237870832
842,694.7604417823313
843,694.8495587630146
844,694.9398964206559
845,695.0314731505614
846,695.1243036361125
847,695.2183984345036
848,695.3137635700923
849,695.410400142901
850,695.5083039604908
851,695.6074652015619
852,695.7078681196373
853,695.8094907951822
854,695.9123049441552
855,696.0162757899187
856,696.1213620036514
857,696.2275157160678
858,696.3346826005808
859,696.4428020254169
860,696.5518072702283
861,696.6616258016161
862,696.77217960138
863,696.8833855410963
864,696.9951557969804
865,697.1073982996029
866,697.2200172130249
867,697.3329134372549
868,697.4459851277854
869,697.5591282271414
870,697.6722370052946
871,697.78520460716
872,697.8979236053765
873,698.0102865554952
874,698.1221865497099
875,698.2335177653345
876,698.3441760052139
877,698.4540592280906
878,698.5630680667955
879,698.6711063311717
880,698.7780814918863
881,698.8839051415131
882,698.988493430219
883,699.0917674741042
884,699.1936537340783
885,699.2940843621743
886,699.3929975110702
887,699.4903376019496
888,699.5860555458551
889,699.6801089141192
890,699.7724620540837
891,699.8630861473467
892,699.9519592095473
893,700.0390660330273
894,700.124398075794
895,700.2079533014855
896,700.2897359756201
897,700.369756423586
898,700.4480307558053
899,700.5245805655495
900,700.5994326050865
901,700.6726184459641
902,700.7441741289408
903,700.8141398083587
904,700.8825593948303
905,700.9494801991841
906,701.014952579864
907,701.079029595509
908,701.141766664057
909,701.2032212290034
910,701.2634524324137
911,701.3225207934722
912,701.380487891199
913,701.4374160504453
914,701.4933680311499
915,701.5484067218297
916,701.6025948392398
917,701.6559946372258
