acceleration,velocity,displacement
-0.0018059029397803144,0.0,0.0
-0.0022119587694844275,-1.0044654273161855e-06,-2.5111635682904637e-10
-0.0026167220820040595,-2.211635640188307e-06,-1.0551416237051696e-09
-0.003018910428445779,-3.6205437678007667e-06,-2.513186475702438e-09
-0.0034172612813036045,-5.229586695238112e-06,-4.725719091462158e-09
-0.003810541471237533,-7.036537383373397e-06,-7.792250111115034e-09
-0.0041975560353739675,-9.038561760026272e-06,-1.181102489696495e-08
-0.004577156345184075,-1.1232239855165782e-05,-1.6878725300762964e-08
-0.00494824742783096,-1.3613590798419542e-05,-2.3090182964159295e-08
-0.0053097944377820585,-1.6178101264822797e-05,-3.053810597996988e-08
-0.0056608282702274365,-1.892075694182517e-05,-3.9312820531631876e-08
-0.006000450335457473,-2.1836076593246396e-05,-4.950202891539977e-08
-0.006327836537923944,-2.491814831159175e-05,-6.119058514160931e-08
-0.006642240525200011,-2.816066757737274e-05,-7.446028911385044e-08
-0.006942996284988429,-3.155697677991985e-05,-8.938970020317359e-08
-0.007229520167007665,-3.510010589291887e-05,-1.0605397087138327e-07
-0.007501312390303487,-3.8782814032246655e-05,-1.2452470085267465e-07
-0.007757958070612707,-4.25976316474757e-05,-1.4486981227260522e-07
-0.007999127776380177,-4.653690310922392e-05,-1.6715344596178014e-07
-0.008224577605467617,-5.059282945468587e-05,-1.914358791027576e-07
-0.0084341487705985,-5.47575110487024e-05,-2.1777346422860465e-07
-0.008627766687432186,-5.902298991321007e-05,-2.462185894690828e-07
-0.008805439569824023,-6.338129147752412e-05,-2.7681965981676634e-07
-0.008967256545699975,-6.782446550640512e-05,-3.0962109906274863e-07
-0.009113385307939413,-7.234462596981496e-05,-3.4466337193180365e-07
-0.009244069311933471,-7.693398962478318e-05,-3.819830258304532e-07
-0.009359624535619303,-8.158491308667137e-05,-4.216127515083168e-07
-0.00946043583090166,-8.628992817830162e-05,-4.635814618245601e-07
-0.009546952906897216,-9.104177536275134e-05,-5.079143877098234e-07
-0.009619685986150822,-9.583343508601335e-05,-5.546331903220146e-07
-0.009679201166908381,-0.00010065815687427815,-6.037560883120875e-07
-0.00972611551690317,-0.00010550948604523104,-6.552979990419648e-07
-0.009761091922747656,-0.00011038128790514375,-7.092706925295586e-07
-0.009784833722303453,-0.00011526776931640652,-7.656829568349461e-07
-0.009798079149896369,-0.00012016349753445649,-8.245407735476619e-07
-0.009801595622823896,-0.00012506341622763655,-8.858475019881852e-07
-0.009796173891708428,-0.00012996285860626962,-9.496040706966616e-07
-0.009782622069036727,-0.0001348575575964559,-1.015809174747343e-06
-0.009761759545664548,-0.00013974365300013122,-1.0844594773964898e-06
-0.009734410809617294,-0.0001446176955889517,-1.1555498145437605e-06
-0.009701399194372415,-0.00014947664808994911,-1.2290734004634857e-06
-0.009663540599158488,-0.00015431788303833183,-1.305022033245556e-06
-0.00962163723795625,-0.00015913917749761053,-1.3833862983795415e-06
-0.009576471488001833,-0.00016393870467910004,-1.4641557689237192e-06
-0.009528799924677932,-0.00016871502253227,-1.5473192007265618e-06
-0.009479347644164226,-0.00017346705942448054,-1.6328647212157493e-06
-0.009428802977593347,-0.00017819409707991993,-1.7207800103418494e-06
-0.009377812683709382,-0.00018289575099524562,-1.8110524723606407e-06
-0.009326977677366732,-0.00018757194858551465,-1.9036693972558308e-06
-0.009276849323235185,-0.00019222290533566514,-1.998618110736126e-06
-0.00922792630743877,-0.00019684909924333363,-2.0958861118808756e-06
-0.009180652093568763,-0.00020145124384358552,-2.195461197652605e-06
-0.009135412967833812,-0.00020603026010893616,-2.2973315736407356e-06
-0.009092536677773402,-0.00021058724752033797,-2.4014859505480543e-06
-0.009052291667269032,-0.00021512345460659857,-2.5079136260797886e-06
-0.009014886902110454,-0.00021964024924894346,-2.616604552043674e-06
-0.008980472261238595,-0.00022413908903978072,-2.727549386615855e-06
-0.008949139444863944,-0.00022862149196630635,-2.840739531867377e-06
-0.008920923334913606,-0.00023308900766125075,-2.9561671567742665e-06
-0.008895803739444671,-0.00023754318942984033,-3.0738252060470394e-06
-0.008873707453749212,-0.0002419855672281388,-3.193707395211534e-06
-0.00885451057231023,-0.00024641762173465364,-3.3158081924522323e-06
-0.008838040994146621,-0.00025084075962626787,-3.440122787792463e-06
-0.008824081084849956,-0.000255256290146017,-3.566647050235534e-06
-0.008812370483544194,-0.00025966540303811554,-3.695377473531567e-06
-0.008802609057589688,-0.00026406914792339903,-3.826311111271946e-06
-0.008794460006757212,-0.00026846841518948577,-3.959445502050167e-06
-0.008787553108314389,-0.0002728639184682537,-4.094778585464602e-06
-0.008781488086555525,-0.00027725617876697115,-4.232308609773408e-06
-0.008775838093636351,-0.0002816455103120191,-4.372034032043156e-06
-0.008770153304464144,-0.0002860320081615442,-4.513953411661547e-06
-0.008763964647813028,-0.0002904155376496135,-4.658065298114336e-06
-0.008756787705443974,-0.00029479572573792775,-4.804368113961221e-06
-0.008748126805147157,-0.00029917195436557554,-4.952860033987097e-06
-0.008737479314611062,-0.0003035433558955151,-5.10353886155237e-06
-0.008724340112247023,-0.0003079088107522296,-5.256401903214306e-06
-0.008708206171236117,-0.0003122669473231004,-5.411445842733139e-06
-0.008688581155567294,-0.00031661614415480125,-5.568666615602614e-06
-0.008664979906053196,-0.00032095453442020636,-5.728059285246366e-06
-0.008636932694906263,-0.0003252800125704462,-5.889617921994029e-06
-0.008603989144948336,-0.00032959024303040986,-6.053335485894243e-06
-0.008565721738791273,-0.00033388267075134474,-6.219203714339682e-06
-0.00852172887976868,-0.0003381545334059847,-6.387213015379014e-06
-0.008471637502878594,-0.0003424028750016465,-6.557352367480922e-06
-0.008415105260059555,-0.00034662456069238105,-6.729609226404429e-06
-0.008351822313208641,-0.0003508162925856981,-6.903969439723948e-06
-0.00828151276595564,-0.0003549746263554892,-7.080417169459245e-06
-0.00820393576291141,-0.000359095988487706,-7.258934823170044e-06
-0.008118886288268283,-0.00036317669400050094,-7.439502993792096e-06
-0.008026195699648884,-0.0003672129644974802,-7.622100408416591e-06
-0.007925732028887834,-0.0003712009464296144,-7.806703886148366e-06
-0.007817400062311219,-0.00037513672945241414,-7.993288305118873e-06
-0.007701141184747287,-0.00037901636476417875,-8.18182657867302e-06
-0.007576932949435248,-0.0003828358832977244,-8.372289640688497e-06
-0.007444788331174779,-0.0003865913136178769,-8.564646439917398e-06
-0.007304754630754618,-0.00039027869935835923,-8.758863943161457e-06
-0.007156912016932053,-0.0003938941160202809,-8.954907147006117e-06
-0.007001371711725264,-0.0003974336869524452,-9.1527390977493e-06
-0.006838273842719053,-0.0004008935983410563,-9.352320919072674e-06
-0.006667785002239273,-0.0004042701130522959,-9.553611846921011e-06
-0.006490095567996261,-0.0004075595831948548,-9.756569270982798e-06
-0.006305416852849014,-0.0004107584613000661,-9.961148782106528e-06
-0.006113978160349002,-0.0004138633100533656,-1.0167304224944886e-05
-0.005916023823868116,-0.0004168708105494199,-1.0374987755095582e-05
-0.005711810297325069,-0.00041977776907971823,-1.0584149900002867e-05
-0.005501603346195453,-0.0004225811224905984,-1.0794739622895446e-05
-0.005285675365046985,-0.000425277942168409,-1.1006704389060198e-05
-0.00506430282946788,-0.00042786543671703773,-1.121999023378156e-05
-0.004837763880860851,-0.0004303409533946199,-1.1434541831309474e-05
-0.004606336042133726,-0.00043270197837536853,-1.1650302564251972e-05
-0.0043702940675366736,-0.0004349461359027861,-1.1867214592821511e-05
-0.004129907935446908,-0.000437071186403532,-1.208521892339809e-05
-0.0038854409963563767,-0.00043907502363648283,-1.2304255475908094e-05
-0.0036371482918112104,-0.0004409556709585247,-1.2524263149556847e-05
-0.003385275067613507,-0.0004427112767983809,-1.2745179886496074e-05
-0.0031300555154690412,-0.00044434010944415154,-1.2966942733056707e-05
-0.002871711786037973,-0.0004458405512695283,-1.3189487898235126e-05
-0.0026104533193039635,-0.0004472110925458638,-1.3412750809188973e-05
-0.0023464765370572642,-0.0004484503250099541,-1.3636666163577928e-05
-0.0020799649403860083,-0.0004495569353793149,-1.3861167978675245e-05
-0.0018110896518457485,-0.00045052969902737285,-1.4086189637276917e-05
-0.0015400104320678221,-0.00045136747404835124,-1.4311663930545848e-05
-0.0012668771803599024,-0.00045206919595145817,-1.45375230980458e-05
-0.0009918319023978816,-0.0004526338732221476,-1.4763698865339201e-05
-0.000715011107014792,-0.0004530605839745008,-1.4990122479638364e-05
-0.0004365485878197089,-0.0004533484738982094,-1.5216724744106542e-05
-0.00015657854993953832,-0.0004534967556826492,-1.5443436051501755e-05
0.00012476095626045604,-0.000453504710081069,-1.5670186417942685e-05
0.0004073243432963444,-0.0004533716887561798,-1.5896905517651996e-05
0.000690954604128859,-0.0004530971190193235,-1.612352271959587e-05
0.0009754793207179052,-0.0004526805105381118,-1.634996712698523e-05
0.00126070664202212,-0.0004521214640474268,-1.6576167620631613e-05
0.0015464212893678574,-0.0004514196820645793,-1.6802052907159617e-05
0.001832380624671496,-0.00045057498158606945,-1.702755157307228e-05
0.0021183108096466388,-0.0004495873087274899,-1.725259214565067e-05
0.0024039030953794333,-0.00044845675525123337,-1.747710316164535e-05
0.0026888103016223805,-0.0004471835769019829,-1.7701013244683652e-05
0.002972643564758393,-0.0004457682134353877,-1.7924251192267995e-05
0.003254969450305427,-0.0004442113101816218,-1.814674607317225e-05
0.003535307540230543,-0.0004425137409339878,-1.8368427335951152e-05
0.0038131286138482585,-0.00044067663189546806,-1.8589224929158515e-05
0.004087853539099382,-0.00043870138635723115,-1.880906943372169e-05
0.004358852978121028,-0.00043658970972792604,-1.9027892207742978e-05
0.004625447990674293,-0.0004343436344857272,-1.924562554379639e-05
0.0048869115936375765,-0.00043196554458964923,-1.9462202838565237e-05
0.005142471307618373,-0.00042945819886433523,-1.9677558774428733e-05
0.005391312698209891,-0.0004268247528628782,-1.9891629512360537e-05
0.0056325839026050185,-0.00042406877871267447,-2.0104352895254423e-05
0.005865401118284421,-0.00042119428245745213,-2.0315668660546957e-05
0.0060888550118674495,-0.0004182057184249142,-2.0525518660767547e-05
0.006302017980477317,-0.000415108000176828,-2.0733847090417982e-05
0.006503952172505523,-0.0004119065076385823,-2.0940600717371835e-05
0.006693718158513734,-0.0004086070900558275,-2.1145729116795438e-05
0.006870384135178835,-0.00040521606448240435,-2.1349184905429996e-05
0.007033035535299983,-0.0004017402095647847,-2.1550923973941793e-05
0.0071807849005157175,-0.00039818675445583073,-2.1750905714946947e-05
0.007312781858036502,-0.0003945633627661927,-2.1949093244252454e-05
0.007428223038571506,-0.0003908781115420407,-2.214545361282951e-05
0.00752636178068653,-0.00038713946533722616,-2.2339958007049328e-05
0.007606517481439583,-0.0003833562455216946,-2.253258193476406e-05
0.007668084470534505,-0.00037953759503370107,-2.2723305394902908e-05
0.00771054030467975,-0.0003756929388398975,-2.2912113028371307e-05
0.007733453396726391,-0.00037183194041454597,-2.3098994248184916e-05
0.007736489904967979,-0.0003679644545891224,-2.3283943346935832e-05
0.007719419811835872,-0.00036410047715992145,-2.3466959579873093e-05
0.007682122123244197,-0.0003602500916761514,-2.364804722208211e-05
0.0076245891225730075,-0.00035642341386469715,-2.3827215598467323e-05
0.007546929617685044,-0.00035263053417963265,-2.4004479085478404e-05
0.007449371127421568,-0.000348881458993356,-2.417985708377165e-05
0.007332260967116062,-0.0003451860509697216,-2.435337396126242e-05
0.007196066209998931,-0.00034155396917544284,-2.4525058966298712e-05
0.007041372524275653,-0.00033799460949187417,-2.469494611096554e-05
0.006868881916198111,-0.00033451704588175575,-2.4863074024808946e-05
0.0066794094413668926,-0.0003311299730423645,-2.5029485779539977e-05
0.0064738789671768835,-0.0003278416509402286,-2.5194228685535626e-05
0.006253318075480047,-0.00032465985167956437,-2.5357354061190575e-05
0.006018852196144137,-0.00032159180911165835,-2.551891697638838e-05
0.005771698067851398,-0.00031864417154565944,-2.567897597155271e-05
0.0055131566281965555,-0.00031582295787164745,-2.5837592753907038e-05
0.005244605430899272,-0.0003131335173568735,-2.599483187271417e-05
0.004967490667709985,-0.0003105804933322212,-2.6150760375386443e-05
0.004683318840450834,-0.000308167790955181,-2.6305447446458292e-05
0.004393648098291085,-0.0003058985492204955,-2.6458964031502213e-05
0.00410007924234209,-0.00030377511738533723,-2.6611382448153672e-05
0.003804246408167622,-0.0003017990359727098,-2.6762775986493184e-05
0.003507807457557307,-0.00029997102250627853,-2.6913218501112933e-05
0.003212434131417792,-0.00029829096210903474,-2.706278399726676e-05
0.002919802031641249,-0.00029675790306827,-2.7211546213561087e-05
0.002631580512013161,-0.0002953700574323564,-2.7359578203686244e-05
0.002349422564993587,-0.0002941248066631047,-2.750695191971011e-05
0.0020749547918264494,-0.00029301871232389966,-2.7653737799456862e-05
0.001809767541807216,-0.00029204753174049124,-2.780000436047296e-05
0.001555405305277693,-0.00029120623852872,-2.794581780304026e-05
0.001313357440570995,-0.00029048904784225783,-2.8091241624633004e-05
0.0010850493046885771,-0.0002898894461559429,-2.8236336248132553e-05
0.0008718338433746743,-0.0002894002253689271,-2.838115866601377e-05
0.0006749836842831939,-0.00028901352098701267,-2.8525762102602754e-05
0.0004956837719113246,-0.00028872085412296405,-2.867019569638025e-05
0.0003350245839344455,-0.0002885131770340026,-2.881450420416949e-05
0.0001939959703670762,-0.0002883809218954272,-2.8958727728901848e-05
7.348165887592701e-05,-0.00028831405248811646,-2.9102901472497734e-05
-2.5745522715626946e-05,-0.0002883021184540764,-2.9247055515233283e-05
-0.00010302764084425916,-0.0002883343117449664,-2.9391214622783044e-05
-0.00015782478983675705,-0.0002883995248526366,-2.9535398081932443e-05
-0.00018971729242248868,-0.0002884864103732014,-2.96796195657389e-05
-0.00019840692135948836,-0.0002885834414266469,-2.9823887028688862e-05
-0.0001837171360850846,-0.00028867897244100804,-2.9968202632155777e-05
-0.00014559237000387137,-0.0002887612998175303,-3.0112562700220412e-05
-8.409643978203183e-05,-0.0002888187220199768,-3.025695770567979e-05
5.898242929047007e-07,-0.00028883959867384904,-3.0401372285853244e-05
0.00010817160754322098,-0.00028881240831589,-3.054578528760068e-05
0.00023824367260655597,-0.00028872580449585257,-3.069016984080362e-05
0.0003902943425010579,-0.00028856866999207566,-3.08344934594256e-05
0.0005637098340098419,-0.0002883301689479479,-3.097871816916061e-05
0.0007577789136318379,-0.0002879997967610375,-3.1122800660587856e-05
0.0009716978693992736,-0.00028756742756527975,-3.1266692466669436e-05
0.0012045757823118978,-0.000287023359152352,-3.141034016334884e-05
0.0014554400514338673,-0.0002863583551939155,-3.155368559193541e-05
0.0017232420928910573,-0.0002855636846578343,-3.1696666101898346e-05
0.0020068631077833836,-0.00028463115835766566,-3.183921481265222e-05
0.0023051198057317773,-0.00028355316262928686,-3.1981260892898964e-05
0.0026167699833991058,-0.00028232269018200416,-3.2122729856101786e-05
0.0029405178871300362,-0.0002809333682143719,-3.226354387070088e-05
0.003275019323272056,-0.0002793794839117714,-3.2403622083732415e-05
0.0036188865091056855,-0.000277656007453677,-3.254288095657378e-05
0.003970692683342356,-0.000275758612655565,-3.268123461160109e-05
0.0043289765206262,-0.00027368369535457285,-3.2818595188603626e-05
0.004692246410746833,-0.00027142838962172956,-3.29548732098477e-05
0.005058984662097184,-0.0002689905818535186,-3.308997795271651e-05
0.00542765168022074,-0.0002663689227679391,-3.3223817828871875e-05
0.005796690175631145,-0.00026356283730397616,-3.335630076888985e-05
0.006164529473658889,-0.00026057253239165364,-3.348733461131376e-05
0.00652959001428396,-0.0002573990025196679,-3.361682749504159e-05
0.006890288122643195,-0.00025404403298543614,-3.374468825391787e-05
0.007245041101382153,-0.0002505102006794298,-3.3870826812334086e-05
0.007592272660337671,-0.0002468008722389998,-3.399515458056369e-05
0.00793041867311312,-0.00024292019940563712,-3.411758484847485e-05
0.008257933239388494,-0.0002388731114275117,-3.423803317618314e-05
0.008573295030315365,-0.00023466530436008575,-3.435641778013004e-05
0.008875013890690748,-0.0002303032271298342,-3.4472659913002517e-05
0.009161637656974959,-0.0002257940642429178,-3.458668423584571e-05
0.009431759126422995,-0.0002211457150470683,-3.46984191806682e-05
0.009684023091761704,-0.00021636676949252212,-3.48077973018031e-05
0.009917133349385357,-0.00021146648038223534,-3.4914755614271787e-05
0.010129859596397775,-0.00020645473214578956,-3.5019235917403795e-05
0.010321044142536191,-0.00020134200621105608,-3.5121185101993e-05
0.010489608366397412,-0.00019613934308382268,-3.5220555439316724e-05
0.01063455883945397,-0.00019085830128235984,-3.531730485040827e-05
0.010754993030723204,-0.00018551091331481554,-3.541139715405756e-05
0.010850104496317165,-0.00018010963893305546,-3.550280229211953e-05
0.010919187457018557,-0.00017466731594472154,-3.559149653083898e-05
0.010961640677224122,-0.00016919710891116088,-3.567746263705295e-05
0.010976970579877267,-0.00016371245609688554,-3.5760690028304965e-05
0.010964793558586743,-0.00015822701506226953,-3.5841174896094756e-05
0.010924837470808812,-0.00015275460730492063,-3.591892030168655e-05
0.010856942309047518,-0.00014730916235995654,-3.599393624410277e-05
0.01076106005152166,-0.00014190466176981426,-3.606623970013521e-05
0.010637253694628347,-0.00013655508333327676,-3.613585463641098e-05
0.010485695472414113,-0.00013127434604151615,-3.620281199375468e-05
0.010306664278362418,-0.00012607625610382202,-3.6267149644291015e-05
0.010100542322150477,-0.00012097445445369379,-3.632891232193039e-05
0.009867811070967717,-0.00011598236610541424,-3.638815152707017e-05
0.009609046535284453,-0.0001111131517038512,-3.644492540652249e-05
0.00932491396615859,-0.00010637966157849044,-3.6499298609843074e-05
0.009016162042287638,-0.00010179439257637888,-3.655134212338179e-05
0.00868361664033846,-9.736944790572235e-05,-3.660113308350232e-05
0.008328174298038823,-9.311650017112803e-05,-3.664875457052153e-05
0.007950795491815585,-8.904675772366443e-05,-3.669429538499523e-05
0.007552497851302384,-8.517093438788494e-05,-3.6737849808023116e-05
0.007134349412117174,-8.149922257203005e-05,-3.6779517347263094e-05
0.0066974619697129515,-7.804126972657252e-05,-3.6819402470337745e-05
0.006242984561247331,-7.480615809383245e-05,-3.685761432729285e-05
0.0057720970890445126,-7.180238768125949e-05,-3.6894266463736624e-05
0.0052860041080433915,-6.903786238198751e-05,-3.6929476526252436e-05
0.004785928814241593,-6.651987915141626e-05,-3.696336596163579e-05
0.004273107277914283,-6.42551201283773e-05,-3.699605971145574e-05
0.003748782963517474,-6.224964756801936e-05,-3.702768590337984e-05
0.0032142015738947046,-6.050890143366631e-05,-3.705837554063026e-05
0.002670606253110843,-5.9037699476914924e-05,-3.708826219085791e-05
0.002119233177285291,-5.7840239619315894e-05,-3.711748167563197e-05
0.0015613075536430876,-5.69201044365838e-05,-3.714617176164594e-05
0.0009980400400104073,-5.628026753817043e-05,-3.717447185463963e-05
0.00043062359827159203,-5.5923101628599924e-05,-3.7202522696931325e-05
-0.00013976919557361696,-5.585038802792543e-05,-3.723046606934546e-05
-0.0007119883565759594,-5.6063327415962827e-05,-3.725844449820643e-05
-0.0012849081895875965,-5.6562551552503713e-05,-3.728660096794855e-05
-0.0018574284739138517,-5.7348135718379074e-05,-3.731507863976627e-05
-0.002428475135090337,-5.841961162063012e-05,-3.7344020576601024e-05
-0.002997000403474483,-5.9775980505271325e-05,-3.73735694746325e-05
-0.003561982456905829,-6.14157262203664e-05,-3.740386740131391e-05
-0.004122424556363253,-6.333682797368368e-05,-3.743505553986242e-05
