frame_number,force
0,692.0296020072924
1,692.0009522220779
2,691.9723936320563
3,691.9440167220395
4,691.9159105712604
5,691.8881621875494
6,691.8608558830309
7,691.834072700651
8,691.8078898976098
9,691.7823804887495
10,691.7576128504917
11,691.7336503839756
12,691.7105512343102
13,691.6883680613396
14,691.6671478564081
15,691.6469317997031
16,691.6277551539052
17,691.609647191701
18,691.5926311565526
19,691.5767242572853
20,691.5619376973373
21,691.5482767391015
22,691.5357408030391
23,691.5243236006157
24,691.5140133000473
25,691.5047927240291
26,691.4966395783363
27,691.4895267092534
28,691.483422386982
29,691.4782906121221
30,691.4740914428922
31,691.4707813412941
32,691.4683135365202
33,691.4666384036736
34,691.4657038556932
35,691.4654557464759
36,691.4658382836064
37,691.4667944496812
38,691.4682664315367
39,691.4701960563723
40,691.4725252328479
41,691.4751963941565
42,691.4781529390707
43,691.4813396659703
44,691.4847031937173
45,691.4881923622293
46,691.491758605428
47,691.4953562904283
48,691.4989430189187
49,691.5024798886641
50,691.5059317142311
51,691.5092672064824
52,691.5124591105034
53,691.51548430165
54,691.5183238395227
55,691.5209629802748
56,691.523391149007
57,691.5256018756944
58,691.5275926991983
59,691.5293650441869
60,691.5309240757114
61,691.532278536083
62,691.5334405681053
63,691.5344255272506
64,691.5352517836114
65,691.5359405134277
66,691.5365154800677
67,691.5370028050669
68,691.5374307303865
69,691.5378293728188
70,691.538230470345
71,691.5386671188816
72,691.5391734971732
73,691.5397845780028
74,691.5405358252319
75,691.5414628783564
76,691.5426012290727
77,691.5439858969992
78,691.5456511131589
79,691.547630019793
80,691.5499543938358
81,691.5526543993201
82,691.5557583714091
83,691.5592926321782
84,691.5632813364301
85,691.567746345186
86,691.572707124665
87,691.5781806687253
88,691.5841814425177
89,691.5907213448195
90,691.5978096868124
91,691.6054531864182
92,691.6136559793049
93,691.6224196492321
94,691.6317432807465
95,691.6416235364807
96,691.6520547600261
97,691.6630291039719
98,691.6745366814382
99,691.6865657382917
100,691.6991028421911
101,691.712133083689
102,691.7256402839818
103,691.7396072038179
104,691.754015748765
105,691.7688471674023
106,691.7840822405848
107,691.7997014612258
108,691.8156852047052
109,691.8320138900415
110,691.8486681315992
111,691.8656288807108
112,691.8828775563476
113,691.900396163729
114,691.9181673992259
115,691.9361747391447
116,691.9544025093631
117,691.972835932577
118,691.9914611499972
119,692.0102652144712
120,692.0292360522296
121,692.048362391158
122,692.0676336549201
123,692.087039824125
124,692.1065712672184
125,692.1262185442223
126,692.1459721861232
127,692.1658224526022
128,692.1857590715493
129,692.2057709651333
130,692.2258459681801
131,692.2459705443957
132,692.2661295045197
133,692.2863057289135
134,692.3064798965688
135,692.3266302233136
136,692.3467322134042
137,692.3667584300737
138,692.3866782918013
139,692.4064579020821
140,692.4260599210779
141,692.4454434873901
142,692.4645641972858
143,692.4833741472734
144,692.5018220441347
145,692.5198533846042
146,692.5374107052271
147,692.5544339017403
148,692.5708606163334
149,692.5866266898341
150,692.6016666740422
151,692.6159143976454
152,692.6293035780054
153,692.6417684705544
154,692.653244546841
155,692.6636691911125
156,692.6729824042357
157,692.681127503469
158,692.6880518071661
159,692.693707294521
160,692.6980512316962
161,692.7010467570412
162,692.7026634193761
163,692.7028776640749
164,692.7016732619556
165,692.6990416761269
166,692.6949823621326
167,692.6895029970499
168,692.6826196337598
169,692.6743567775372
170,692.6647473833276
171,692.6538327736956
172,692.6416624795847
173,692.6282940082789
174,692.6137925444165
175,692.5982305903412
176,692.5816875521881
177,692.5642492785014
178,692.5460075585868
179,692.527059587498
180,692.5075074031323
181,692.4874572986407
182,692.4670192112185
183,692.4463060874228
184,692.4254332257657
185,692.404517598793
186,692.3836771583093
187,692.3630301285361
188,692.3426942928518
189,692.3227862802404
190,692.3034208576204
191,692.2847102341078
192,692.266763383182
193,692.2496853884134
194,692.2335768176769
195,692.2185331297793
196,692.2046441165825
197,692.1919933833516
198,692.1806578701252
199,692.1707074170292
200,692.1622043765926
201,692.1552032766648
202,692.1497505385846
203,692.1458842560831
204,692.1436340400237
205,692.1430209322084
206,692.1440573886811
207,692.1467473300135
208,692.1510862535396
209,692.1570614005486
210,692.1646519700163
211,692.1738293699053
212,692.1845574981959
213,692.1967930486329
214,692.2104858392327
215,692.2255791630756
216,692.2420101602393
217,692.2597102076282
218,692.2786053210745
219,692.2986165622993
220,692.3196604427461
221,692.3416493171793
222,692.3644917620527
223,692.3880929360745
224,692.4123549224709
225,692.4371770542855
226,692.4624562258504
227,692.488087194711
228,692.513962878207
229,692.5399746482944
230,692.566012628434
231,692.5919659976779
232,692.6177233081611
233,692.6431728216905
234,692.6682028690426
235,692.6927022330611
236,692.71656055482
237,692.7396687613572
238,692.7619195133818
239,692.7832076710995
240,692.8034307752657
241,692.8224895389021
242,692.8402883436369
243,692.8567357341769
244,692.8717449049376
245,692.8852341736108
246,692.8971274366924
247,692.9073546015698
248,692.9158519890223
249,692.9225626993763
250,692.927436935482
251,692.9304322763971
252,692.9315138971651
253,692.9306547319494
254,692.9278355793869
255,692.9230451499452
256,692.9162800553867
257,692.9075447405021
258,692.8968513574836
259,692.8842195840153
260,692.869676387387
261,692.8532557381282
262,692.8349982773897
263,692.8149509428056
264,692.793166558353
265,692.7697033948101
266,692.7446247085358
267,692.7179982671652
268,692.6898958708507
269,692.660392876203
270,692.6295677273635
271,692.5975014961093
272,692.5642774319489
273,692.529980523787
274,692.4946970757721
275,692.4585143004138
276,692.4215199319272
277,692.3838018624599
278,692.3454478036217
279,692.30654497539
280,692.267179823818
281,692.2274377684074
282,692.1874029801005
283,692.1471581914874
284,692.106784541218
285,692.0663614541443
286,692.025966557736
287,691.9856756346821
288,691.9455626117018
289,691.9056995847563
290,691.8661568800344
291,691.8270031480101
292,691.7883054854047
293,691.7501295780569
294,691.7125398569481
295,691.6755996597764
296,691.6393713911837
297,691.6039166756686
298,691.5692964981761
299,691.5355713284317
300,691.5028012263632
301,691.4710459270889
302,691.4403649045895
303,691.4108174131907
304,691.3824625055179
305,691.3553590247094
306,691.3295655674546
307,691.3051404131143
308,691.2821414132575
309,691.2606258357699
310,691.2406501583041
311,691.222269807308
312,691.2055388414149
313,691.1905095815247
314,691.1772321938116
315,691.165754235119
316,691.1561201719863
317,691.1483708850586
318,691.1425431705691
319,691.1386692501875
320,691.136776299573
321,691.1368860047083
322,691.1390141543741
323,691.1431702772084
324,691.1493573319111
325,691.1575714581477
326,691.167801793137
327,691.1800303554778
328,691.1942319949644
329,691.210374405857
330,691.2284182009518
331,691.2483170439359
332,691.2700178373583
333,691.2934609630265
334,691.3185805711431
335,691.3453049143442
336,691.3735567226721
337,691.4032536147846
338,691.4343085395335
339,691.4666302412854
340,691.5001237423955
341,691.5346908367671
342,691.5702305891342
343,691.6066398357251
344,691.6438136835435
345,691.6816460072955
346,691.7200299439651
347,691.7588583844798
348,691.7980244603293
349,691.837422021515
350,691.876946101453
351,691.9164933644075
352,691.9559625313464
353,691.9952547804382
354,692.0342741185672
355,692.0729277202271
356,692.1111262301258
357,692.1487840262223
358,692.1858194413791
359,692.2221549443958
360,692.2577172838711
361,692.2924375998599
362,692.3262515083487
363,692.3590991629559
364,692.3909252979246
365,692.4216792565704
366,692.4513150093433
367,692.4797911650669
368,692.5070709777634
369,692.5331223501753
370,692.5579178341153
371,692.5814346271837
372,692.603654564904
373,692.6245641066636
374,692.6441543129785
375,692.6624208106617
376,692.6793637416142
377,692.6949876902704
378,692.7093015843784
379,692.7223185640989
380,692.7340558157699
381,692.7445343690747
382,692.7537788592393
383,692.7618172585759
384,692.7686805838015
385,692.774402587061
386,692.779019439513
387,692.7825694165925
388,692.785092593291
389,692.7866305559851
390,692.7872261350789
391,692.7869231606415
392,692.7857662414476
393,692.7838005662119
394,692.7810717245659
395,692.7776255448139
396,692.7735079457841
397,692.7687648007125
398,692.7634418114585
399,692.7575843911385
400,692.7512375527026
401,692.7444458006752
402,692.7372530235136
403,692.7297023845744
404,692.721836210157
405,692.7136958735807
406,692.7053216750143
407,692.6967527178039
408,692.6880267828864
409,692.6791802032847
410,692.6702477409457
411,692.6612624688311
412,692.6522556622582
413,692.6432567045342
414,692.6342930124157
415,692.6253899866883
416,692.6165709922312
417,692.6078573704646
418,692.599268485375
419,692.5908218026461
420,692.5825329999275
421,692.5744161048536
422,692.5664836559746
423,692.5587468803137
424,692.5512158800374
425,692.5438998199945
426,692.5368071080127
427,692.5299455608643
428,692.5233225503779
429,692.5169451258869
430,692.510820110989
431,692.5049541742744
432,692.4993538748721
433,692.4940256842589
434,692.4889759863303
435,692.4842110586268
436,692.4797370383806
437,692.4755598769281
438,692.471685284834
439,692.4681186683633
440,692.4648650565895
441,692.4619290179292
442,692.4593145650342
443,692.4570250473615
444,692.455063031328
445,692.4534301688991
446,692.4521270566138
447,692.4511530880584
448,692.4505063034812
449,692.4501832405357
450,692.4501787899405
451,692.4504860592697
452,692.4510962476753
453,692.4519985345538
454,692.4531799856271
455,692.4546254798828
456,692.4563176602087
457,692.4582369099669
458,692.460361357382
459,692.4626669090397
460,692.4651273127811
461,692.4677142490698
462,692.4703974487416
463,692.4731448339406
464,692.4759226781457
465,692.4786957809071
466,692.4814276535537
467,692.4840807132107
468,692.4866164829655
469,692.4889957956153
470,692.4911789978514
471,692.4931261518717
472,692.4947972323299
473,692.4961523177892
474,692.4971517770485
475,692.4977564516457
476,692.4979278365275
477,692.4976282614035
478,692.4968210756341
479,692.4954708395071
480,692.4935435243552
481,692.4910067231215
482,692.4878298716613
483,692.483984479378
484,692.4794443659337
485,692.4741858989275
486,692.4681882257074
487,692.4614334910648
488,692.4539070317531
489,692.4455975388828
490,692.4364971805185
491,692.4266016793152
492,692.4159103433469
493,692.4044260513747
494,692.3921551956367
495,692.3791075857979
496,692.3652963178836
497,692.3507376124488
498,692.3354506264966
499,692.3194572431923
500,692.3027818424772
501,692.2854510550268
502,692.2674935019461
503,692.248939522947
504,692.2298208963402
505,692.210170554916
506,692.1900223024738
507,692.1694105361956
508,692.1483699800489
509,692.1269354336366
510,692.1051415392874
511,692.0830225684277
512,692.060612227305
513,692.0379434819794
514,692.0150484024819
515,691.9919580257211
516,691.9687022363156
517,691.9453096642469
518,691.921807598026
519,691.8982219119067
520,691.8745770058028
521,691.8508957573098
522,691.8271994866814
523,691.8035079372158
524,691.779839274345
525,691.7562101064768
526,691.7326355298452
527,691.7091291987111
528,691.6857034210311
529,691.6623692780507
530,691.6391367647234
531,691.61601494707
532,691.593012132691
533,691.5701360510876
534,691.547394040645
535,691.5247932388902
536,691.5023407719829
537,691.4800439383383
538,691.4579103799858
539,691.4359482342435
540,691.4141662580446
541,691.3925739180738
542,691.3711814417513
543,691.3499998266971
544,691.3290408090287
545,691.3083167931915
546,691.2878407478884
547,691.2676260742177
548,691.2476864532598
549,691.2280356808926
550,691.2086874974988
551,691.1896554196044
552,691.1709525795673
553,691.152591578399
554,691.1345843557671
555,691.1169420801906
556,691.0996750613832
557,691.0827926854931
558,691.066303372603
559,691.0502145543584
560,691.0345326681818
561,691.0192631635143
562,691.0044105153083
563,690.9899782406516
564,690.9759689155462
565,690.9623841899775
566,690.9492248000862
567,690.9364905762322
568,690.9241804451502
569,690.9122924238102
570,690.9008236025898
571,690.8897701161395
572,690.8791271017557
573,690.8688886469639
574,690.859047730051
575,690.8495961587266
576,690.8405245121382
577,690.8318220900989
578,690.8234768715649
579,690.8154754830846
580,690.8078031774861
581,690.8004438231987
582,690.7933799047588
583,690.7865925350094
584,690.7800614794306
585,690.7737651930565
586,690.7676808705062
587,690.7617845098606
588,690.7560509915578
589,690.7504541737837
590,690.7449670055446
591,690.7395616576916
592,690.7342096710875
593,690.7288821202038
594,690.723549789793
595,690.7181833617879
596,690.7127536092175
597,690.7072315936716
598,690.7015888627434
599,690.695797644018
600,690.6898310325023
601,690.6836631686206
602,690.677269403747
603,690.6706264499824
604,690.6637125111362
605,690.6565073930556
606,690.6489925930609
607,690.6411513691834
608,690.6329687895263
609,690.6244317611341
610,690.6155290374224
611,690.6062512038491
612,690.5965906427728
613,690.5865414802022
614,690.5760995191018
615,690.5652621653305
616,690.5540283524443
617,690.5423984704732
618,690.5303743019155
619,690.5179589661502
620,690.505156871638
621,690.491973673966
622,690.4784162372707
623,690.4644925968078
624,690.4502119213065
625,690.4355844752164
626,690.4206215828848
627,690.4053355986115
628,690.3897398879297
629,690.3738488259684
630,690.3576778179147
631,690.3412433442642
632,690.3245630303624
633,690.3076557367677
634,690.2905416646722
635,690.2732424689842
636,690.2557813707137
637,690.2381832599857
638,690.2204747810966
639,690.2026843914273
640,690.1848423869143
641,690.1669808883626
642,690.1491337849283
643,690.1313366330362
644,690.1136265103132
645,690.0960418250322
646,690.0786220827075
647,690.0614076128943
648,690.044439260329
649,690.0277580450493
650,690.0114047965842
651,689.9954197680877
652,689.9798422368665
653,689.9647100974631
654,689.9500594525657
655,689.9359242065166
656,689.9223356666836
657,689.9093221590043
658,689.8969086646139
659,689.885116484211
660,689.8739629361385
661,689.8634610933731
662,689.8536195634829
663,689.8444423140121
664,689.835928544233
665,689.8280726034195
666,689.8208639557687
667,689.8142871921914
668,689.8083220888213
669,689.8029437111684
670,689.7981225617859
671,689.7938247685806
672,689.7900123105179
673,689.7866432772357
674,689.7836721590919
675,689.7810501648421
676,689.7787255654279
677,689.7766440637038
678,689.7747491908381
679,689.7729827301691
680,689.7712851683126
681,689.7695961718291
682,689.7678550867014
683,689.7660014574806
684,689.7639755628446
685,689.7617189642051
686,689.759175064014
687,689.7562896704959
688,689.7530115652121
689,689.7492930689541
690,689.7450906005976
691,689.7403652234415
692,689.7350831738634
693,689.729216366771
694,689.722742870977
695,689.715647346055
696,689.7079214313537
697,689.6995640777634
698,689.690581813205
699,689.6809889335375
700,689.6708076118014
701,689.6600679203806
702,689.6488077625105
703,689.6370727113248
704,689.6249157562881
705,689.6123969584639
706,689.5995830176246
707,689.5865467558647
708,689.5733665243266
709,689.5601255416966
710,689.5469111746019
711,689.533814170518
712,689.5209278536754
713,689.5083472946105
714,689.4961684647444
715,689.4844873881099
716,689.4733993022728
717,689.4629978393896
718,689.4533742365477
719,689.4446165826221
720,689.4368091074523
721,689.4300315185645
722,689.4243583906674
723,689.4198586129455
724,689.4165948982325
725,689.4146233568645
726,689.4139931373344
727,689.4147461361141
728,689.4169167795302
729,689.4205318802792
730,689.4256105696281
731,689.4321643041128
732,689.4401969435892
733,689.4497048963156
734,689.4606773262431
735,689.4730964174572
736,689.4869376905816
737,689.502170366202
738,689.5187577713632
739,689.5366577867525
740,689.5558233336031
741,689.5762029001831
742,689.5977411079909
743,689.6203793172549
744,689.6440562694663
745,689.6687087615355
746,689.6942723429056
747,689.7206820249339
748,689.7478729914159
749,689.7757812995463
750,689.8043445611432
751,689.8335025946975
752,689.8631980400995
753,689.8933769293177
754,689.9239892069764
755,689.9549891944359
756,689.9863359902829
757,690.0179937999217
758,690.049932187717
759,690.0821262470349
760,690.114556686385
761,690.1472098329904
762,690.1800775577026
763,690.2131571269101
764,690.2464509881908
765,690.2799664971492
766,690.3137155933912
767,690.347714434127
768,690.3819829942738
769,690.4165446416654
770,690.451425695114
771,690.4866549722693
772,690.5222633338025
773,690.5582832300273
774,690.5947482552489
775,690.6316927139709
776,690.6691512019751
777,690.7071582045804
778,690.7457477140958
779,690.7849528681945
780,690.8248056104707
781,690.8653363741935
782,690.9065737908251
783,690.9485444261327
784,690.9912725479468
785,691.0347799298671
786,691.0790856941526
787,691.1242061951272
788,691.1701549426409
789,691.2169425641669
790,691.2645768041647
791,691.3130625599464
792,691.3624019535753
793,691.4125944388719
794,691.4636369417384
795,691.5155240311843
796,691.5682481174954
797,691.6217996727289
798,691.6761674675182
799,691.7313388176184
800,691.78729983413
801,691.8440356728513
802,691.9015307800754
803,691.9597691334328
804,692.0187344767908
805,692.0784105482259
806,692.138781300228
807,692.1998311117459
808,692.2615449923044
809,692.3239087790731
810,692.3869093283253
811,692.4505347029458
812,692.5147743572029
813,692.5796193188023
814,692.6450623666591
815,692.7110982012762
816,692.7777236033754
817,692.844937575645
818,692.912741462439
819,692.9811390431955
820,693.0501365968756
821,693.1197429361381
822,693.1899694108729
823,693.260829881641
824,693.3323406650059
825,693.4045204541761
826,693.4773902186423
827,693.5509730851957
828,693.6252942007405
829,693.7003805758225
830,693.7762609072726
831,693.8529653784942
832,693.9305254362308
833,694.008973543086
834,694.0883429057877
835,694.1686671801109
836,694.2499801542295
837,694.332315412893
838,694.4157059852347
839,694.5001839791496
840,694.5857802048798
841,694.6725237897354
842,694.7604417850364
843,694.8495587657769
844,694.939896423479
845,695.0314731534473
846,695.1243036390621
847,695.2183984375164
848,695.313763573167
849,695.4104001460349
850,695.5083039636805
851,695.6074652048029
852,695.7078681229239
853,695.8094907985078
854,695.9123049475122
855,696.0162757932994
856,696.1213620070478
857,696.2275157194722
858,696.3346826039863
859,696.4428020288178
860,696.55180727362
861,696.6616258049947
862,696.7721796047425
863,696.8833855444403
864,696.9951558003039
865,697.1073983029048
866,697.2200172163047
867,697.3329134405124
868,697.445985131021
869,697.5591282303554
870,697.6722370084876
871,697.7852046103322
872,697.8979236085279
873,698.0102865586259
874,698.1221865528204
875,698.2335177684256
876,698.3441760082868
877,698.4540592311467
878,698.5630680698364
879,698.671106334199
880,698.7780814949017
881,698.8839051445186
882,698.9884934332168
883,699.0917674770966
884,699.1936537370674
885,699.2940843651618
886,699.3929975140572
887,699.4903376049366
888,699.5860555488421
889,699.6801089171058
890,699.7724620570696
891,699.8630861503311
892,699.9519592125296
893,700.0390660360072
894,700.1243980787717
895,700.2079533044619
896,700.2897359785964
897,700.3697564265639
898,700.4480307587868
899,700.5245805685367
900,700.5994326080819
901,700.6726184489703
902,700.7441741319602
903,700.8141398113928
904,700.8825593978798
905,700.9494802022492
906,701.0149525829438
907,701.0790295986019
908,701.1417666671601
909,701.2032212321136
910,701.2634524355274
911,701.3225207965851
912,701.3804878943066
913,701.437416053543
914,701.493368034233
915,701.5484067248942
916,701.6025948422827
917,701.655994640244
