frame_number,force
0,692.0296019872428
1,691.9966458970111
2,691.9638210739496
3,691.9312575219591
4,691.8990827523878
5,691.8674206202259
6,691.8363902523853
7,691.8061050877833
8,691.7766720411281
9,691.7481907950141
10,691.7207532190778
11,691.6944429103538
12,691.6693348449171
13,691.6454951273781
14,691.6229808227845
15,691.6018398559389
16,691.582110966202
17,691.5638237105753
18,691.5469985126182
19,691.5316467578803
20,691.5177709374848
21,691.5053648407668
22,691.4944137962868
23,691.4848949592808
24,691.4767776436917
25,691.4700236976639
26,691.4645879209017
27,691.4604185202614
28,691.45745759818
29,691.4556416686182
30,691.4549021967838
31,691.45516616039
32,691.456356630585
33,691.4583933702655
34,691.4611934471652
35,691.4646718594412
36,691.4687421725815
37,691.4733171679184
38,691.4783095038441
39,691.4836323900479
40,691.489200272857
41,691.4949295270733
42,691.5007391471856
43,691.5065514283348
44,691.5122926245203
45,691.5178935689263
46,691.5232902406951
47,691.5284242652242
48,691.5332433400264
49,691.5377015828533
50,691.5417598014623
51,691.545385685307
52,691.5485539195157
53,691.5512462213749
54,691.5534512996177
55,691.555164738061
56,691.5563888082437
57,691.5571322196221
58,691.5574098184106
59,691.5572422466017
60,691.5566555723186
61,691.5556809022255
62,691.5543539850916
63,691.5527148118572
64,691.550807213092
65,691.5486784520707
66,691.5463788117678
67,691.5439611757288
68,691.5414806040613
69,691.5389939051361
70,691.5365592007797
71,691.5342354793529
72,691.5320821294146
73,691.5301584476814
74,691.5285231182933
75,691.5272336657266
76,691.5263458906311
77,691.5259133044019
78,691.5259865819575
79,691.5266130521729
80,691.5278362424941
81,691.5296954893055
82,691.5322256194495
83,691.5354567021097
84,691.5394138658993
85,691.5441171745607
86,691.5495815552376
87,691.5558167738106
88,691.5628274513888
89,691.5706131154865
90,691.5791682802893
91,691.5884825538358
92,691.5985407749658
93,691.6093231868206
94,691.6208056546157
95,691.6329599336661
96,691.6457539905786
97,691.6591523772344
98,691.6731166541539
99,691.6876058570931
100,691.7025769982104
101,691.7179855909128
102,691.7337861859385
103,691.749932906032
104,691.7663799682429
105,691.7830821861744
106,691.7999954483491
107,691.8170771719637
108,691.834286732863
109,691.851585872546
110,691.8689390820359
111,691.8863139613765
112,691.903681552812
113,691.9210166449891
114,691.9382980440973
115,691.9555088058644
116,691.972636420684
117,691.98967294352
118,692.0066150603126
119,692.0234640828229
120,692.0402258643048
121,692.0569106300051
122,692.0735327198944
123,692.090110245534
124,692.1066646665516
125,692.1232202932426
126,692.1398037209808
127,692.1564432018505
128,692.1731679607462
129,692.1900074664484
130,692.2069906706364
131,692.2241452273148
132,692.2414967016626
133,692.2590677735236
134,692.2768774396062
135,692.2949402205257
136,692.313265382422
137,692.3318561864277
138,692.350709182365
139,692.3698135657143
140,692.3891506185732
141,692.4086932551802
142,692.4284056905699
143,692.4482432476209
144,692.4681523135926
145,692.4880704527768
146,692.5079266780323
147,692.5276418812726
148,692.5471294207608
149,692.5662958600258
150,692.5850418489496
151,692.6032631333204
152,692.6208516765086
153,692.6376968756779
154,692.653686853341
155,692.6687098023082
156,692.6826553594813
157,692.6954159832479
158,692.7068883106293
159,692.7169744728259
160,692.7255833507448
161,692.7326317553798
162,692.738045520888
163,692.7417604999392
164,692.7437234514172
165,692.7438928107122
166,692.7422393331103
167,692.7387466013183
168,692.7334113893082
169,692.7262438766579
170,692.7172677102859
171,692.7065199141451
172,692.6940506524177
173,692.6799228569604
174,692.6642117330159
175,692.647004157956
176,692.6283979877976
177,692.6085012869005
178,692.5874314969518
179,692.5653145603194
180,692.542284009085
181,692.5184800252545
182,692.4940484721646
183,692.4691398946197
184,692.4439084865637
185,692.4185110284976
186,692.3931058002322
187,692.3678514771979
188,692.342906020531
189,692.3184255722458
190,692.2945633668511
191,692.2714686704649
192,692.2492857582554
193,692.2281529403134
194,692.2082016443127
195,692.1895555609498
196,692.1723298561901
197,692.1566304536075
198,692.1425533904186
199,692.1301842512912
200,692.1195976845286
201,692.1108570067681
202,692.1040139051275
203,692.0991082480087
204,692.0961680150872
205,692.0952093526984
206,692.0962367542362
207,692.0992433582521
208,692.1042113510488
209,692.1111124560601
210,692.1199084890823
211,692.1305519573604
212,692.1429866835782
213,692.1571484429883
214,692.1729656096685
215,692.1903598117774
216,692.2092465942811
217,692.2295360827273
218,692.2511336360167
219,692.2739404719771
220,692.2978542483075
221,692.3227695838144
222,692.348578510173
223,692.3751708505481
224,692.4024345265988
225,692.4302558000089
226,692.45851945918
227,692.4871089646059
228,692.5159065663102
229,692.5447934052683
230,692.5736496113293
231,692.6023544133744
232,692.6307862800585
233,692.6588231082029
234,692.686342470761
235,692.7132219300456
236,692.7393394173625
237,692.7645736782417
238,692.7888047820941
239,692.8119146943727
240,692.8337879066543
241,692.8543121157912
242,692.8733789395437
243,692.890884654796
244,692.9067309455634
245,692.9208256496539
246,692.9330834932471
247,692.9434268014151
248,692.9517861705763
249,692.9581010871675
250,692.9623204764224
251,692.9644031666911
252,692.9643182582028
253,692.9620453895534
254,692.9575748989168
255,692.950907879033
256,692.9420561256098
257,692.9310419787447
258,692.9178980572965
259,692.9026668877144
260,692.8854004316752
261,692.8661595196721
262,692.8450131993508
263,692.8220380085227
264,692.7973171846144
265,692.7709398248867
266,692.7430000144485
267,692.7135959411786
268,692.6828290167293
269,692.650803019172
270,692.6176232661793
271,692.5833958214752
272,692.5482267350093
273,692.5122213188948
274,692.4754834637419
275,692.4381150012717
276,692.4002151188694
277,692.3618798310924
278,692.3232015127005
279,692.2842684970252
280,692.2451647420559
281,692.2059695653554
282,692.1667574492762
283,692.127597919654
284,692.0885555022393
285,692.0496897601266
286,692.0110554131523
287,691.9727025388022
288,691.9346768545458
289,691.8970200820331
290,691.8597703916558
291,691.8229629209942
292,691.7866303546741
293,691.7508035487467
294,691.7155121808817
295,691.6807854080478
296,691.6466525151087
297,691.6131435400305
298,691.5802898637177
299,691.5481247551195
300,691.5166838653059
301,691.4860056669651
302,691.4561318372469
303,691.4271075818518
304,691.3989818970275
305,691.3718077639122
306,691.3456422665822
307,691.3205466218625
308,691.2965861066023
309,691.2738298675843
310,691.2523506006429
311,691.2322240890804
312,691.2135285976041
313,691.1963441266248
314,691.1807515412579
315,691.1668315971967
316,691.1546638899549
317,691.1443257551832
318,691.1358911475883
319,691.1294295250171
320,691.1250047619275
321,691.1226741134104
322,691.1224872492062
323,691.1244853774228
324,691.1287004780121
325,691.1351546636919
326,691.1438596797944
327,691.1548165462405
328,691.1680153380883
329,691.1834350980989
330,691.2010438745936
331,691.2207988783833
332,691.2426467523148
333,691.266523945871
334,691.2923571862027
335,691.3200640367604
336,691.3495535345373
337,691.3807268953053
338,691.4134782735186
339,691.4476955618442
340,691.4832612155107
341,691.520053088084
342,691.5579452671203
343,691.5968089007617
344,691.636513010298
345,691.6769252881971
346,691.7179128835631
347,691.7593431756661
348,691.8010845323628
349,691.8430070466204
350,691.8849832425187
351,691.9268887419906
352,691.9686028843197
353,692.0100092911716
354,692.0509963702791
355,692.0914577508091
356,692.1312926432837
357,692.1704061177996
358,692.2087092977746
359,692.2461194726499
360,692.2825601394417
361,692.3179609866245
362,692.3522578338245
363,692.3853925391578
364,692.4173128850674
365,692.4479724536
366,692.477330501897
367,692.5053518470667
368,692.5320067666103
369,692.5572709172561
370,692.5811252724927
371,692.6035560774972
372,692.6245548188134
373,692.6441182043612
374,692.6622481470973
375,692.6789517432219
376,692.6942412335876
377,692.7081339351777
378,692.7206521285412
379,692.7318228877358
380,692.7416778425593
381,692.7502528686426
382,692.7575877079735
383,692.7637255289555
384,692.7687124402386
385,692.7725969761811
386,692.7754295740812
387,692.7772620639035
388,692.7781471893543
389,692.7781381747217
390,692.777288346379
391,692.7756508127794
392,692.7732782024569
393,692.7702224556559
394,692.7665346622107
395,692.762264937123
396,692.757462326033
397,692.7521747343853
398,692.7464488750655
399,692.7403302288437
400,692.7338630106923
401,692.7270901343842
402,692.7200531684648
403,692.7127922780903
404,692.7053461485119
405,692.6977518872711
406,692.6900449041543
407,692.6822587705474
408,692.6744250620063
409,692.6665731889499
410,692.6587302211165
411,692.6509207131014
412,692.6431665410404
413,692.6354867631309
414,692.627897517954
415,692.6204119740393
416,692.613040341884
417,692.6057899561063
418,692.5986654312633
419,692.5916688908258
420,692.5848002651517
421,692.5780576508416
422,692.5714377203024
423,692.5649361668106
424,692.5585481673322
425,692.5522688435564
426,692.54609370189
427,692.5400190356314
428,692.5340422763292
429,692.528162285487
430,692.5223795820775
431,692.5166965053979
432,692.511117315655
433,692.5056482360574
434,692.5002974414839
435,692.4950750009176
436,692.4899927826541
437,692.4850643309369
438,692.480304719663
439,692.4757303845532
440,692.4713589318288
441,692.467208920144
442,692.463299612837
443,692.459650698461
444,692.4562819789569
445,692.4532130271017
446,692.4504628176746
447,692.4480493392364
448,692.4459891950761
449,692.4442972026009
450,692.442985999973
451,692.4420656674015
452,692.4415433695209
453,692.4414230258303
454,692.4417050173442
455,692.4423859375769
456,692.443458394558
457,692.4449108691913
458,692.4467276344232
459,692.4488887383487
460,692.4513700519843
461,692.4541433795514
462,692.4571766263365
463,692.4604340165718
464,692.4638763516489
465,692.4674612983723
466,692.4711436985987
467,692.4748758943226
468,692.4786080635741
469,692.482288561548
470,692.4858642600454
471,692.489280878691
472,692.4924833036778
473,692.4954158929212
474,692.4980227694685
475,692.5002481073257
476,692.5020364155594
477,692.5033328278263
478,692.5040834052875
479,692.5042354608635
480,692.5037379117801
481,692.5025416652494
482,692.5006000388553
483,692.4978692130283
484,692.4943087083834
485,692.4898818760994
486,692.4845563852182
487,692.4783046871947
488,692.4711044359542
489,692.4629388419003
490,692.4537969413416
491,692.4436737688404
492,692.4325704280228
493,692.4204940638551
494,692.4074577437842
495,692.393480256399
496,692.3785858366348
497,692.3628038274855
498,692.3461682887458
499,692.3287175620754
500,692.3104937992939
501,692.2915424591268
502,692.271911777432
503,692.2516522167475
504,692.2308159023963
505,692.2094560541552
506,692.1876264241587
507,692.1653807527495
508,692.1427722539671
509,692.1198531404792
510,692.0966741938054
511,692.0732843814133
512,692.049730519917
513,692.0260569832869
514,692.0023054549664
515,691.9785147220895
516,691.9547205090561
517,691.9309553471055
518,691.9072484761052
519,691.8836257744636
520,691.8601097134557
521,691.8367193341606
522,691.8134702488429
523,691.7903746726242
524,691.767441493429
525,691.7446763876757
526,691.7220819873188
527,691.6996581016939
528,691.677401994682
529,691.655308713721
530,691.6333714634353
531,691.6115820147952
532,691.5899311409963
533,691.5684090723802
534,691.5470059632382
535,691.5257123627742
536,691.504519680915
537,691.4834206370767
538,691.4624096768326
539,691.4414833389046
540,691.4206405542973
541,691.3998828613851
542,691.3792145253402
543,691.3586425566077
544,691.3381766297642
545,691.3178289097884
546,691.2976137973138
547,691.2775476081381
548,691.2576482050007
549,691.2379346008918
550,691.2184265528193
551,691.1991441633754
552,691.1801075051234
553,691.1613362802428
554,691.1428495252687
555,691.1246653681789
556,691.1068008424271
557,691.0892717595318
558,691.072092638372
559,691.0552766856467
560,691.038835818457
561,691.0227807174398
562,691.0071208983156
563,690.9918647912939
564,690.9770198205501
565,690.9625924786894
566,690.9485883927589
567,690.9350123782978
568,690.921868476468
569,690.9091599678715
570,690.896889356638
571,690.8850583202875
572,690.8736676243855
573,690.8627170056559
574,690.8522050322173
575,690.8421289531752
576,690.832484549935
577,690.8232659983007
578,690.8144657459983
579,690.8060744070866
580,690.7980806736606
581,690.7904712456008
582,690.7832307795694
583,690.7763418584022
584,690.7697849819263
585,690.7635385803424
586,690.7575790515373
587,690.7518808242621
588,690.746416450239
589,690.7411567290845
590,690.736070869268
591,690.7311266861473
592,690.7262908355252
593,690.7215290790386
594,690.716806576143
595,690.7120881963183
596,690.7073388442702
597,690.7025237903168
598,690.697608997943
599,690.692561440868
600,690.6873494028197
601,690.6819427537904
602,690.676313196204
603,690.6704344737825
604,690.6642825365535
605,690.6578356583284
606,690.6510745069568
607,690.6439821699486
608,690.6365441371448
609,690.6287482398028
610,690.6205845446515
611,690.6120452029809
612,690.6031242579191
613,690.5938174173159
614,690.5841218044305
615,690.5740357020507
616,690.5635583059953
617,690.552689501174
618,690.5414296687537
619,690.5297795279387
620,690.5177400113123
621,690.505312169432
622,690.4924970990018
623,690.4792958894748
624,690.4657095849785
625,690.4517391619737
626,690.4373855277087
627,690.4226495491145
628,690.4075321251235
629,690.3920343165425
630,690.3761575454673
631,690.3599038704026
632,690.3432763353686
633,690.3262793838655
634,690.3089193228587
635,690.291204817837
636,690.2731473975208
637,690.2547619459207
638,690.2360671595584
639,690.2170859485243
640,690.1978457621359
641,690.1783788237169
642,690.158722263949
643,690.138918146896
644,690.1190133859486
645,690.0990595491152
646,690.0791125558251
647,690.0592322708304
648,690.0394820034155
649,690.019927921335
650,690.0006383900028
651,689.9816832493844
652,689.9631330424977
653,689.9450582087525
654,689.9275282532534
655,689.910610902046
656,689.8943712545887
657,689.8788709474145
658,689.8641673445477
659,689.8503127697644
660,689.8373537942873
661,689.8253305917748
662,689.814276369871
663,689.8042168838763
664,689.7951700345927
665,689.7871455506987
666,689.7801447561678
667,689.774160423721
668,689.7691767146238
669,689.7651692031261
670,689.7621049814919
671,689.7599428399876
672,689.7586335155098
673,689.7581200021655
674,689.7583379173597
675,689.7592159187899
676,689.7606761710717
677,689.762634864191
678,689.7650027883432
679,689.7676859699689
680,689.7705863714743
681,689.7736026535824
682,689.7766309967079
683,689.7795659768349
684,689.7823014910897
685,689.7847317279195
686,689.7867521767699
687,689.7882606722536
688,689.7891584669163
689,689.7893513243434
690,689.7887506220661
691,689.7872744532754
692,689.7848487168933
693,689.781408184453
694,689.776897528666
695,689.7712722944459
696,689.7644997906949
697,689.7565598806639
698,689.7474456492871
699,689.7371639273498
700,689.725735654998
701,689.7131960708539
702,689.6995947171756
703,689.6849952554863
704,689.6694750908401
705,689.6531248064925
706,689.636047414264
707,689.6183574296497
708,689.6001797852431
709,689.581648600811
710,689.5629058317575
711,689.5440998186912
712,689.5253837603685
713,689.5069141325295
714,689.4888490768669
715,689.4713467861068
716,689.4545639109751
717,689.4386540121307
718,689.4237660757835
719,689.4100431071187
720,689.3976208122541
721,689.3866263781846
722,689.3771773603469
723,689.3693806871476
724,689.3633317887085
725,689.3591138542155
726,689.3567972208573
727,689.3564388982509
728,689.3580822338212
729,689.3617567242061
730,689.3674779743154
731,689.3752478005543
732,689.3850544702622
733,689.3968730668937
734,689.4106659695772
735,689.4263834354468
736,689.44396427315
737,689.4633365968416
738,689.4844186527102
739,689.5071197141774
740,689.5313410456416
741,689.5569769368979
742,689.5839158112011
743,689.612041408826
744,689.6412340435485
745,689.6713719218999
746,689.702332507157
747,689.7339939051176
748,689.7662362476698
749,689.7989430511706
750,689.8320025279029
751,689.8653088306143
752,689.8987632131781
753,689.9322750937757
754,689.9657630084738
755,689.9991554420552
756,690.0323915210386
757,690.0654215530673
758,690.0982073984628
759,690.1307226641233
760,690.1629527166655
761,690.1948945190894
762,690.2265563012897
763,690.2579570787096
764,690.2891260358322
765,690.3201017926224
766,690.3509315730104
767,690.3816702955603
768,690.4123796071552
769,690.4431268796407
770,690.4739841870374
771,690.5050272787835
772,690.5363345632584
773,690.5679861146677
774,690.6000627142273
775,690.6326449336317
776,690.6658122659757
777,690.6996423075145
778,690.7342099928899
779,690.7695868857506
780,690.8058405255654
781,690.8430338308756
782,690.8812245606425
783,690.920464838536
784,690.9608007481107
785,691.0022720075624
786,691.0449117302876
787,691.0887462729813
788,691.1337951687929
789,691.1800711408999
790,691.2275801921922
791,691.2763217684336
792,691.3262889932228
793,691.3774689721591
794,691.4298431617293
795,691.4833877966169
796,691.5380743670439
797,691.5938701348839
798,691.6507386745349
799,691.7086404233921
800,691.7675332281669
801,691.8273728771727
802,691.8881136134089
803,691.9497086265637
804,692.0121105231749
805,692.0752717742897
806,692.1391451404041
807,692.2036840746159
808,692.2688431064943
809,692.3345782107695
810,692.4008471663144
811,692.4676099114121
812,692.5348289001607
813,692.6024694618918
814,692.6705001615031
815,692.7388931547343
816,692.8076245292389
817,692.8766746202664
818,692.9460282895502
819,693.0156751580982
820,693.0856097871914
821,693.1558318051458
822,693.2263459794364
823,693.2971622358313
824,693.3682956295054
825,693.4397662763969
826,693.5115992534996
827,693.5838244734073
828,693.6564765333659
829,693.729594535243
830,693.8032218713366
831,693.8774059710722
832,693.9521980042065
833,694.0276525370525
834,694.1038271398406
835,694.1807819454522
836,694.2585791617237
837,694.3372825409472
838,694.4169568111041
839,694.4976670736222
840,694.5794781716617
841,694.6624540311606
842,694.7466569748148
843,694.8321470077337
844,694.9189810734838
845,695.0072122811034
846,695.0968891072498
847,695.1880545820703
848,695.28074547183
849,695.3749914748238
850,695.4708144489365
851,695.5682276897153
852,695.667235278024
853,695.767831516541
854,695.8700004737149
855,695.9737156514079
856,696.0789397883175
857,696.185624805799
858,696.2937118964114
859,696.4031317493456
860,696.5138049023125
861,696.6256422069616
862,696.7385453936708
863,696.8524077212529
864,696.967114698226
865,697.0825448640036
866,697.1985706185384
867,697.3150590875329
868,697.4318730101238
869,697.5488716389757
870,697.6659116475515
871,697.7828480427671
872,697.8995350812862
873,698.0158271851301
874,698.1315798498911
875,698.2466505390307
876,698.3608995601296
877,698.4741909209756
878,698.5863931629467
879,698.6973801667126
880,698.8070319233378
881,698.9152352643124
882,699.021884546216
883,699.1268822873344
884,699.2301397529578
885,699.3315774835105
886,699.4311257566894
887,699.5287249730238
888,699.6243259541069
889,699.7178901435809
890,699.8093897022756
891,699.8988074911824
892,699.9861369400659
893,700.0713818049885
894,700.1545558229193
895,700.2356822745093
896,700.3147934673385
897,700.3919301521759
898,700.467140884564
899,700.5404813439781
900,700.6120136231679
901,700.6818055004512
902,700.7499297069083
903,700.8164631985765
904,700.8814864414047
905,700.9450827144091
906,701.0073374345957
907,701.0683375060614
908,701.1281706947501
909,701.1869250286188
910,701.2446882204847
911,701.3015471088946
912,701.3575871120632
913,701.412891691195
914,701.4675418217485
915,701.5216154737561
916,701.5751871047935
917,701.6283271720047
