acceleration,velocity,displacement
-0.001794623511405974,0.0,0.0
-0.0022617135036115564,-1.0140842537543827e-06,-2.535210634385957e-10
-0.0027269430329700628,-2.2612483878997874e-06,-1.0723542238521382e-09
-0.0031884695410756185,-3.7401015314112075e-06,-2.572691703679887e-09
-0.0036444857967242194,-5.448340365861167e-06,-4.869802177997981e-09
-0.004093236390644195,-7.3827709127032705e-06,-8.07757999763909e-09
-0.004533032925090599,-9.53933824163697e-06,-1.230810728622415e-08
-0.0049622676188437334,-1.1913163377620553e-05,-1.767123269103853e-08
-0.005379425158955944,-1.4498586572070473e-05,-2.4274170178461286e-08
-0.005783092733958637,-1.728921604529912e-05,-3.222112083280369e-08
-0.006171968266224739,-2.0277981295344965e-05,-4.1612920167964706e-08
-0.006544866926545657,-2.3457190093537566e-05,-5.254671301518534e-08
-0.006900726071446977,-2.6818588343035724e-05,-6.511565762432866e-08
-0.007238608793614212,-3.035342205930102e-05,-7.940866022491285e-08
-0.007557706304369731,-3.405250083379701e-05,-9.551014094818736e-08
-0.007857339360648521,-3.790626225005157e-05,-1.134998317191495e-07
-0.008136958905584638,-4.190483681660986e-05,-1.3345260648581484e-07
-0.008396146024811276,-4.603811304920884e-05,-1.5543834395226953e-07
-0.008634611253162408,-5.029580236870226e-05,-1.7952182280674732e-07
-0.008852193222093739,-5.46675034875163e-05,-2.0576264927080195e-07
-0.009048856624663825,-5.914276594920569e-05,-2.3421521662998245e-07
-0.009224689485254269,-6.371115247668521e-05,-2.649286962364552e-07
-0.009379899743656505,-6.83622997839129e-05,-2.9794705930160473e-07
-0.009514811181017064,-7.308597751508129e-05,-3.3330912862635325e-07
-0.009629858713919949,-7.787214498881554e-05,-3.7104865925232745e-07
-0.009725583072461253,-8.271100543541084e-05,-4.1119444685838403e-07
-0.009802624884994999,-8.759305742477491e-05,-4.5377046257343045e-07
-0.009861718220973066,-9.250914320126693e-05,-4.987960127299409e-07
-0.009903683668398016,-9.74504936736097e-05,-5.462859219486601e-07
-0.00992942102130866,-0.00010240876984603638,-5.962507378285716e-07
-0.009939901630232683,-0.00010737610050892171,-6.486969554173111e-07
-0.009936160447406795,-0.00011234511602833158,-7.036272595516244e-07
-0.009919287793212253,-0.00011730897808848634,-7.610407830808289e-07
-0.009890420876207898,-0.00012226140525584136,-8.209333789169108e-07
-0.00985073510377382,-0.0001271966942508368,-8.832979037935804e-07
-0.009801435215606008,-0.00013210973683068175,-9.4812451156396e-07
-0.009743746256763072,-0.00013699603219877402,-1.0154009538213238e-06
-0.009678904386225548,-0.00014185169485952118,-1.0851128855858976e-06
-0.009608147505410685,-0.00014667345783243025,-1.1572441737588854e-06
-0.009532705702152058,-0.00015145867113432093,-1.2317772060005731e-06
-0.009453791537284687,-0.0001562052954441801,-1.3086931976451984e-06
-0.009372590239181668,-0.0001609118908882967,-1.3879724942283176e-06
-0.009290249907123956,-0.0001655776009248731,-1.46959486718161e-06
-0.009207871859923542,-0.00017020213136663499,-1.553539800254487e-06
-0.009126501307084386,-0.00017478572465838695,-1.6397867642607426e-06
-0.009047118556869434,-0.0001793291296243754,-1.728315477831433e-06
-0.008970630983352006,-0.00018383356700943075,-1.8191061519898847e-06
-0.008897865935665534,-0.00018830069123918514,-1.912139716552039e-06
-0.008829564702237423,-0.00019273254889866088,-2.0073980265865003e-06
-0.008766377576803886,-0.0001971315344684212,-2.104864047428271e-06
-0.008708860034974442,-0.00020150034387136578,-2.2045220170132175e-06
-0.00865747001738225,-0.00020584192638445494,-2.306357584577173e-06
-0.00861256631425935,-0.00021015943546736534,-2.4103579250401277e-06
-0.008574408048349517,-0.00021445617905801757,-2.5165118286714736e-06
-0.008543155251916248,-0.000218735569883084,-2.624809765906749e-06
-0.00851887051596927,-0.0002230010763250554,-2.735243927458784e-06
-0.008501521645757692,-0.00022725617436548714,-2.8478082401314196e-06
-0.008490985201279836,-0.00023150430107724652,-2.962498358992103e-06
-0.008487050765639203,-0.0002357488100689763,-3.079311636778659e-06
-0.008489425777795184,-0.0002399929292048349,-3.1982470715971115e-06
-0.008497740771606654,-0.00024423972084218536,-3.3193052341088665e-06
-0.008511554869183025,-0.0002484920447523828,-3.4424881755075083e-06
-0.00853036139961179,-0.0002527525238195815,-3.567799317650499e-06
-0.008553593567259156,-0.0002570235125612992,-3.6952433267457194e-06
-0.008580630157040244,-0.00026130706849237406,-3.824825972009138e-06
-0.008610801301791805,-0.0002656049263570821,-3.956553970721502e-06
-0.008643394335844401,-0.00026991847526649116,-4.090434821127395e-06
-0.008677659735370874,-0.00027424873878429496,-4.226476624640092e-06
-0.008712817127909318,-0.000278596358000115,-4.364687898836194e-06
-0.008748061362691493,-0.0002829615776227652,-4.505077382741914e-06
-0.008782568673201773,-0.0002873442351317385,-4.64765383593054e-06
-0.008815503011453405,-0.0002917437530529023,-4.792425832976701e-06
-0.008846022657407903,-0.0002961591344701176,-4.939401554857456e-06
-0.008873287192716297,-0.0003005889619326486,-5.088588578958147e-06
-0.008896464881143196,-0.0003050313999511135,-5.239993669429088e-06
-0.008914740422479361,-0.00030948420127701915,-5.393622569736121e-06
-0.008927322948486912,-0.00031394471711976074,-5.549479799335316e-06
-0.008933454036762127,-0.000318409911366073,-5.7075684564567745e-06
-0.00893241546657352,-0.0003228763787419069,-5.8678900289837695e-06
-0.008923536440997113,-0.00032734036671879955,-6.030444215348946e-06
-0.008906200041151998,-0.00033179780083933684,-6.19522875723848e-06
-0.008879848748491868,-0.0003362443130367478,-6.362239285707501e-06
-0.008843988958664343,-0.00034067527246353684,-6.5314691820825724e-06
-0.008798194498096275,-0.000345085818327727,-6.702909454780388e-06
-0.008742109216419217,-0.00034947089425635587,-6.876548632926409e-06
-0.008675448748185276,-0.000353825283747507,-7.052372677427374e-06
-0.008598001529481477,-0.00035814364631692365,-7.230364909943482e-06
-0.008509629147496998,-0.00036242055398616826,-7.410505960019255e-06
-0.008410266106787103,-0.0003666505277997393,-7.5927737304657315e-06
-0.008299919103937412,-0.0003708280741024204,-7.777143380941272e-06
-0.008178665889949326,-0.0003749477203508921,-7.9635873295546e-06
-0.0080466537511417,-0.00037900405026116486,-8.152075272207613e-06
-0.00790409756816552,-0.00038299173809099165,-8.342574219295652e-06
-0.007751277356975959,-0.00038690558182227704,-8.53504854927397e-06
-0.007588535182306526,-0.00039074053495709765,-8.729460078468813e-06
-0.00741627135892665,-0.00039449173659240595,-8.925768146356188e-06
-0.007234939899354586,-0.0003981545394069763,-9.123929715356033e-06
-0.00704504321335098,-0.00040172453518515266,-9.323899484004065e-06
-0.006847126107539992,-0.0004051975775153754,-9.525630012179197e-06
-0.006641769172285538,-0.0004085698013353318,-9.729071856891874e-06
-0.00642958167860494,-0.00041183763904805446,-9.934173716987721e-06
-0.006211194139467552,-0.0004149978330025726,-1.0140882585000378e-05
-0.005987250711849092,-0.00041804744421540177,-1.0349143904304871e-05
-0.005758401618719311,-0.00042098385729804385,-1.0558901729683233e-05
-0.005525295746454567,-0.0004238047816393373,-1.0770098889417578e-05
-0.005288573526415176,-0.00042650824895755474,-1.0982677147066801e-05
-0.005048860155021998,-0.000429092607377914,-1.1196577361150669e-05
-0.004806759162644573,-0.0004315565122073307,-1.141173964104698e-05
-0.004562846319530263,-0.0004338989135778744,-1.1628103497493281e-05
-0.004317663867276239,-0.000436119041124576,-1.1845607986168895e-05
-0.00407171507819354,-0.00043821638586094346,-1.2064191842915275e-05
-0.0038254591601311894,-0.00044019067942052464,-1.2283793609235642e-05
-0.0035793065342812603,-0.00044204187084412777,-1.2504351746801805e-05
-0.00333361452370144,-0.00044377010110862344,-1.2725804739789993e-05
-0.0030886835104037887,-0.00044537567561714976,-1.2948091183971435e-05
-0.002844753647270391,-0.00044685903490656833,-1.3171149861602365e-05
-0.0026020022342124827,-0.00044822072387693906,-1.3394919801298242e-05
-0.002360541877030637,-0.00044946135990474984,-1.3619340322243664e-05
-0.002120419546226732,-0.00045058160026056416,-1.3844351062284992e-05
-0.0018816166500793972,-0.00045158210930964067,-1.4069891989677544e-05
-0.0016440502298301575,-0.00045246352602961804,-1.4295903398512359e-05
-0.0014075753620260195,-0.00045322643242758206,-1.4522325888126659e-05
-0.0011719888048140445,-0.0004538713234692921,-1.4749100327100877e-05
-0.0009370338612099927,-0.00045439857913579814,-1.497616780275215e-05
-0.0007024063817442892,-0.0004548084391965367,-1.5203469557335234e-05
-0.0004677618141484456,-0.00045510098124550987,-1.5430946912445745e-05
-0.00023272321950590185,-0.00045527610250392344,-1.5658541183383102e-05
3.10982182551855e-06,-0.0004553335058533435,-1.588619358547242e-05
0.00024015151722509598,-0.00045527269051858085,-1.61138451345654e-05
0.0004788195306898671,-0.0004550929477566021,-1.6341436544134197e-05
0.0007195241972946325,-0.00045479336182460597,-1.6568908121529497e-05
0.000962657460035499,-0.00045437281641027346,-1.6796199666088218e-05
0.0012085816567746473,-0.0004538300066310709,-1.7023250371848555e-05
0.0014576182312254285,-0.0004531634566590709,-1.724999873767109e-05
0.0017100364256540973,-0.000452371542994851,-1.747638248758457e-05
0.0019660420422065983,-0.0004514525233778858,-1.7702338504177753e-05
0.002225766410816266,-0.0004504045712646301,-1.7927802777838382e-05
0.0024892557518481915,-0.000449225815723964,-1.8152710374585532e-05
0.0027564611655824653,-0.00044791438649460633,-1.8376995425140175e-05
0.003027229518471727,-0.0004464684638235928,-1.8600591137719725e-05
0.0033012955197993027,-0.00044488633256402506,-1.882342983681663e-05
0.003578275280330776,-0.00044316643986399255,-1.9045443029923634e-05
0.003857661616143084,-0.0004413074556398741,-1.92665615037996e-05
0.004138821313886268,-0.0004393083349073667,-1.948671545143641e-05
0.004420994514777325,-0.00043716838095020084,-1.97058346304008e-05
0.004703296311226008,-0.0004348873082437,-1.9923848552699276e-05
0.0049847205953146905,-0.0004324653040170648,-2.0140686705764467e-05
0.005264146160153885,-0.00042990308732819766,-2.0356278803600784e-05
0.005540345023661523,-0.00042720196453224383,-2.0570555066565893e-05
0.005811992901305477,-0.0004243638800510021,-2.0783446527711705e-05
0.006077681693839776,-0.00042139146140221577,-2.0994885363075008e-05
0.006335933795800987,-0.0004182880575298056,-2.1204805242808013e-05
0.006585217993134635,-0.0004150577695825717,-2.1413141699586106e-05
0.006823966700684339,-0.0004117054734091169,-2.1619832510334027e-05
0.007050594267532882,-0.0004082368331670626,-2.1824818086978074e-05
0.0072635160390976524,-0.000404658305590405,-2.202804187166744e-05
0.007461167828053539,-0.0004009771346236172,-2.2229450731720946e-05
0.0076420254362774675,-0.00039720133630753447,-2.2428995349453733e-05
0.007804623889840641,-0.0003933396739760049,-2.262663060202462e-05
0.00794757608437153,-0.00038940162398245186,-2.2822315926514234e-05
0.008069590579774329,-0.0003853973323164154,-2.301601566558895e-05
0.008169488329866895,-0.00038133756258900504,-2.3207699389315308e-05
0.008246218174677867,-0.00037723363596286883,-2.3397342188953276e-05
0.008298870947621379,-0.000373097363682294,-2.3584924938864567e-05
0.008326692056984887,-0.00036894097293114245,-2.3770434523017927e-05
0.008329092403361707,-0.00036477702681605577,-2.3953864022954728e-05
0.008305657498470663,-0.00036061833934059766,-2.413521286449389e-05
0.008256154658357334,-0.0003564778863013907,-2.4314486920904385e-05
0.008180538160201973,-0.00035236871309675085,-2.449169857075392e-05
0.008078952280189084,-0.0003483038404866531,-2.466686670914977e-05
0.007951732168480899,-0.0003442961693744856,-2.4840016711615056e-05
0.00779940256929807,-0.00034035838569004086,-2.5011180350381186e-05
0.007622674464654975,-0.0003365028664315526,-2.5180395663411586e-05
0.007422439794108872,-0.00033274158786686164,-2.534770677698619e-05
0.007199764449152064,-0.0003290860368060464,-2.5513163683154417e-05
0.0069558797515398025,-0.00032554712575587347,-2.5676821973794896e-05
0.0066921726244760504,-0.0003221351126618695,-2.5838742533399332e-05
0.006410174675034308,-0.0003188595258369919,-2.5998991193024048e-05
0.0061115504160969445,-0.0003157290945642091,-2.615763834812435e-05
0.0057980848415513245,-0.00031275168574979706,-2.6314758543202852e-05
0.005471670515066583,-0.0003099342469106426,-2.647043002636796e-05
0.0051342942503539366,-0.00030728275571928747,-2.6624734277025445e-05
0.004788023383207015,-0.0003048021763108972,-2.677775551003299e-05
0.004434991600324882,-0.00030249642256501426,-2.6929580159751968e-05
0.004077384308034587,-0.00030036832858792436,-2.70802963475402e-05
0.0037174235721965693,-0.00029841962661786655,-2.7229993336341648e-05
0.003357352708539589,-0.0002966509325476825,-2.7378760976133034e-05
0.0029994206399492325,-0.0002950617392105603,-2.7526689144072595e-05
0.0026458661655509074,-0.0002936504175091852,-2.767386718325253e-05
0.002298902301866059,-0.000292414225392331,-2.782038334397791e-05
0.0019607008570502737,-0.0002913493246026019,-2.7966324231476645e-05
0.0016333773948553048,-0.0002904508050396255,-2.8111774263887202e-05
0.0013189767417989336,-0.0002897127165054619,-2.8256815144273473e-05
0.0010194591807529587,-0.00028912810752482394,-2.8401525350281044e-05
0.000736687449398825,-0.000288689070867286,-2.854597964487907e-05
0.0004724146284597024,-0.00028838679534782136,-2.8690248611432847e-05
0.00022827297678430262,-0.00028821162344651037,-2.883439821613143e-05
5.76375987141987e-06,-0.0002881531142623464,-2.8978489400558645e-05
-0.00019375187711575647,-0.0002882001112916575,-2.9122577706947147e-05
-0.0003690609340451818,-0.00028834081449444774,-2.9266712938393672e-05
-0.0005191054129832356,-0.00028856285608120486,-2.9410938856037586e-05
-0.0006429879208383118,-0.0002888533794146603,-2.955529291491155e-05
-0.0007399758908764346,-0.00028919912036758896,-2.9699806039857115e-05
-0.0008095042642142654,-0.0002895864904063616,-2.9844502442550602e-05
-0.000851176482088415,-0.0002900016605929373,-2.9989399480300426e-05
-0.0008647637008566775,-0.0002904306456386736,-3.0134507556858328e-05
-0.0008502022351934782,-0.00029085938712268615,-3.0279830065048667e-05
-0.0008075893331019162,-0.00029127383501476,-3.042536337058303e-05
-0.0007371774699120443,-0.0002916600267155135,-3.05710968360156e-05
-0.0006393674122471426,-0.00029200416293605327,-3.071701288342849e-05
-0.0005147003486828006,-0.00029229267987628574,-3.0863087094131575e-05
-0.0003638493988247727,-0.00029251231731316265,-3.1009288343428934e-05
-0.00018761076944394034,-0.0002926501823552298,-3.115557896834603e-05
1.3105275631873897e-05,-0.00029269380872868283,-3.130191496611701e-05
0.00023728357498246696,-0.00029263121151602926,-3.1448246221178186e-05
0.0004838133565905948,-0.000292450937283136,-3.159451675837798e-05
0.0007514976307396772,-0.00029214210953630343,-3.174066502008284e-05
0.001039062597748307,-0.00029169446947918145,-3.188662416483672e-05
0.001345166899765238,-0.0002910984121048031,-3.2032322385232714e-05
0.0016684104870991006,-0.000290345017758087,-3.2177683242698435e-05
0.002007342851990747,-0.00028942607942331457,-3.2322626016993784e-05
0.00236047041614957,-0.0002883341261062795,-3.2467066068376186e-05
0.002726262933614537,-0.0002870624427688385,-3.261091521059497e-05
0.0031031588569853524,-0.00028560508732118856,-3.275408209311747e-05
0.003489569688624766,-0.00028395690518478604,-3.289647259124397e-05
0.003883883403903185,-0.0002821135419116541,-3.303799020301808e-05
0.004284467097209355,-0.00028007145428637594,-3.317853645206759e-05
0.004689669042363255,-0.0002778279202514828,-3.331801129570205e-05
0.005097820357067739,-0.00027538104790162505,-3.345631353774033e-05
0.005507236440375447,-0.00027272978370226425,-3.3593341245641304e-05
0.005916218360542314,-0.0002698739200020348,-3.372899217156738e-05
0.006323054416314451,-0.0002668141018078206,-3.386316417701984e-05
0.006726022131674315,-0.0002635518326708234,-3.3995755660639506e-05
0.00712339092595153,-0.00026008947940641693,-3.412666598865882e-05
0.007513425628260356,-0.000256430275267864,-3.4255795927327386e-05
0.007894390916905894,-0.00025257832113157244,-3.4383048076427245e-05
0.008264556699968664,-0.0002485385842273538,-3.450832730276698e-05
0.008622204425609637,-0.0002443168939459592,-3.463154117231031e-05
0.008965634305488092,-0.00023991993426318478,-3.4752600379362594e-05
0.009293173424061423,-0.0002353552323307974,-3.487141917101109e-05
0.009603184668789812,-0.00023063114280758457,-3.498791576479569e-05
0.009894076355832228,-0.00022575682755142907,-3.510201275738544e-05
0.010164312372766717,-0.00022074223036927933,-3.521363752186562e-05
0.010412422641407331,-0.0002155980466157358,-3.532272259111187e-05
0.010637013719384185,-0.0002103356875255379,-3.542920602464719e-05
0.010836779382650603,-0.0002049672392500292,-3.553303175634108e-05
0.011010511036743458,-0.0001995054166451807,-3.563414992031488e-05
0.011157107787074124,-0.0001939635119392263,-3.573251715246099e-05
0.01127558596967731,-0.00018835533850003843,-3.5828096865070804e-05
0.011365087919715834,-0.00018269517002769014,-3.592085949220274e-05
0.011424889749372488,-0.00017699767561041806,-3.6010782703612266e-05
0.011454407928699556,-0.00017127785119090005,-3.60978515853126e-05
0.011453204512126534,-0.00016555094808069353,-3.61820587851305e-05
0.011420990915421054,-0.00015983239922380663,-3.626340462195662e-05
0.011357630200545513,-0.00015413774394481498,-3.634189715774878e-05
0.01126313785501308,-0.00014848255193092533,-3.641755223171771e-05
0.011137681060582121,-0.00014288234720202653,-3.649039345650095e-05
0.010981576445707486,-0.00013735253282545412,-3.656045217650782e-05
0.01079528632076743,-0.00013190831713383539,-3.662776738899764e-05
0.010579413417417378,-0.00012656464219928918,-3.6692385628830924e-05
0.01033469419374452,-0.0001213361152964987,-3.675436081820487e-05
0.010061990806468902,-0.00011623694404644535,-3.681375408304061e-05
0.009762281874837627,-0.00011128087587611872,-3.687063353802125e-05
0.009436652176976474,-0.0001064811423631652,-3.692507404258107e-05
0.00908628144533102,-0.00010185040895758833,-3.697715693041126e-05
0.00871243246436869,-9.74007304801634e-05,-3.7026969715270696e-05
0.008316438711831523,-9.314351268611334e-05,-3.7074605776062265e-05
0.007899691814432227,-8.908948005454741e-05,-3.712016402424743e-05
0.00746362908975288,-8.524864982850113e-05,-3.716374855671819e-05
0.007009721394869776,-8.163031220734547e-05,-3.720546829722715e-05
0.0065394614077833755,-7.824301650668219e-05,-3.724543662940565e-05
0.006054352380356693,-7.509456305964718e-05,-3.728377102429723e-05
0.00555589736922663,-7.219200062225134e-05,-3.7320592665217706e-05
0.005045588973599708,-6.954162903654477e-05,-3.73560260726324e-05
0.004524899645574773,-6.714900688175114e-05,-3.739019873161198e-05
0.0039952726564142305,-6.501896380625389e-05,-3.7423240724283976e-05
0.003458113798932186,-6.315561719241728e-05,-3.7455284369533644e-05
0.0029147838971430064,-6.156239276839848e-05,-3.748646387202385e-05
0.0023665921878347897,-6.0242048747154036e-05,-3.7516914982402736e-05
0.0018147906282298175,-5.919670304313789e-05,-3.754677467035031e-05
0.0012605691633822674,-5.8427863095234864e-05,-3.75761808118849e-05
0.000705051969115166,-5.79364578121105e-05,-3.760527189211174e-05
0.00014929469132417503,-5.772287114700067e-05,-3.7634186724351515e-05
-0.0004057172733064235,-5.778697679249623e-05,-3.766306418633639e-05
-0.000959069394803541,-5.8128173459523725e-05,-3.769204297389939e-05
-0.001509917479417011,-5.874542017807886e-05,-3.772126137230879e-05
-0.002057485977385996,-5.9637271042279615e-05,-3.775085704511388e-05
-0.0026010651354519765,-6.080190882048911e-05,-3.7780966840079576e-05
-0.003140006995304244,-6.223717685317816e-05,-3.7811726611497994e-05
-0.003673720231789849,-6.394060865995168e-05,-3.7843271057876275e-05
-0.00420166385209427,-6.590945468092271e-05,-3.787573357371149e-05
-0.004723339847747883,-6.814070560588325e-05,-3.7909246113783195e-05
