frame_number,force
0,588.9127200000223
1,589.0247863505265
2,589.1345736817336
3,589.2397436152273
4,589.3378584097712
5,589.4263868139279
6,589.502790709851
7,589.5647198056491
8,589.6103066581421
9,589.638507027732
10,589.6493982164405
11,589.6443451580657
12,589.6259701653312
13,589.597909882064
14,589.5643980640065
15,589.5297569137516
16,589.497899121818
17,589.4719339517428
18,589.4539399976591
19,589.4449281537528
20,589.4449831664365
21,589.4535447238238
22,589.4697691407393
23,589.4929023443058
24,589.5225959363265
25,589.5591095160969
26,589.6033623496885
27,589.6568242548672
28,589.7212656915073
29,589.7984150034156
30,589.889592073855
31,589.9953984445524
32,590.1155369298036
33,590.2488021552346
34,590.3932348526032
35,590.5463924641454
36,590.7056772243674
37,590.8686730703917
38,591.0334511538879
39,591.1988021836515
40,591.3643555985467
41,591.530563556878
42,591.6985566237089
43,591.8699006579526
44,592.0462902276022
45,592.2292070850801
46,592.4195660316317
47,592.6173757732308
48,592.8214569758887
49,593.0292703413977
50,593.2369049999747
51,593.4392642979333
52,593.6304652203456
53,593.8044364867868
54,593.9556615471762
55,594.0799778835675
56,594.1753198629641
57,594.2422785190491
58,594.2843536357673
59,594.3078023068575
60,594.3210459386524
61,594.3336770985425
62,594.355198898797
63,594.3937105182746
64,594.4547847753281
65,594.5407461922698
66,594.6504714575898
67,594.7797334864556
68,594.9220108535059
69,595.0695949021648
70,595.2147743464716
71,595.3508897260896
72,595.4731167129955
73,595.5789124542529
74,595.6681118383985
75,595.7426947406587
76,595.8062732930514
77,595.8633742752809
78,595.9186189589323
79,595.9759279289872
80,596.0378840277302
81,596.1053579020265
82,596.1774423830583
83,596.2516713969179
84,596.3244382042917
85,596.3914995100635
86,596.448465684613
87,596.4912156623216
88,596.5162092706527
89,596.5206923113399
90,596.5028162145987
91,596.4617233514871
92,596.3976480249148
93,596.3120323076272
94,596.2075888369235
95,596.0882168507147
96,595.9587152968685
97,595.8243088154702
98,595.6900641546076
99,595.5603026383455
100,595.4381105066585
101,595.3250237501541
102,595.220925865569
103,595.1241550322933
104,595.0317851937106
105,594.9400343518761
106,594.844759595146
107,594.7420039529818
108,594.6285494453118
109,594.5024080487456
110,594.3631684346739
111,594.2121270055442
112,594.0521661843534
113,593.8873894030104
114,593.7225662767086
115,593.5624720263426
116,593.4112189526026
117,593.2716751091124
118,593.1450452384948
119,593.0306533903628
120,592.925928011421
121,592.8265686472677
122,592.7268799459911
123,592.6202802528479
124,592.4999933944476
125,592.3598861480517
126,592.195338200152
127,592.0039816676272
128,591.7861618575988
129,591.5450363799679
130,591.2863067290702
131,591.0176390809913
132,590.7478696568005
133,590.4861018908086
134,590.2407968106244
135,590.0189501216043
136,589.8254428522744
137,589.6626380263168
138,589.5302708498109
139,589.4256517794079
140,589.3441713411486
141,589.2800519694799
142,589.2272368566275
143,589.1802647780588
144,589.1349780512652
145,589.0889497321047
146,589.0415818836578
147,588.9939001888976
148,588.9481292675088
149,588.9071634405307
150,588.8740504917513
151,588.8515847631252
152,588.8420588128066
153,588.847160714416
154,588.8679581585253
155,588.9049054342515
156,588.9578391786408
157,589.0259670251497
158,589.107877444247
159,589.2016023781687
160,589.3047509018563
161,589.4147084161754
162,589.5288700636664
163,589.6448618410951
164,589.7607068136397
165,589.874911483622
166,589.9864666355719
167,590.0947725466119
168,590.19951117906
169,590.3004981546825
170,590.3975533233183
171,590.4904249865099
172,590.5787824536479
173,590.662260179859
174,590.7405141486863
175,590.8132530666469
176,590.880231992203
177,590.9412280332006
178,590.9960339006492
179,591.0444931287187
180,591.0865730755988
181,591.122450872016
182,591.1525802373375
183,591.1777104287071
184,591.19884727408
185,591.2171780760021
186,591.2339999867578
187,591.2506723514321
188,591.268575684413
189,591.2890430375629
190,591.3132468264434
191,591.3420543153983
192,591.3758829102457
193,591.4145863198055
194,591.4573952853867
195,591.5029339633214
196,591.54933144429
197,591.5944318448712
198,591.6360776268168
199,591.6724222031919
200,591.7022295830518
201,591.7251260985383
202,591.7417694687512
203,591.7538999195771
204,591.7642500116388
205,591.7763154237223
206,591.7940126502152
207,591.821255906024
208,591.861481301991
209,591.917154672231
210,591.9893260248812
211,592.0773142457303
212,592.1785966112542
213,592.2889435539162
214,592.4027989182939
215,592.5138644978323
216,592.6158012775791
217,592.7029225309637
218,592.7707531332832
219,592.8163726605269
220,592.8385224434707
221,592.8375073548848
222,592.8149506087813
223,592.7734702817502
224,592.7163440369018
225,592.6472145272563
226,592.5698670886284
227,592.4880877070501
228,592.4055841021329
229,592.325933742585
230,592.2525213441138
231,592.1884459600277
232,592.1364015355401
233,592.0985513690305
234,592.0764235332018
235,592.0708543451907
236,592.082001113794
237,592.109434272468
238,592.1523057773338
239,592.2095759744649
240,592.2802653209956
241,592.3636865320669
242,592.4596142909869
243,592.5683627302622
244,592.69075527345
245,592.8279767448614
246,592.9812967693372
247,593.1516663478677
248,593.3392323601919
249,593.5428719902395
250,593.759880573634
251,593.9859257665174
252,594.2153135245522
253,594.4415218279502
254,594.657879330754
255,594.8582327708
256,595.0374758393951
257,595.1918830504164
258,595.3192616285062
259,595.4189741645334
260,595.4918936710287
261,595.5403365555808
262,595.5679844659234
263,595.5797712073202
264,595.581695317404
265,595.5805257450091
266,595.5833930459676
267,595.597296536909
268,595.6285925689697
269,595.6825369997072
270,595.7629314745545
271,595.8718922460771
272,596.0097462796663
273,596.1750566796779
274,596.3647668788732
275,596.5744324748838
276,596.7985065378506
277,597.0306665827771
278,597.2641915165918
279,597.4923889306275
280,597.7090483503144
281,597.9088810663229
282,598.0879070297494
283,598.2437514014179
284,598.3758120496208
285,598.485262204377
286,598.5748684530979
287,598.6486314965523
288,598.71128485844
289,598.7677068071441
290,598.8223117191449
291,598.8784906611671
292,598.938169628639
293,599.0015484216112
294,599.0670676749698
295,599.1316169989544
296,599.1909468352906
297,599.240203288179
298,599.274490229686
299,599.2893736515737
300,599.281264940863
301,599.2476486558248
302,599.1871568417201
303,599.0995252691827
304,598.9854821569354
305,598.84661408242
306,598.6852381674852
307,598.5042929304517
308,598.307237419806
309,598.0979185953012
310,597.8803537954475
311,597.6584049266802
312,597.4353837071753
313,597.2136802817598
314,596.9945180357688
315,596.7779055855274
316,596.5628051222858
317,596.3474882033012
318,596.1300129417931
319,595.908726019901
320,595.6826771806201
321,595.4518516347831
322,595.2171785613386
323,594.980340836579
324,594.7434667543471
325,594.5088069929039
326,594.2784816352731
327,594.0543404641842
328,593.8379398599398
329,593.6306067333105
330,593.4335323155043
331,593.2478294345608
332,593.0745085621634
333,592.9143676029954
334,592.767821604698
335,592.6347122913628
336,592.514144324229
337,592.404398900882
338,592.3029644022423
339,592.2066943211003
340,592.1120681930635
341,592.0155086856938
342,591.913704957231
343,591.8039052495417
344,591.6841599569515
345,591.5535096691169
346,591.4121130658741
347,591.2612948668102
348,591.1034774130416
349,590.9419641199114
350,590.7805768774994
351,590.6231962868143
352,590.4732919351381
353,590.3335449786006
354,590.2056466856982
355,590.0903058430123
356,589.9874381597728
357,589.8964708171528
358,589.8166844341697
359,589.7475235264213
360,589.6888228083484
361,589.640912139011
362,589.6045763472085
363,589.5808645454887
364,589.5707719006791
365,589.5748501089801
366,589.592829583411
367,589.6233445556433
368,589.663833720698
369,589.7106453274127
370,589.7593213562936
371,589.8049936350475
372,589.8428149465644
373,589.8683728067803
374,589.8780729826717
375,589.8695038914292
376,589.8417814812958
377,589.7958310734925
378,589.7345187107599
379,589.662539277387
380,589.586016931199
381,589.5118522344884
382,589.4469196050303
383,589.3972478529732
384,589.3673010843256
385,589.3594409633902
386,589.3736241137811
387,589.407377032215
388,589.4560784421031
389,589.5135460995209
390,589.5728663248424
391,589.6273356988185
392,589.6713356737996
393,589.7009603061795
394,589.7142766226842
395,589.7112009785014
396,589.693081175895
397,589.6621388082157
398,589.6209314439975
399,589.5719520722399
400,589.517419263282
401,589.4592503063361
402,589.3991674164108
403,589.3388668882352
404,589.2801741020849
405,589.225106817075
406,589.1757848877857
407,589.1341728148526
408,589.1017127843136
409,589.078956489938
410,589.0652992310196
411,589.0588742176485
412,589.0566233427068
413,589.0545442488673
414,589.0481050137713
415,589.032795194114
416,589.0047469868072
417,588.961330149253
418,588.9016144967612
419,588.8266122239752
420,588.7392539252992
421,588.6440985952371
422,588.5468165931974
423,588.4535197826442
424,588.3700451689671
425,588.3013098253629
426,588.2508304456818
427,588.2204491608472
428,588.2102556633603
429,588.2186712146571
430,588.2426705487446
431,588.2781411498
432,588.3203811275409
433,588.3647033843544
434,588.407062206214
435,588.4445792497904
436,588.4758475574222
437,588.5009466204777
438,588.5211860475736
439,588.5386645738399
440,588.5557590585353
441,588.5746523323173
442,588.5969815257772
443,588.6236440500929
444,588.6547494263
445,588.6896714264855
446,588.7271437289255
447,588.7653499410231
448,588.8019835597474
449,588.8342881173895
450,588.8591139639275
451,588.8730336327015
452,588.8725478423548
453,588.8543953579713
454,588.8159497070649
455,588.7556484478376
456,588.6733738918134
457,588.5707025428807
458,588.4509651790639
459,588.3190993099765
460,588.1813122449112
461,588.044593615107
462,587.9161243667239
463,587.8026375307351
464,587.7098014610028
465,587.6417111528687
466,587.6005691550628
467,587.5866020637726
468,587.598203077201
469,587.6322459246319
470,587.6844986517314
471,587.750066180664
472,587.8237947458217
473,587.9005870360422
474,587.975613603397
475,588.0444510714757
476,588.1032051890548
477,588.1486703452232
478,588.1785417646495
479,588.191655862598
480,588.1882098029611
481,588.1699048268897
482,588.1399619639448
483,588.102973245961
484,588.0645763011139
485,588.0309684524491
486,588.008305164474
487,588.0020567097112
488,588.0164168918183
489,588.05385450345
490,588.1148691792533
491,588.1979708335247
492,588.2998640720806
493,588.4157974510185
494,588.54003065331
495,588.6663722644364
496,588.7887407043695
497,588.9016969130606
498,589.0008918516584
499,589.0833786827146
500,589.1477691867555
501,589.1942544769996
502,589.2245338617132
503,589.2416863592204
504,589.2499857478783
505,589.2546280607504
506,589.2613387742985
507,589.2758683076531
508,589.3034438145098
509,589.3482723918534
510,589.413165099639
511,589.4993062349718
512,589.6061683606969
513,589.7315686917892
514,589.8718515270776
515,590.0221610979423
516,590.176761374446
517,590.3293794383088
518,590.4735816920397
519,590.6032020052198
520,590.7128122414264
521,590.7981831366523
522,590.8566620561147
523,590.8874031327297
524,590.8914122917658
525,590.8714010015173
526,590.8314718918973
527,590.7766842678687
528,590.7125623738501
529,590.6446068552484
530,590.5778525759126
531,590.5164979148299
532,590.4636234337441
533,590.4210167153625
534,590.3891129191461
535,590.3670457439237
536,590.3527903433627
537,590.3433778751956
538,590.3351738127308
539,590.3242268652117
540,590.3066904945249
541,590.2792889317549
542,590.2397663655643
543,590.1872499378275
544,590.1224787314306
545,590.0478779885642
546,589.9674673976679
547,589.886590700889
548,589.8114665746691
549,589.7485975881029
550,589.7041153443126
551,589.6831596422102
552,589.6893781949989
553,589.7245957798386
554,589.7886546060754
555,589.8794004757543
556,589.9927986571221
557,590.1231909258738
558,590.2637165368092
559,590.4068977649846
560,590.5453448687016
561,590.6724912421041
562,590.783250115734
563,590.8744963743302
564,590.9453097802233
565,590.9969513008541
566,591.0325760157415
567,591.0567221792364
568,591.0746575208195
569,591.0916932415793
570,591.1125747265799
571,591.1410233544343
572,591.1794506997992
573,591.2288217729955
574,591.2886320277976
575,591.3569844177548
576,591.4307828514549
577,591.5060672804328
578,591.5784918254884
579,591.6439032201042
580,591.6989343915546
581,591.7415049863761
582,591.7711298262765
583,591.7889807855487
584,591.7977105066
585,591.8010971067281
586,591.8035882102572
587,591.8098166995795
588,591.8241460546815
589,591.8502855315708
590,591.8909960354425
591,591.9478965459426
592,592.021383012793
593,592.1106727674954
594,592.2139742994565
595,592.3287613415929
596,592.4521163896064
597,592.5811044848355
598,592.7131335574131
599,592.8462478533687
600,592.9792969253577
601,593.1119399699703
602,593.2444821668406
603,593.3775758792189
604,593.5118389104445
605,593.6474479488255
606,593.7837726271736
607,593.9191279651927
608,594.0507236245624
609,594.1748601237664
610,594.2873692183109
611,594.3842380102683
612,594.4623120375312
613,594.5199516150078
614,594.5575203413422
615,594.5776088748072
616,594.5849314089917
617,594.5858754524506
618,594.5877437227134
619,594.5977941578577
620,594.6222344623178
621,594.6653402839672
622,594.7288452308304
623,594.8117101396455
624,594.9103200031592
625,595.019077638166
626,595.1312787908967
627,595.2400963416576
628,595.3394960853017
629,595.4249493512871
630,595.493872484739
631,595.5457804866999
632,595.5821734269914
633,595.606184279081
634,595.6220302262059
635,595.634340943097
636,595.6474714385978
637,595.6649189926462
638,595.688947116627
639,595.7204821001006
640,595.7592936397507
641,595.804403829455
642,595.854608427729
643,595.9089700394768
644,595.9671647652292
645,596.0296168603717
646,596.0974167276754
647,596.1720642054139
648,596.2550984616082
649,596.3476769206738
650,596.4501715553462
651,596.561866372139
652,596.6808416684732
653,596.8040960686909
654,596.9278923256204
655,597.0482494406182
656,597.1614750098738
657,597.2646424803378
658,597.3559414667025
659,597.4348449999134
660,597.5020582920114
661,597.5592579905035
662,597.6086862837071
663,597.6526961794522
664,597.6933344484564
665,597.7320115156264
666,597.7692739882706
667,597.8046842135183
668,597.8368161350089
669,597.8633813394249
670,597.8814937059856
671,597.8880637968093
672,597.8802875786058
673,597.8561628060581
674,597.8149395170332
675,597.7574054901642
676,597.6859359363067
677,597.6042893899217
678,597.5171827490767
679,597.4297112346524
680,597.3466948485303
681,597.272036775194
682,597.2081744563523
683,597.1556960766532
684,597.1131849588256
685,597.0773336157752
686,597.04333142663
687,597.0054807649129
688,596.9579500784424
689,596.8955446401311
690,596.8143766333891
691,596.7123395189097
692,596.5893203071794
693,596.4471152466533
694,596.2890631066341
695,596.1194758081455
696,595.9430021456275
697,595.7640725505357
698,595.5865281780673
699,595.4134578598258
700,595.2471941662316
701,595.089389174242
702,594.9411080120985
703,594.8029212919004
704,594.675010543926
705,594.55730227981
706,594.4496241232661
707,594.3518528884074
708,594.2640139733342
709,594.1862981755318
710,594.1189843860193
711,594.0622826990099
712,594.0161276894568
713,593.9799577356181
714,593.9525248404192
715,593.9317874136492
716,593.9149323952012
717,593.8985513033073
718,593.8789650569231
719,593.8526568090142
720,593.8167334973022
721,593.7693105979819
722,593.7097184806137
723,593.6384689894323
724,593.5569883361513
725,593.4671937369882
726,593.3710367990026
727,593.2701363147977
728,593.1655782183489
729,593.0578951081482
730,592.9471854196278
731,592.8333105803902
732,592.7161091807366
733,592.5955765012693
734,592.4719726956762
735,592.3458441554301
736,592.217967937151
737,592.0892548248697
738,591.960662182169
739,591.8331600903633
740,591.7077637635234
741,591.5856068849478
742,591.4680029960415
743,591.3564416028316
744,591.2524954593997
745,591.1576571474582
746,591.0731507269553
747,590.9997669881859
748,590.9377556488672
749,590.8867861190412
750,590.8459677799694
751,590.8139075142356
752,590.7887827550782
753,590.7684210658294
754,590.7503897687396
755,590.7321010218706
756,590.7109328390545
757,590.6843633205522
758,590.650110870646
759,590.6062599989335
760,590.5513390405637
761,590.4843244404636
762,590.4045821002483
763,590.3117953383529
764,590.2059362804395
765,590.0873009934965
766,589.9565762134449
767,589.8148813798256
768,589.6637474951925
769,589.5050270169005
770,589.3407506594934
771,589.1729603914764
772,589.0035632315188
773,588.8342601745287
774,588.6665890771689
775,588.5020730199872
776,588.3424125288537
777,588.1896421844613
778,588.0461986481105
779,587.9148843919475
780,587.7987284720458
781,587.7007468695007
782,587.6236125325992
783,587.5692713414205
784,587.5385768788346
785,587.5310396948723
786,587.5447726149331
787,587.5766637226045
788,587.6227463164325
789,587.6786834446953
790,587.7402578832917
791,587.8037663884172
792,587.8662583481405
793,587.9256141552411
794,587.9805026658947
795,588.0302782999682
796,588.0748791382462
797,588.1147701553192
798,588.1509421392458
799,588.1849422034718
800,588.2188979822454
801,588.2555046366821
802,588.2979503511428
803,588.3497538951668
804,588.4144952108411
805,588.4954529758699
806,588.5952073683578
807,588.7152881921226
808,588.8559334374906
809,589.015990607239
810,589.1929697712312
811,589.3832491421027
812,589.5824275030421
813,589.7858010523764
814,589.9889173384304
815,590.18813716982
816,590.3811228745883
817,590.5671651074866
818,590.7472611367455
819,590.9238793426181
820,591.1004066819532
821,591.2803775892983
822,591.4666812289678
823,591.660971723851
824,591.8634318224076
825,592.0729033512085
826,592.2872743171544
827,592.5039599785817
828,592.7203377722605
829,592.9340542475212
830,593.143174802068
831,593.3461812659284
832,593.541848970113
833,593.7290628079957
834,593.9066500794803
835,594.0732979885349
836,594.2275881874862
837,594.3681430427401
838,594.4938507406447
839,594.6041121993679
840,594.699032095423
841,594.7794766937295
842,594.8469552740702
843,594.9033373124969
844,594.950465943531
845,594.9897528781238
846,595.0218442712888
847,595.046437324749
848,595.0623059428823
849,595.0675660638968
850,595.0601765590194
851,595.0386144013244
852,595.0025823221878
853,594.9535460240451
854,594.894912994058
855,594.8317664262282
856,594.7702043166888
857,594.716440298123
858,594.6758695202867
859,594.6522938506572
860,594.6474481551339
861,594.6608888126667
862,594.6902201096772
863,594.7315690303236
864,594.7801917701129
865,594.8311068102673
866,594.8796792942276
867,594.9221030368578
868,594.9557328006679
869,594.9792273856731
870,594.9924885788957
871,594.9964153343369
872,594.992520292638
873,594.9824703081683
874,594.9676152752969
875,594.9485649669472
876,594.9248744076414
877,594.8949088071182
878,594.8559575817142
879,594.8046312679297
880,594.73751250849
881,594.6519676918326
882,594.5469786071689
883,594.4238317979283
884,594.2865090177576
885,594.1416585601947
886,593.9980985325926
887,593.8659029142589
888,593.7552231953355
889,593.6750629076662
890,593.6322211550073
891,593.6305616418733
892,593.670681235855
893,593.7499778885617
894,593.8630606678335
895,594.0024035305339
896,594.1591264024532
897,594.3238016364323
898,594.4872186531397
899,594.6410637475036
900,594.7784742333486
901,594.8944263948301
902,594.9859331125479
903,595.0520534152449
904,595.0937379130149
905,595.1135443315869
906,595.1152578156617
907,595.1034480225985
908,595.0829953844376
909,595.0586219264534
910,595.034463199136
911,595.0137153738707
912,594.9983893806049
913,594.989207985012
914,594.9856855728768
915,594.9864094551185
916,594.9894839319377
917,594.9930384672
918,594.9956876774617
