frame_number,force
0,650.1804945138051
1,650.1603683102237
2,650.1404690507482
3,650.1207976094189
4,650.1013579659924
5,650.08215721214
6,650.0632055246966
7,650.0445161112843
8,650.0261051322174
9,650.0079916005571
10,649.9901972609831
11,649.9727464483642
12,649.9556659276926
13,649.9389847170912
14,649.9227338946179
15,649.9069463883424
16,649.8916567484422
17,649.8769009000654
18,649.8627158762553
19,649.8491395312276
20,649.836210235816
21,649.823966558813
22,649.8124469393875
23,649.8016893557532
24,649.7917309937396
25,649.7826079169455
26,649.7743547389159
27,649.7670042977213
28,649.7605873340572
29,649.7551321750951
30,649.7506644275927
31,649.747206684909
32,649.7447782529918
33,649.7433948998461
34,649.7430686319697
35,649.7438075004981
36,649.7456154395693
37,649.748492139341
38,649.7524329556451
39,649.757428857217
40,649.7634664099894
41,649.770527796502
42,649.778590867515
43,649.7876292227108
44,649.797612317758
45,649.8085055955818
46,649.8202706402244
47,649.8328653521676
48,649.8462441443522
49,649.8603581582986
50,649.8751554998621
51,649.8905814943901
52,649.906578961344
53,649.9230885087636
54,649.9400488481766
55,649.9573971304513
56,649.9750693025167
57,649.9930004842688
58,650.0111253648682
59,650.0293786179549
60,650.0476953355541
61,650.0660114802512
62,650.0842643544692
63,650.1023930844668
64,650.1203391154784
65,650.1380467139445
66,650.155463473104
67,650.1725408184476
68,650.1892345090139
69,650.2055051295849
70,650.2213185683512
71,650.2366464747835
72,650.2514666927494
73,650.2657636638096
74,650.2795287951097
75,650.2927607855564
76,650.3054659031519
77,650.3176582057356
78,650.3293596972507
79,650.3406004120349
80,650.3514184201856
81,650.3618597474739
82,650.3719782037064
83,650.3818351143548
84,650.3914989520715
85,650.4010448673658
86,650.4105541208999
87,650.4201134230545
88,650.4298141891366
89,650.4397517206664
90,650.4500243245916
91,650.460732382866
92,650.4719773845967
93,650.483860932336
94,650.4964837337842
95,650.5099445904207
96,650.5243393951023
97,650.5397601510131
98,650.5562940242328
99,650.5740224415323
100,650.5930202439605
101,650.613354905571
102,650.6350858253899
103,650.6582636996105
104,650.6829299802292
105,650.7091164258874
106,650.7368447501955
107,650.7661263717849
108,650.7969622685548
109,650.8293429363384
110,650.8632484500437
111,650.898648623492
112,650.9355032626654
113,650.9737625058577
114,651.0133672431983
115,651.054249607019
116,651.0963335238191
117,651.1395353185746
118,651.1837643629456
119,651.228923760197
120,651.2749110610055
121,651.3216190057756
122,651.3689362906368
123,651.416748355329
124,651.4649381905252
125,651.513387159172
126,651.5619758220947
127,651.6105847544857
128,651.6590953385249
129,651.7073905183701
130,651.7553555061172
131,651.8028784301673
132,651.84985092053
133,651.8961686289489
134,651.9417316846811
135,651.9864450882252
136,652.0302190450808
137,652.072969240885
138,652.1146170590632
139,652.1550897422367
140,652.1943204981598
141,652.2322485501076
142,652.2688191314517
143,652.30398342505
144,652.3376984491903
145,652.3699268924566
146,652.4006369001877
147,652.4298018156387
148,652.4573998795966
149,652.4834138929043
150,652.5078308472476
151,652.5306415306637
152,652.5518401150887
153,652.5714237331839
154,652.5893920504632
155,652.6057468367915
156,652.6204915395402
157,652.6336308601209
158,652.6451703367225
159,652.6551159381546
160,652.6634736756623
161,652.6702492410242
162,652.6754476802844
163,652.679073113092
164,652.6811285077059
165,652.6816155211887
166,652.680534412722
167,652.6778840346656
168,652.6736619011102
169,652.667864328389
170,652.6604866376949
171,652.6515234072361
172,652.6409687603895
173,652.6288166768976
174,652.615061316015
175,652.5996973431232
176,652.582720253959
177,652.5641266924824
178,652.5439147594044
179,652.5220843088811
180,652.4986372311561
181,652.473577718965
182,652.4469125153297
183,652.4186511401152
184,652.3888060925092
185,652.3573930264157
186,652.3244308955916
187,652.2899420653782
188,652.2539523886128
189,652.2164912449983
190,652.1775915453014
191,652.1372897033116
192,652.0956255791755
193,652.0526423977933
194,652.0083866458319
195,651.9629079507522
196,651.9162589449235
197,651.8684951170961
198,651.8196746522765
199,651.7698582599824
200,651.7191089904206
201,651.6674920383279
202,651.615074534837
203,651.5619253285599
204,651.5081147577683
205,651.4537144157683
206,651.398796910943
207,651.3434356212983
208,651.2877044410574
209,651.2316775149133
210,651.1754289548434
211,651.1190325350011
212,651.0625613616368
213,651.0060875169
214,650.9496816776829
215,650.893412713257
216,650.8373472679973
217,650.7815493375965
218,650.7260798486221
219,650.6709962520517
220,650.6163521417213
221,650.5621969084751
222,650.5085754400216
223,650.4555278749813
224,650.4030894175177
225,650.3512902165414
226,650.3001553111573
227,650.2497046422881
228,650.1999531294741
229,650.1509108112692
230,650.102583047045
231,650.054970777429
232,650.00807084011
233,649.9618763369731
234,649.9163770472278
235,649.8715598797851
236,649.8274093574682
237,649.7839081258086
238,649.7410374792457
239,649.6987778965303
240,649.6571095751322
241,649.6160129524594
242,649.5754692004232
243,649.5354606795942
244,649.4959713400575
245,649.4569870584098
246,649.4184959040471
247,649.3804883321357
248,649.3429573043588
249,649.3058983411161
250,649.2693095103987
251,649.2331913594762
252,649.197546796014
253,649.1623809252827
254,649.1277008498326
255,649.0935154378002
256,649.059835066233
257,649.0266713462609
258,648.9940368369988
259,648.9619447543279
260,648.9304086796133
261,648.8994422729336
262,648.869058995888
263,648.8392718497573
264,648.810093134623
265,648.7815342336222
266,648.7536054244243
267,648.7263157183106
268,648.6996727265398
269,648.673682553769
270,648.6483497184593
271,648.6236770999026
272,648.5996659108032
273,648.5763156936054
274,648.5536243382912
275,648.5315881190093
276,648.5102017462501
277,648.4894584304083
278,648.4693499521514
279,648.4498667357608
280,648.4309979233416
281,648.4127314495718
282,648.3950541178338
283,648.377951679311
284,648.3614089171161
285,648.3454097375816
286,648.3299372703135
287,648.3149739775278
288,648.3005017718567
289,648.2865021410419
290,648.2729562783529
291,648.2598452187749
292,648.2471499818713
293,648.2348517222496
294,648.2229318879995
295,648.2113723866507
296,648.2001557571966
297,648.1892653458258
298,648.1786854824463
299,648.168401654646
300,648.1584006751699
301,648.148670838636
302,648.1392020633099
303,648.1299860140225
304,648.1210162024025
305,648.1122880608303
306,648.1037989874081
307,648.095548360755
308,648.0875375251211
309,648.0797697475373
310,648.0722501487168
311,648.064985608027
312,648.0579846412528
313,648.0512572498665
314,648.0448147424203
315,648.0386695312302
316,648.0328349096507
317,648.0273248166367
318,648.0221535957388
319,648.0173357550343
320,648.0128857331744
321,648.0088176753336
322,648.0051452216625
323,648.0018813098947
324,647.9990379932418
325,647.9966262747932
326,647.9946559601373
327,647.9931355304899
328,647.9920720391391
329,647.9914710344271
330,647.9913365126746
331,647.9916709043823
332,647.9924750967185
333,647.9937484947618
334,647.995489123328
335,647.9976937703649
336,648.0003581714753
337,648.0034772330723
338,648.0070452894624
339,648.0110563873592
340,648.0155045902419
341,648.0203842946071
342,648.025690550354
343,648.0314193780816
344,648.0375680767334
345,648.044135515561
346,648.0511224046288
347,648.0585315379911
348,648.0663680032657
349,648.0746393510224
350,648.0833557179773
351,648.0925298995417
352,648.1021773690487
353,648.1123162424656
354,648.1229671890287
355,648.134153290506
356,648.1458998545053
357,648.1582341897662
358,648.1711853528411
359,648.1847838754422
360,648.1990614802997
361,648.2140507916805
362,648.2297850455849
363,648.2462978040577
364,648.2636226775873
365,648.2817930590447
366,648.3008418721631
367,648.3208013371955
368,648.3417027561447
369,648.3635763198624
370,648.3864509391142
371,648.4103541008157
372,648.435311748969
373,648.4613481881453
374,648.4884860064
375,648.5167460142662
376,648.5461471966398
377,648.5767066746868
378,648.6084396751519
379,648.6413595045923
380,648.6754775264794
381,648.7108031400603
382,648.7473437610149
383,648.7851048047906
384,648.824089673961
385,648.8642997513209
386,648.9057344007089
387,648.9483909774387
388,648.9922648495287
389,649.0373494297241
390,649.0836362170337
391,649.1311148455404
392,649.1797731375726
393,649.2295971574546
394,649.2805712608435
395,649.3326781336448
396,649.3858988143438
397,649.4402126945428
398,649.4955974943058
399,649.5520292110682
400,649.60948204262
401,649.6679282855266
402,649.7273382103809
403,649.7876799151717
404,649.8489191585486
405,649.9110191760499
406,649.9739404839567
407,650.037640676525
408,650.1020742223897
409,650.167192265203
410,650.2329424328739
411,650.2992686595685
412,650.3661110248729
413,650.433405614981
414,650.5010844112969
415,650.5690752123377
416,650.6373015950768
417,650.7056829216214
418,650.7741343963976
419,650.8425671780797
420,650.9108885492975
421,650.9790021456653
422,651.0468082442105
423,651.1142041100292
424,651.1810843985198
425,651.2473416085495
426,651.3128665799736
427,651.3775490278894
428,651.4412781057025
429,651.5039429886485
430,651.5654334684954
431,651.6256405495724
432,651.684457036997
433,651.741778109877
434,651.7975018742585
435,651.8515298917433
436,651.903767679818
437,651.9541251792658
438,652.002517183211
439,652.0488637220757
440,652.093090399298
441,652.1351286737871
442,652.1749160864224
443,652.2123964292983
444,652.2475198578825
445,652.2802429478995
446,652.3105287004083
447,652.3383464998211
448,652.3636720303973
449,652.386487157289
450,652.4067797786487
451,652.4245436553508
452,652.4397782243932
453,652.4524884013765
454,652.4626843770769
455,652.4703814129695
456,652.4755996401309
457,652.4783638649296
458,652.4787033836113
459,652.4766518068265
460,652.4722468942947
461,652.4655303986997
462,652.456547916534
463,652.4453487426592
464,652.4319857253693
465,652.4165151193096
466,652.3989964339388
467,652.3794922750665
468,652.3580681765205
469,652.334792418229
470,652.3097358263144
471,652.2829715509508
472,652.2545748190446
473,652.2246226608204
474,652.1931936114099
475,652.1603673900461
476,652.1262245601513
477,652.0908461734025
478,652.0543134000601
479,652.0167071471376
480,651.978107665957
481,651.9385941514207
482,651.8982443367665
483,651.8571340895047
484,651.8153370162721
485,651.7729240859067
486,651.7299632807221
487,651.686519285931
488,651.6426532267534
489,651.598422461982
490,651.5538804414189
491,651.5090766326549
492,651.4640565204684
493,651.4188616800805
494,651.373529923716
495,651.3280955180735
496,651.2825894679196
497,651.2370398581512
498,651.1914722440822
499,651.1459100781994
500,651.1003751612304
501,651.0548881056409
502,651.0094688002933
503,650.964136865697
504,650.9189120897884
505,650.8738148343288
506,650.8288664020188
507,650.7840893547605
508,650.7395077745235
509,650.6951474602122
510,650.6510360567439
511,650.6072031156801
512,650.5636800893781
513,650.5205002624159
514,650.4776986251502
515,650.4353116949361
516,650.3933772910028
517,650.3519342695117
518,650.3110222260967
519,650.2706811739315
520,650.2309512056369
521,650.1918721469003
522,650.1534832086961
523,650.1158226438642
524,650.078927412866
525,650.0428328628925
526,650.0075724240568
527,649.9731773260072
528,649.9396763377359
529,649.9070955324854
530,649.8754580785256
531,649.8447840552898
532,649.8150902931119
533,649.7863902340869
534,649.7586938118646
535,649.7320073493876
536,649.7063334751368
537,649.6816710598835
538,649.6580151769843
539,649.6353570896687
540,649.613684268321
541,649.592980439522
542,649.5732256670242
543,649.5543964636687
544,649.5364659330271
545,649.5194039400865
546,649.5031773107692
547,649.4877500598636
548,649.4730836461944
549,649.459137253243
550,649.4458680933371
551,649.4332317337963
552,649.4211824436294
553,649.409673559213
554,649.3986578667123
555,649.3880879979149
556,649.377916834754
557,649.3680979162899
558,649.3585858407193
559,649.3493366544197
560,649.3403082201564
561,649.3314605571348
562,649.3227561463812
563,649.3141601960439
564,649.3056408625833
565,649.2971694249428
566,649.2887204092245
567,649.2802716614568
568,649.2718043666479
569,649.2633030140069
570,649.2547553106591
571,649.2461520487003
572,649.2374869326
573,649.2287563756717
574,649.2199592755592
575,649.2110967793195
576,649.2021720486357
577,649.1931900348477
578,649.184157271838
579,649.1750816927245
580,649.1659724743547
581,649.1568399116551
582,649.1476953214574
583,649.1385509726555
584,649.1294200374217
585,649.1203165575752
586,649.1112554209061
587,649.1022523435079
588,649.0933238552185
589,649.0844872859009
590,649.0757607506863
591,649.0671631328261
592,649.0587140636446
593,649.0504339002111
594,649.0423437027293
595,649.0344652154195
596,649.0268208566577
597,649.0194337255418
598,649.0123276319192
599,649.0055271550813
600,648.9990577337018
601,648.9929457871624
602,648.9872188663122
603,648.9819058296483
604,648.9770370390024
605,648.9726445674607
606,648.9687624114823
607,648.9654266988648
608,648.9626758843668
609,648.9605509254708
610,648.959095431773
611,648.9583557827707
612,648.9583812104735
613,648.9592238450206
614,648.960938722849
615,648.9635837578794
616,648.9672196770954
617,648.9719099229542
618,648.9777205256548
619,648.9847199476296
620,648.9929789008023
621,649.0025701353227
622,649.0135681978401
623,649.0260491582724
624,649.0400903058697
625,649.0557698169946
626,649.0731663974715
627,649.0923589014801
628,649.1134259275133
629,649.136445390858
630,649.1614940718775
631,649.188647139997
632,649.2179776543117
633,649.2495560426876
634,649.2834495618456
635,649.3197217412626
636,649.3584318139597
637,649.3996341373436
638,649.4433776070618
639,649.4897050665691
640,649.5386527153927
641,649.5902495201661
642,649.6445166338311
643,649.7014668291735
644,649.7611039527128
645,649.8234224044257
646,649.8884066488506
647,649.9560307643734
648,650.0262580392765
649,650.0990406240116
650,650.1743192483551
651,650.2520230101746
652,650.332069240494
653,650.4143634479011
654,650.4987993441559
655,650.5852589518837
656,650.6736127941152
657,650.763720164086
658,650.8554294725855
659,650.9485786695877
660,651.0429957366232
661,651.1384992460214
662,651.2348989828688
663,651.3319966255146
664,651.4295864805832
665,651.527456268381
666,651.6253879542895
667,651.7231586215221
668,651.8205413808322
669,651.9173063132532
670,652.0132214423098
671,652.1080537322497
672,652.2015701087796
673,652.2935384985713
674,652.3837288833797
675,652.4719143640639
676,652.5578722291153
677,652.6413850214858
678,652.722241596607
679,652.8002381636595
680,652.8751793014691
681,652.9468789401797
682,653.0151613004783
683,653.0798617835349
684,653.1408278062354
685,653.1979195771085
686,653.2510108085814
687,653.2999893609976
688,653.3447578131181
689,653.3852339528527
690,653.4213511814571
691,653.453058824941
692,653.4803223476641
693,653.5031234644622
694,653.5214601489845
695,653.5353465373411
696,653.5448127273203
697,653.5499044739926
698,653.5506827827495
699,653.5472234015431
700,653.539616215598
701,653.5279645495668
702,653.5123843832332
703,653.4930034874831
704,653.4699604878128
705,653.4434038633199
706,653.4134908899
707,653.3803865373741
708,653.3442623313916
709,653.3052951918796
710,653.2636662601672
711,653.2195597264931
712,653.1731616684482
713,653.124658909434
714,653.0742379048697
715,653.0220836628016
716,652.9683787048508
717,652.9133020733215
718,652.857028390957
719,652.7997269809927
720,652.7415610559581
721,652.6826869831714
722,652.6232536328523
723,652.5634018121
724,652.5032637857743
725,652.442962884282
726,652.3826131984272
727,652.3223193622898
728,652.2621764257007
729,652.2022698178125
730,652.1426754027563
731,652.0834596277012
732,652.0246797627316
733,651.9663842306214
734,651.9086130228773
735,651.8513981962312
736,651.7947644407714
737,651.7387297070418
738,651.6833058754199
739,651.6284994480802
740,651.5743122430555
741,651.5207420717537
742,651.4677833849504
743,651.4154278762193
744,651.3636650351857
745,651.3124826462307
746,651.2618672315743
747,651.2118044402633
748,651.1622793857276
749,651.1132769345621
750,651.0647819490529
751,651.0167794864806
752,650.9692549595907
753,650.9221942643987
754,650.8755838827996
755,650.8294109676167
756,650.7836634169917
757,650.7383299440025
758,650.6934001463368
759,650.6488645794433
760,650.6047148345633
761,650.5609436204647
762,650.5175448449679
763,650.4745136898407
764,650.4318466708145
765,650.3895416738064
766,650.347597959105
767,650.3060161270429
768,650.264798041335
769,650.2239467095399
770,650.1834661233443
771,650.1433610640192
772,650.1036368806263
773,650.0642992506441
774,650.0253539342109
775,649.9868065335127
776,649.9486622678801
777,649.9109257731776
778,649.8736009316123
779,649.8366907358397
780,649.8001971896568
781,649.7641212465135
782,649.7284627860744
783,649.6932206279273
784,649.6583925805597
785,649.6239755232571
786,649.5899655184099
787,649.5563579513687
788,649.5231476944803
789,649.4903292917096
790,649.4578971601985
791,649.425845804657
792,649.3941700395446
793,649.3628652131231
794,649.3319274269893
795,649.3013537444433
796,649.2711423808755
797,649.2412928694789
798,649.2118061962241
799,649.18268489938
800,649.1539331310046
801,649.125556680386
802,649.0975629614505
803,649.0699609670684
804,649.0427611933619
805,649.0159755373368
806,648.9896171717845
807,648.9637004022336
808,648.9382405111534
809,648.9132535940636
810,648.8887563907333
811,648.8647661131937
812,648.8413002718773
813,648.8183765021502
814,648.7960123952078
815,648.7742253387396
816,648.7530323732379
817,648.7324500692888
818,648.7124944299551
819,648.6931808208374
820,648.6745239288921
821,648.6565377496128
822,648.6392356007785
823,648.622630160123
824,648.6067335244314
825,648.5915572882689
826,648.577112640911
827,648.5634104799848
828,648.550461540318
829,648.5382765365034
830,648.5268663170089
831,648.5162420260841
832,648.5064152679311
833,648.4973982664743
834,648.4892040138242
835,648.4818464008192
836,648.4753403234668
837,648.4697017596728
838,648.4649478116955
839,648.4610967115431
840,648.4581677888622
841,648.4561814029498
842,648.4551588415757
843,648.4551221892419
844,648.4560941669113
845,648.4580979445456
846,648.4611569272063
847,648.4652945154133
848,648.4705338413206
849,648.4768974836747
850,648.4844071658956
851,648.493083442742
852,648.5029453817614
853,648.5140102456202
854,648.5262931803542
855,648.539806913162
856,648.5545614622637
857,648.5705638605056
858,648.5878178933823
859,648.6063238511479
860,648.6260782945119
861,648.6470738345322
862,648.6692989291678
863,648.6927377005832
864,648.7173697782989
865,648.7431701738183
866,648.7701091923677
867,648.798152386445
868,648.8272605537937
869,648.8573897797575
870,648.8884915215765
871,648.9205127306216
872,648.9533960079996
873,648.9870797894059
874,649.0214985561357
875,649.056583069989
876,649.0922606297953
877,649.1284553465559
878,649.1650884334326
879,649.2020785065849
880,649.2393418931201
881,649.2767929427537
882,649.3143443399398
883,649.3519074135805
884,649.3893924423969
885,649.4267089554046
886,649.4637660278347
887,649.5004725728608
888,649.5367376292148
889,649.5724706448269
890,649.6075817567854
891,649.6419820676124
892,649.6755839170754
893,649.7083011481312
894,649.7400493656924
895,649.7707461878746
896,649.8003114909882
897,649.8286676513264
898,649.8557397881649
899,649.8814560128338
900,649.9057476882992
901,649.9285497028715
902,649.9498007607565
903,649.9694436910562
904,649.9874257754518
905,650.0036990934448
906,650.0182208829369
907,650.0309539129514
908,650.0418668640524
909,650.0509347103667
910,650.058139095363
911,650.0634686922436
912,650.0669195391566
913,650.0684953391515
914,650.0682077146803
915,650.0660764067641
916,650.0621294100346
917,650.0564030366083
