acceleration,velocity,displacement
-0.001719495307585018,0.0,0.0
-0.0020231086147923555,-9.356509805943434e-07,-2.3391274514858583e-10
-0.002323298362745057,-2.0222527249786967e-06,-9.733886715418458e-10
-0.002620051366129409,-3.258090157197313e-06,-2.2934743920858483e-09
-0.0029133075884355515,-4.641429895838553e-06,-4.268354405344815e-09
-0.003202960048444314,-6.17049680505852e-06,-6.971336080569084e-09
-0.003488855223785082,-7.843450623115868e-06,-1.0474822937612681e-08
-0.0037707938712263174,-9.658362896868718e-06,-1.4850276317608827e-08
-0.004048532204779226,-1.1613194415870103e-05,-2.016816564579353e-08
-0.0043217834034127885,-1.3705773317918107e-05,-2.6497907579240583e-08
-0.004590219438345567,-1.5933774028357696e-05,-3.3907794415809535e-08
-0.004853473206561158,-1.8294697189584376e-05,-4.2464912220295054e-08
-0.0051111409454839786,-2.078585072759566e-05,-5.223504919959006e-08
-0.005362784902995772,-2.3404332189715597e-05,-6.328259492891788e-08
-0.005607936251883583,-2.6147012478435435e-05,-7.567043109595564e-08
-0.005846098256628896,-2.9010521105563555e-05,-8.94598144919554e-08
-0.0060767497114511335,-3.1991233097583566e-05,-1.0471025304274218e-07
-0.006299348668487932,-3.5085257692568334e-05,-1.2147937574028015e-07
-0.006513336466752138,-3.828842897637835e-05,-1.3982279740751681e-07
-0.006718142057481947,-4.159629860743687e-05,-1.5979397930347063e-07
-0.006913186598490194,-4.500413077142991e-05,-1.8144408664818732e-07
-0.007097888261285831,-4.850689948637392e-05,-2.0482184421263827e-07
-0.007271667172812469,-5.209928834489849e-05,-2.299733911704564e-07
-0.007433950413741402,-5.577569274153696e-05,-2.5694213644206527e-07
-0.0075841770182309785,-5.9530224599530056e-05,-2.8576861577733204e-07
-0.007721802949826613,-6.335671959154445e-05,-3.1649035182510067e-07
-0.007846306046816296,-6.724874684070518e-05,-3.4914171843316307e-07
-0.007957190931364898,-7.119962108525048e-05,-3.83753810414652e-07
-0.008053993865530856,-7.520241728447442e-05,-4.2035432000708324e-07
-0.008136287520521762,-7.924998763098757e-05,-4.589674212359487e-07
-0.00820368560628042,-8.333498091268811e-05,-4.996136633718676e-07
-0.008255847291291427,-8.744986413708107e-05,-5.4230987463431e-07
-0.00829248133619382,-9.158694629395239e-05,-5.870690772420683e-07
-0.008313349873168407,-9.573840409629295e-05,-6.339004148396296e-07
-0.008318271778513823,-9.989630950921351e-05,-6.828090932410062e-07
-0.008307125597039909,-0.00010405265885310194,-7.33796335331585e-07
-0.008279851980412497,-0.00010819940324746504,-7.868593508567268e-07
-0.008236455602749862,-0.00011232848014325563,-8.419913217044069e-07
-0.00817700652352664,-0.00011643184567482475,-8.99181403158927e-07
-0.008101640983643106,-0.00012050150755161718,-9.584147414655374e-07
-0.008010561642362036,-0.00012452955820811847,-1.0196725079054713e-06
-0.007904037284506798,-0.00012850820793983568,-1.08293194944246e-06
-0.0077824020418441,-0.0001324298177714234,-1.1481664558702747e-06
-0.007646054175660069,-0.00013628693182579944,-1.2153456432695804e-06
-0.007495454461652397,-0.00014007230898512756,-1.2844354534723122e-06
-0.007331124209648477,-0.00014377895365295278,-1.3553982691318324e-06
-0.007153642942555975,-0.0001474001454410039,-1.4281930439053215e-06
-0.006963645751534818,-0.00015092946761452659,-1.5027754471692042e-06
-0.006761820338948129,-0.00015436083413714733,-1.5790980226071226e-06
-0.00654890375808908,-0.00015768851516140663,-1.657110359931761e-06
-0.006325678856691262,-0.00016090716081510172,-1.736759278925888e-06
-0.006092970427769205,-0.00016401182313621683,-1.8179890249137177e-06
-0.0058516410668097985,-0.00016699797600986158,-1.9007414747002372e-06
-0.005602586729648162,-0.00016986153295897607,-1.9849563519424468e-06
-0.005346731981895502,-0.000172598862636862,-2.0705714508414062e-06
-0.005085024932451758,-0.0001752068018654488,-2.157522866966984e-06
-0.004818431852212644,-0.0001776826660616149,-2.24574523394875e-06
-0.0045479314882526465,-0.00018002425689673122,-2.3351719646883367e-06
-0.0042745090854993855,-0.00018222986704016921,-2.425735495672562e-06
-0.003999150123014982,-0.0001842982818422978,-2.5173675328931787e-06
-0.0037228337683195873,-0.00018622877781513143,-2.609999297807536e-06
-0.0034465260561232576,-0.00018802111777124213,-2.7035617717041293e-06
-0.003171172809051957,-0.00018967554248753595,-2.797985936768824e-06
-0.0028976923363042374,-0.000191192758773875,-2.8932030120841765e-06
-0.0026269679642376923,-0.00019257392384901048,-2.9891446827398977e-06
-0.0023598404599741965,-0.00019382062595506346,-3.085743320190916e-06
-0.0020971004043125853,-0.00019493486117113515,-3.182932191972466e-06
-0.0018394805667148026,-0.000195919006413892,-3.2806456588687227e-06
-0.001587648343025746,-0.00019677578864132716,-3.3788193576325273e-06
-0.001342198330463302,-0.00019750825030969942,-3.477390367370284e-06
-0.0011036451218204865,-0.00019811971117277038,-3.5762973577409014e-06
-0.0008724163982490968,-0.00019861372655278779,-3.6754807171722908e-06
-0.0006488463954923454,-0.00019899404225122314,-3.7748826593732937e-06
-0.0004331698199740369,-0.00019926454630508973,-3.874447306512372e-06
-0.00022551629896719203,-0.00019942921783482504,-3.974120747547351e-06
-2.590546008231177e-05,-0.00019949207327458741,-4.073851070324704e-06
0.00016575725246158025,-0.0001994571103264926,-4.173588366224974e-06
0.0003496839078256304,-0.0001993282500364208,-4.273284706315702e-06
0.0005262064459075525,-0.0001991092774479875,-4.3728940881868045e-06
0.0006957779489087266,-0.00019880378134928345,-4.472372352886122e-06
0.0008589727222676966,-0.00019841509368148934,-4.5716770716438155e-06
0.0010164850865247914,-0.0001979462292292912,-4.670767402371511e-06
0.0011691267880830523,-0.00019739982626063924,-4.769603916243993e-06
0.0013178229507102971,-0.0001967780888259409,-4.868148395015638e-06
0.0014636065167776366,-0.00019608273145906892,-4.966363600086891e-06
0.0016076111672874715,-0.00019531492703805264,-5.064213014711171e-06
0.0017510627577902768,-0.0001944752585567832,-5.16166056110988e-06
0.0018952693554249393,-0.0001935636755284794,-5.258670294631196e-06
0.002041610003361272,-0.00019257945568878284,-5.355206077435511e-06
0.002191522370145254,-0.0001915211725954062,-5.451231234506559e-06
0.002346489462609187,-0.0001903866696372176,-5.546708195064715e-06
0.0025080255900419503,-0.00018917304087405482,-5.641598122692533e-06
0.0026776617636598498,-0.00018787661903562936,-5.735860537669955e-06
0.0028569307060562466,-0.00018649297091820035,-5.829452935158412e-06
0.003047351640555842,-0.00018501690033154733,-5.922330402970849e-06
0.0032504150342411308,-0.0001834424586628481,-6.014445242719448e-06
0.0034675674762458964,-0.00018176296303522635,-6.1057465981439665e-06
0.0037001968781482774,-0.0001799710219466278,-6.19618009438943e-06
0.003949618181519192,-0.00017805856818171094,-6.2856874919215145e-06
0.0042170597477382025,-0.0001760168986993966,-6.374206358641791e-06
0.004503650589451899,-0.00017383672111509905,-6.461669763595415e-06
0.004810408584695726,-0.00017150820632156214,-6.54800599545458e-06
0.005138229795893283,-0.00016902104672641489,-6.633138308716574e-06
0.005487878999117616,-0.00016636451952766216,-6.716984700280094e-06
0.005859981517352362,-0.00016352755439854466,-6.799457718761645e-06
0.006255016444735091,-0.0001604988049080228,-6.880464308588287e-06
0.006673311341358067,-0.0001572667229614995,-6.959905690555668e-06
0.007115038462680684,-0.00015381963551048983,-7.037677280173666e-06
0.007580212560772955,-0.0001501458227546264,-7.113668644739945e-06
0.00806869026078235,-0.00014623359704923759,-7.18776349969091e-06
0.008580170983262839,-0.00014207138173822628,-7.2598397443877764e-06
0.009114199355424082,-0.00013764778915355453,-7.329769537110722e-06
0.009670169031478559,-0.00013295169705682886,-7.397419408663318e-06
0.010247327823989264,-0.0001279723228429619,-7.462650413638266e-06
0.010844784032579028,-0.00012269929487881983,-7.525318318068711e-06
0.01146151384134923,-0.00011712272041033777,-7.5852738218910006e-06
0.012096369645537407,-0.00011123324953861611,-7.642362814378239e-06
0.012748089167799105,-0.00010502213483528199,-7.696426660471714e-06
0.013415305236729153,-9.848128623414993e-05,-7.747302515739071e-06
0.01409655611921773,-9.160332089516321e-05,-7.7948236675214e-06
0.014790296318730979,-8.438160778567603e-05,-7.83881989969161e-06
0.01549490777350163,-7.681030676261788e-05,-7.879117878328684e-06
0.0162087114119617,-6.888440196625205e-05,-7.915541555510901e-06
0.016929979038361055,-6.059972935367136e-05,-7.947912588340883e-06
0.01765694551162179,-5.1952998216175646e-05,-7.976050770233344e-06
0.01838782113563737,-4.294180655436086e-05,-7.999774471425978e-06
0.01912080411392621,-3.356465024196996e-05,-8.018901085625061e-06
0.019854092866737182,-2.3820925996804113e-05,-8.033247479684755e-06
0.020585897988112518,-1.3710928283091688e-05,-8.042630443254729e-06
0.021314453635263683,-3.2358403772476375e-06,-8.046867135419813e-06
0.022038028178329578,7.602280076150678e-06,-8.045775525495087e-06
0.022754933981286838,1.8800520616054783e-05,-8.039174825322036e-06
0.023463536231536984,3.0355138169260738e-05,-8.026885910625708e-06
0.024162260786241865,4.226158742370545e-05,-8.008731729227466e-06
0.024849601047975053,5.451455288225968e-05,-7.984537694150975e-06
0.025524123904289764,6.710798412032589e-05,-7.954132059900328e-06
0.026184474762648124,8.003513378706036e-05,-7.917346280423481e-06
0.026829381700976502,9.328859790296651e-05,-7.874015347500974e-06
0.027457658751038252,0.0001068603580159702,-7.823978108521241e-06
0.028068208333334732,0.00012074182478706345,-7.767077562820482e-06
0.028660022855227587,0.00013492388258420403,-7.703161135977664e-06
0.02923218547105439,0.0001493969346657745,-7.63208093166517e-06
0.02978387000030332,0.00016415094853361394,-7.553693960865323e-06
0.030314340013279536,0.00017917550103700966,-7.4678623484726676e-06
0.030822947110509893,0.00019445982281795701,-7.374453517508926e-06
0.03130912843162529,0.0002099928417034908,-7.273340351378564e-06
0.03177240343398076,0.0002257632246698923,-7.1644013347852185e-06
0.03221236998796535,0.00024175941802537883,-7.047520674111401e-06
0.03262869984554951,0.0002579696854837575,-6.922588398234117e-06
0.03302113354931064,0.00027438214383247256,-6.789500440905059e-06
0.0333894748626698,0.00029098479593546764,-6.648158705963074e-06
0.03373358481880741,0.00030776556085583697,-6.498471116765247e-06
0.03405337549862133,0.00032471230093519414,-6.3403516513174895e-06
0.03434880364695171,0.0003418128457215874,-6.173720364653294e-06
0.03461986421791543,0.0003590550126878042,-5.998503400050946e-06
0.03486658391076342,0.0003764266247199739,-5.814632990699002e-06
0.035089014730725815,0.0003939155243803462,-5.622047453423922e-06
0.03528722760081884,0.0004115095849632324,-5.420691176088028e-06
0.03546130606724556,0.0004291967183802485,-5.210514600252157e-06
0.035611340172324875,0.0004469648799401411,-4.99147420067206e-06
0.03573742059853251,0.0004648020701328554,-4.763532463153811e-06
0.035839633209042654,0.0004826963335847492,-4.5266578622244096e-06
0.035918054125820165,0.0005006357554184649,-4.280824839973606e-06
0.03597274549572215,0.0005186084553238505,-4.026013787288027e-06
0.036003752096336654,0.0005366025797218652,-3.762211028526598e-06
0.03601109892523943,0.0005546062924772592,-3.4894088104768173e-06
0.03599478989230509,0.0005726077646816454,-3.207605296187091e-06
0.03595480768484135,0.0005905951640759321,-2.9168045639976967e-06
0.035891114801728845,0.0006085566446975746,-2.61701661180432e-06
0.03580365567310834,0.000626480337316284,-2.3082573663008552e-06
0.03569235971696269,0.0006443543411638017,-1.990548696680834e-06
0.035557145142994656,0.0006621667173787911,-1.6639184320451856e-06
0.03539792329956228,0.0006799054844894303,-1.3284003815781303e-06
0.03521460336823508,0.0006975586161563796,-9.840343564166779e-07
0.03500709723860215,0.000715114041308089,-6.308661920505608e-07
0.034775324435417705,0.000732559646726594,-2.6894777004189006e-07
0.03451921700973957,0.0007498832820878832,1.0166296216172926e-07
0.034238724334117614,0.0007670727674238475,4.809019745396619e-07
0.03393381775687611,0.0007841159029465959,8.686991421322728e-07
0.033604495077891657,0.0008010004811552879,1.2649782381577436e-06
0.033250784812384464,0.0008177143011278569,1.6696569337285299e-06
0.03287275020975494,0.0008342451848833918,2.082646805231342e-06
0.0324704929916803,0.0008505809956837506,2.5038533503731276e-06
0.03204415676982983,0.0008667096581241281,2.933176013825097e-06
0.03159393010036493,0.0008826191798416768,3.3705082233165485e-06
0.03112004912983894,0.0008982976746492277,3.815737436939274e-06
0.030622799784644522,0.0009137333868778486,4.268745202321044e-06
0.03010251945654199,0.0009289147166881452,4.729407228212542e-06
0.029559598147817397,0.000943830246089235,5.197593468906887e-06
0.028994479065197337,0.0009584687653924887,5.673168221777318e-06
0.028407658683172608,0.0009728192998295812,6.155990238082835e-06
0.027799686320993736,0.0009868711360806227,6.645912847060386e-06
0.027171163287839955,0.0010006138484828311,7.142784093201249e-06
0.026522741651790034,0.0010140373247177386,7.646446886501392e-06
0.025855122686216744,0.0010271317908022402,8.156739165381387e-06
0.025169055044856635,0.0010398878352350085,8.6734940718907e-06
0.0244653327119138,0.001052296432174201,9.196540138743003e-06
0.023744792761451743,0.0010643489635425423,9.725701487672189e-06
0.02300831294183091,0.001076037239968363,1.0260798038549916e-05
0.02225680908486265,0.0010873535204750364,1.0801645728660765e-05
0.02149123233276119,0.0010982905308294425,1.1348056741486884e-05
0.02071256617898508,0.0011088414804573791,1.189983974430859e-05
0.019921823328451046,0.0011190000778342382,1.2456800133881495e-05
0.01912004239505424,0.0011287605442651145,1.3018740289406332e-05
0.018308284464917828,0.0011381176259801075,1.3585459831967638e-05
0.01748762955695065,0.0011470666044855746,1.4156755889584059e-05
0.01665917300297905,0.001155603305125557,1.4732423366986843e-05
0.015824021744954023,0.0011637241038125403,1.5312255219221365e-05
0.01498329051220649,0.0011714259318768303,1.5896042728143708e-05
0.014138097812526876,0.0011787062789580137,1.6483575780852417e-05
0.013289561660172646,0.0011855631938261885,1.707464314904847e-05
0.012438794973166897,0.0011919952829845233,1.766903276825115e-05
0.01158690059389798,0.0011980017068762895,1.826653201571635e-05
0.010734965915712207,0.001203582173503692,1.8866927985811345e-05
0.009884057132977402,0.0012087369292658643,1.9470007761503735e-05
0.009035213171255819,0.0012134667468419226,2.007555868053068e-05
0.008189439392485334,0.001217772909982858,2.0683368594736877e-05
0.007347701201982617,0.001221657195131475,2.129322612101546e-05
0.006510917705855874,0.0012251218498584345,2.1904920882262937e-05
0.005679955579294713,0.0012281695681797221,2.2518243736772475e-05
0.0048556233106825724,0.0012308034629022165,2.3132986994542958e-05
0.004038665984281949,0.0012330270352259576,2.3748944619075e-05
0.0032297607524210286,0.0012348441419101333,2.4365912413359023e-05
0.0024295131251907878,0.0012362589603795362,2.498368818893144e-05
0.0016384541740589714,0.0012372759522043485,2.5602071917077413e-05
0.0008570387096135813,0.0012378998254252665,2.6220865861484816e-05
8.564445860035461e-05,0.00123813549621732,2.6839874691895464e-05
-0.0006754277607198955,0.0012379880503917901,2.745890557854774e-05
-0.0014259528800205535,0.001237462705231605,2.807776826745359e-05
-0.002165779462966131,0.0012365647721458584,2.8696275136797955e-05
-0.002894826660899563,0.001235299620614892,2.9314241234988143e-05
-0.0036130802840063426,0.0012336726438786656,2.993148430111153e-05
-0.004320588037252036,0.001231689226798351,3.054782476878078e-05
-0.005017453981962646,0.0012293547162935473,3.116308575455376e-05
-0.005703832303600596,0.0012266743947221565,3.1777093032307685e-05
-0.0063799204874404325,0.0012236534565243963,3.2389674995119326e-05
-0.007045952014018411,0.0012202969883990315,3.300066260635018e-05
-0.007702188683709068,0.0012166099532245997,3.360988934175609e-05
-0.008348912678744264,0.0012125971778839863,3.421719112453324e-05
-0.00898641848641167,0.0012082633450926973,3.482240625527741e-05
-0.009615004837249395,0.001203612989261782,3.542537533886603e-05
-0.010234966842217192,0.0011986504963419154,3.602594121026696e-05
-0.010846588531947195,0.0011933801074983743,3.662394886122703e-05
-0.011450136005579563,0.0011878059263639926,3.721924536969262e-05
-0.012045851383676557,0.0011819319295166785,3.781167983366279e-05
-0.012633947724463223,0.0011757619797396436,3.8401103310976866e-05
-0.01321460500674862,0.0011692998415568407,3.898736876630099e-05
-0.013787967218864994,0.0011625491985004371,3.957033102631531e-05
-0.014354140537152163,0.001155513671561433,4.014984674383078e-05
-0.014913192538504481,0.0011481968382925187,4.072577437129427e-05
-0.01546515236818723,0.0011406022520658457,4.129797414388386e-05
-0.01601001177037999,0.001132733461031204,4.1866308072158125e-05
-0.01654772688157623,0.001124594026368215,4.243063994400798e-05
-0.017078220686349253,0.0011161875394762335,4.299083533546909e-05
-0.017601386039367933,0.001107517637794804,4.354676162978685e-05
-0.018117089160596688,0.0010985880189948128,4.409828804398426e-05
-0.018625173507360763,0.0010894024533278236,4.4645285662064916e-05
-0.019125463920269273,0.001079964793970916,4.51876274738896e-05
-0.019617770939129343,0.0010702789852560664,4.572518841869634e-05
-0.020101895196120108,0.0010603490687222542,4.6257845432190924e-05
-0.02057763180991859,0.0010501791869707445,4.6785477496114175e-05
-0.021044774711773583,0.0010397735853403215,4.730796568919194e-05
-0.021503120827089127,0.0010291366114556057,4.782519323839092e-05
-0.021952474025392826,0.0010182727127424852,4.833704556944045e-05
-0.022392648754131727,0.001007186432047604,4.884341035563797e-05
-0.02282347329329447,0.0009958824015357476,4.934417756403381e-05
-0.023244792599373666,0.0009843653350625806,4.983923949818339e-05
-0.023656470732926628,0.0009726400192295056,5.0328490836756415e-05
-0.024058392874512505,0.0009607113033276458,5.08118286673957e-05
-0.024450466932488993,0.0009485840883758954,5.128915251532159e-05
-0.024832624743733683,0.0009362633154568397,5.1760364366279776e-05
-0.025204822872762676,0.0009237539535527156,5.2225368683532165e-05
-0.025567043025359025,0.0009110609870781851,5.268407241868989e-05
-0.0259192921039679,0.0008981894032958534,5.31363850162834e-05
-0.02626160193920679,0.0008851441797850597,5.358221841205363e-05
-0.02659402873731017,0.0008719302721159304,5.402148702502888e-05
-0.026916652293029728,0.0008585526018583454,5.445410774352245e-05
-0.027229575030778864,0.0008450160450273932,5.4879999905243884e-05
-0.02753292094307487,0.0008313254210339298,5.529908527175922e-05
-0.027826834484169418,0.0008174854821771187,5.571128799756198e-05
-0.028111479450543667,0.0008035009036934405,5.611653459402962e-05
-0.02838703785329137,0.0007893762743674817,5.651475388854485e-05
-0.028653708769635293,0.00077511608771175,5.6905876979064656e-05
-0.02891170714971767,0.0007607247337319118,5.728983718442557e-05
-0.02916126254748557,0.0007462064913076109,5.766656999068545e-05
-0.029402617743533477,0.0007315655212348562,5.8036012993821064e-05
-0.029636027235736672,0.0007168058599900386,5.839810583912729e-05
-0.029861755589870448,0.0007019314142836368,5.875279015769571e-05
-0.03008007566243632,0.0006869459564705602,5.9100009500384264e-05
-0.030291266719616333,0.000671853120875047,5.9439709269720665e-05
-0.030495612469838437,0.0006566564010776833,5.9771836650208844e-05
-0.03069339900933028,0.000641359148207891,6.009634053753024e-05
-0.03088491266696024,0.0006259645702888185,6.041317146715441e-05
-0.03107043773439503,0.0006104757326884796,6.0722281542898735e-05
-0.03125025407598129,0.0005948955597358856,6.102362436600483e-05
-0.031424634625197484,0.0005792268375605909,6.131715496532895e-05
-0.031593842789594026,0.0005634722182068931,6.160282972927082e-05
-0.031758129799798085,0.0005476342250595451,6.188060634008743e-05
-0.03191773204656294,0.0005317152595979548,6.21504437112518e-05
