acceleration,velocity,displacement
-0.0017194953228710482,0.0,0.0
-0.002023108629438493,-9.356509880773853e-07,-2.3391274701934634e-10
-0.00232329837680445,-2.0222527396381215e-06,-9.73388678948223e-10
-0.002620051379668926,-3.2580901787564656e-06,-2.29347440854687e-09
-0.002913307601530636,-4.641429924056356e-06,-4.268354434250075e-09
-0.0032029600611789837,-6.1704968397337615e-06,-6.971336125197605e-09
-0.003488855236246784,-7.843450664090204e-06,-1.0474823001153597e-08
-0.003770793883493923,-9.65836294402538e-06,-1.4850276403182494e-08
-0.00404853221692646,-1.1613194469130476e-05,-2.016816575647146e-08
-0.0043217834155150885,-1.3705773377240864e-05,-2.6497907718064297e-08
-0.004590219450473225,-1.5933774093737943e-05,-3.3907794585809e-08
-0.004853473218779319,-1.829469726105108e-05,-4.246491242450626e-08
-0.005111140957847496,-2.0785850805207785e-05,-5.2235049441070977e-08
-0.005362784915547489,-2.340433227355653e-05,-6.328259521076206e-08
-0.00560793626464748,-2.6147012568605274e-05,-7.56704314213025e-08
-0.005846098269622086,-2.9010521202172667e-05,-8.945981486399699e-08
-0.006076749724682155,-3.199123320074873e-05,-1.0471025346472733e-07
-0.006299348681958459,-3.508525780240888e-05,-1.2147937621551675e-07
-0.006513336480453551,-3.8288429093011885e-05,-1.3982279793937195e-07
-0.006718142071391906,-4.1596298730973246e-05,-1.5979397989536823e-07
-0.00691318661257435,-4.500413090196481e-05,-1.8144408730360275e-07
-0.007097888275499541,-4.8506899623983286e-05,-2.0482184493508977e-07
-0.007271667187105942,-5.209928848963466e-05,-2.2997339196349427e-07
-0.007433950428071706,-5.577569289342907e-05,-2.569421373092602e-07
-0.007584177032556891,-5.953022475858622e-05,-2.85768616722264e-07
-0.0077218029641069105,-6.335671975775217e-05,-3.164903528513486e-07
-0.007846306061009754,-6.724874701403134e-05,-3.491417195442945e-07
-0.007957190945433715,-7.119962126564221e-05,-3.8375381161421285e-07
-0.008053993879432089,-7.520241747185867e-05,-4.203543212985881e-07
-0.00813628753419874,-7.924998782526637e-05,-4.5896742262286934e-07
-0.008203685619674756,-8.333498111373474e-05,-4.996136648576197e-07
-0.008255847304341306,-8.744986434473876e-05,-5.423098762222381e-07
-0.00829248134882542,-9.158694650803044e-05,-5.870690789354304e-07
-0.008313349885309617,-9.57384043165642e-05,-6.339004166415791e-07
-0.008318271790099389,-9.989630973541644e-05,-6.828090951545742e-07
-0.008307125608006298,-0.00010405265908494286,-7.337963373596641e-07
-0.008279851990701316,-0.00010819940348461976,-7.868593530020548e-07
-0.008236455612307866,-0.00011232848038537206,-8.419913239695527e-07
-0.008177006532304009,-0.00011643184592152503,-8.99181405546277e-07
-0.008101640991591743,-0.00012050150780249897,-9.58414743977283e-07
-0.00801056164943727,-0.00012452955846275622,-1.0196725105435967e-06
-0.007904037290660531,-0.00012850820819778068,-1.0829319522087308e-06
-0.007782402047026522,-0.00013242981803220246,-1.1481664587662266e-06
-0.007646054179829945,-0.00013628693208891658,-1.2153456462965064e-06
-0.0074954544647805,-0.0001400723092500692,-1.2844354566312528e-06
-0.007331124211721018,-0.00014377895391919456,-1.3553982724235688e-06
-0.007153642943576317,-0.0001474001457080189,-1.428193047330372e-06
-0.006963645751521765,-0.00015092946788179343,-1.5027754507278253e-06
-0.00676182033793249,-0.000154360834404157,-1.579098026299313e-06
-0.006548903756115392,-0.00015768851542766896,-1.6571103637572695e-06
-0.006325678853817782,-0.00016090716108015224,-1.7367592828842248e-06
-0.006092970424064487,-0.0001640118233996228,-1.8179890290041686e-06
-0.005851641062347545,-0.0001669979762712258,-1.9007414789218808e-06
-0.00560258672450551,-0.00016986153321793906,-1.984956356294172e-06
-0.005346731976153023,-0.0001725988628931037,-2.0705714553219327e-06
-0.005085024926186599,-0.0001752068021186886,-2.1575228715748806e-06
-0.004818431845491667,-0.00017768266631160815,-2.245745238682455e-06
-0.004547931481134141,-0.00018002425714326462,-2.335171969546173e-06
-0.004274509078033073,-0.0001822298672830564,-2.4257355006527536e-06
-0.003999150115245443,-0.00018429828208137606,-2.5173675379938616e-06
-0.0037228337602914084,-0.00018622877805026027,-2.6099993030267706e-06
-0.0034465260478775987,-0.00018802111800230253,-2.7035617770399113e-06
-0.003171172800628268,-0.000189675542714429,-2.797985942219094e-06
-0.0028976923277385437,-0.0001911927589965207,-2.8932030176468316e-06
-0.0026269679555660235,-0.00019257392406734687,-2.9891446884127983e-06
-0.002359840451229155,-0.00019382062616904566,-3.0857433259718965e-06
-0.0020971003955182043,-0.0001949348613807325,-3.182932197859341e-06
-0.0018394805578882574,-0.0001959190066190841,-3.280645664859295e-06
-0.001587648334177356,-0.0001967757888421005,-3.378819363724591e-06
-0.0013421983215982445,-0.0001975082505060444,-3.4773903735616274e-06
-0.001103645112937081,-0.00019811971136467823,-3.576297364029308e-06
-0.0008724163893353748,-0.00019861372674024634,-3.675480723555539e-06
-0.0006488463865260502,-0.0001989940424342117,-3.7748826658491537e-06
-0.00043316981092262274,-0.00019926454648357386,-3.8744473130786e-06
-0.00022551628978610864,-0.00019942921800875104,-3.974120754201681e-06
-2.5905450713288916e-05,-0.0001994920734438759,-4.073851077064838e-06
0.00016575726208881847,-0.000199457110491032,-4.173588373048565e-06
0.00034968391778822107,-0.00019932825019606276,-4.273284713220339e-06
0.0005262064562826343,-0.00019910927760254506,-4.3728940951699906e-06
0.0006957779597682955,-0.00019880378149853234,-4.47237235994526e-06
0.0008589727336768911,-0.00019841509382517104,-4.571677078776186e-06
0.001016485098547039,-0.00019794622936711507,-4.670767409574258e-06
0.0011691268007766392,-0.00019739982639228415,-4.7696039235141075e-06
0.0013178229641317989,-0.00019677808895105704,-4.868148402349942e-06
0.0014636065309750594,-0.00019608273157728032,-4.966363607482026e-06
0.0016076111822951069,-0.00019531492714896278,-5.064213022163587e-06
0.001751062773632132,-0.00019447525865998096,-5.161660568615823e-06
0.0018952693721215983,-0.00019356367562354252,-5.258670302186704e-06
0.0020416100209333255,-0.00019257945577527878,-5.35520608503641e-06
0.0021915223886201612,-0.00019152117267289042,-5.451231242148452e-06
0.002346489482022988,-0.00019038666970522963,-5.546708202742982e-06
0.0025080256104392687,-0.00018917304093211406,-5.641598130402318e-06
0.002677661785092177,-0.0001878766190832312,-5.735860545406154e-06
0.0028569307285767967,-0.00018649297095481396,-5.829452942915665e-06
0.0030473516642178363,-0.0001850169003566153,-5.922330410743522e-06
0.0032504150590926535,-0.0001834424586757877,-6.014445250501623e-06
0.0034675675023281786,-0.00018176296303543249,-6.105746605929428e-06
0.0037001969054956973,-0.0001799710219334765,-6.1961801021716556e-06
0.003949618210154129,-0.00017805856815456404,-6.285687499693666e-06
0.004217059777677897,-0.00017601689865760604,-6.374206366396708e-06
0.004503650620708453,-0.00017383672105800946,-6.461669771325612e-06
0.004810408617272672,-0.00017150820624851418,-6.548006003152243e-06
0.005138229829780434,-0.0001690210466367509,-6.633138316373559e-06
0.005487879034289357,-0.00016636451942073346,-6.71698470788793e-06
0.005859981553767646,-0.00016352755427371922,-6.799457726311543e-06
0.006255016482340868,-0.00016049880476469208,-6.880464316071146e-06
0.006673311380089282,-0.00015726672279908454,-6.95990569796209e-06
0.007115038502463709,-0.0001538196353284463,-7.037677287493973e-06
0.007580212601520442,-0.00015014582255245025,-7.113668651964197e-06
0.00806869030238294,-0.0001462335968264744,-7.187763506808928e-06
0.00858017102559145,-0.0001420713814944808,-7.259839751389167e-06
0.009114199398348772,-0.00013764778888849575,-7.329769543984911e-06
0.00967016907486052,-0.00013295169677019343,-7.397419415399583e-06
0.01024732786769312,-0.000127972322534555,-7.4626504202257706e-06
0.010844784076469388,-0.0001226992945485144,-7.525318324496538e-06
0.011461513885297567,-0.00011712272005807265,-7.5852738281481846e-06
0.012096369689420332,-0.00011123324916439318,-7.642362820453801e-06
0.012748089211491506,-0.00010502213443916522,-7.696426666354691e-06
0.013415305280107625,-9.848128581626544e-05,-7.747302521418549e-06
0.014096556162158864,-9.160332045569881e-05,-7.79482367298654e-06
0.014790296361106207,-8.438160732488254e-05,-7.838819904931685e-06
0.015494907815175525,-7.68103062808121e-05,-7.879117883333109e-06
0.01620871145279882,-6.888440146381851e-05,-7.915541560269267e-06
0.01692997907823281,-6.059972883106061e-05,-7.947912592842986e-06
0.017656945550406443,-5.1952997673900796e-05,-7.976050774469227e-06
0.01838782117321832,-4.29418059929946e-05,-7.99977447538595e-06
0.019120804150188558,-3.356464966214288e-05,-8.018901089299734e-06
0.019854092901569455,-2.3820925399203378e-05,-8.03324748306507e-06
0.020585898021406663,-1.3710927668459347e-05,-8.042630446331986e-06
0.0213144536669185,-3.2358397463780558e-06,-8.046867138185694e-06
0.022038028208245568,7.602280722412961e-06,-8.045775527941685e-06
0.022754934009371355,1.8800521276817192e-05,-8.039174827441878e-06
0.02346353625770424,3.0355138843586093e-05,-8.026885912411776e-06
0.024162260810406053,4.226158811061367e-05,-8.008731730673226e-06
0.024849601070041794,5.451455358072563e-05,-7.98453769525039e-06
0.025524123924154377,6.710798482927467e-05,-7.954132060647891e-06
0.026184474780207637,8.003513450536517e-05,-7.917346280814231e-06
0.02682938171613651,9.32885986294512e-05,-7.874015347530527e-06
0.02745765876371978,0.00010686035874941528,-7.82397810818581e-06
0.02806820834347938,0.00012074182552621507,-7.767077562116903e-06
0.02866002286279582,0.00013492388332778387,-7.703161134903403e-06
0.029232185476020384,0.0001493969354124879,-7.632080930218335e-06
0.029783870002660105,0.00016415094928215804,-7.553693959044673e-06
0.030314340013032154,0.00017917550178608112,-7.467862346277614e-06
0.030822947107675386,0.000194459823566258,-7.374453514939529e-06
0.03130912842623613,0.00020999284244973589,-7.2733403484355305e-06
0.03177240342607971,0.00022576322541281485,-7.164401331469893e-06
0.03221236997760546,0.00024175941876373614,-7.047520670425755e-06
0.03262869983278896,0.00025796968621633477,-6.922588394180737e-06
0.03302113353421278,0.0002743821445580852,-6.789500436487132e-06
0.03338947484530138,0.00029098479665296375,-6.6481587011843704e-06
0.03373358479923863,0.00030776556156409876,-6.498471111630105e-06
0.03405337547692411,0.0003247123016331394,-6.3403516458307955e-06
0.03434880362319623,0.0003418128464081695,-6.1737203588204685e-06
0.03461986419217189,0.0003590550133620115,-5.9985033938779236e-06
0.034866583883112305,0.0003764266253808326,-5.8146329841922125e-06
0.03508901470126133,0.000393915525026926,-5.622047446590273e-06
0.035287227569645474,0.0004115095855946527,-5.420691168934878e-06
0.0354613060344781,0.0004291967189956836,-5.210514592787293e-06
0.03561134013808667,0.0004469648805388248,-4.991474192903666e-06
0.035737420562955514,0.00046480207071408536,-4.7635324550904384e-06
0.03583963317226223,0.0004826963341478898,-4.526657853874945e-06
0.035918054087971676,0.0005006357559629483,-4.280824831347236e-06
0.035972745456940965,0.0005186084558491765,-4.026013778394205e-06
0.03600375205675814,0.0005366025802276013,-3.7622110193750103e-06
0.036011098884998954,0.0005546062929630406,-3.48940880107735e-06
0.035994789851534585,0.000572607765147174,-3.2076052865497963e-06
0.035954807643676194,0.0005905951645209767,-2.916804554132759e-06
0.035891114760299256,0.0006085566451219705,-2.617016601722022e-06
0.035803655631551405,0.0006264803377199332,-2.3082573560115462e-06
0.035692359675418915,0.0006443543415466758,-1.990548686194894e-06
0.035557145101607984,0.0006621667177409325,-1.6639184213729917e-06
0.03539792325847323,0.0006799054848309528,-1.3284003707300204e-06
0.035214603327582424,0.0006975586164774668,-9.840343454029154e-07
0.0350070971985127,0.0007151140416089905,-6.30866180881301e-07
0.034775324396004524,0.0007325596470076198,-2.6894775872714846e-07
0.034519216971102,0.0007498832823493965,1.0166297361210562e-07
0.03423872429633958,0.0007670727676662569,4.80901986116019e-07
0.033933817720026085,0.0007841159031703483,8.686991538251702e-07
0.03360449504202612,0.0008010004813608614,1.2649782499579726e-06
0.033250784777549586,0.0008177143013157553,1.6696569456271267e-06
0.032872750175991776,0.0008342451850541407,2.0826468172196006e-06
0.03247049295902815,0.0008505809958378956,2.5038533624426097e-06
0.032044156738319465,0.0008667096582622325,2.933176025967642e-06
0.031593930070016804,0.0008826191799643165,3.370508235524279e-06
0.031120049100664935,0.000898297674756987,3.815737449204605e-06
0.030622799756649673,0.0009137333869713157,4.268745214636681e-06
0.03010251942973475,0.0009289147167679118,4.729407240571488e-06
0.02955959812220966,0.000943830246155898,5.19759348130244e-06
0.02899447904080614,0.0009584687654466519,5.673168234203078e-06
0.02840765866002014,0.0009728192998718584,6.155990250532706e-06
0.027799686299102185,0.000986871136111639,6.64591285952858e-06
0.027171163267234944,0.0010006138485032232,7.142784105682296e-06
0.02652274163250576,0.0010140373247281584,7.64644689899014e-06
0.025855122668289127,0.0010271317908033572,8.15673917787302e-06
0.025169055028319884,0.0010398878352275095,8.673494084380737e-06
0.024465332696808992,0.0010522964321587917,9.196540151227313e-06
0.02374479274781823,0.0010643489635199484,9.725701500146997e-06
0.02300831292971149,0.0010760372399393307,1.0260798051011817e-05
0.02225680907430356,0.0010873535204403346,1.0801645741106734e-05
0.021491232323808656,0.0010982905307898626,1.1348056753914282e-05
0.020712566171669906,0.0011088414804137322,1.189983975671518e-05
0.0199218233227869,0.0011190000777873464,1.245680014626545e-05
0.019120042391039347,0.001128760544215803,1.3018740301766237e-05
0.018308284462529842,0.0011381176259291953,1.3585459844302486e-05
0.017487629556146654,0.0011470666044338645,1.415675590189325e-05
0.01665917300369726,0.0011556033050738254,1.4732423379270172e-05
0.01582402174711037,0.0011637241037615272,1.531225523147901e-05
0.014983290515699762,0.0011714259318272298,1.5896042740376198e-05
0.014138097817247286,0.0011787062789104666,1.6483575793060622e-05
0.013289561666005274,0.0011855631937812798,1.707464316123356e-05
0.01243879497999854,0.0011919952829427807,1.7669032780414576e-05
0.01158690060161887,0.001198001706838185,1.8266532027859818e-05
0.010734965924216012,0.0012035821734696437,1.8866927997936774e-05
0.009884057142171518,0.0012087369292362407,1.9470007773613243e-05
0.009035213181057935,0.001213466746817048,2.0075558692626566e-05
0.008189439402820005,0.0012177729099630175,2.068336860682158e-05
0.007347701212777832,0.0012216571951169169,2.1293226133091565e-05
0.006510917717044771,0.0012251218498493725,2.1904920894333136e-05
0.0056799555908104375,0.0012281695681763364,2.2518243748839564e-05
0.004855623322459985,0.001230803462904654,2.3132987006609813e-05
0.004038665996259346,0.001233027035234334,2.374894463114456e-05
0.003229760764545286,0.0012348441419245352,2.4365912425434278e-05
0.0024295131374173578,0.0012362589604000258,2.498368820101542e-05
0.00163845418634674,0.001237275952230967,2.560207192917317e-05
0.0008570387219282966,0.0012378998254580357,2.622086587359542e-05
8.564447090948146e-05,0.001238135496256245,2.683987470402399e-05
-0.0006754277484403155,0.0012379880504368623,2.7458905590697266e-05
-0.0014259528677876177,0.0012374627052828054,2.8077768279627182e-05
-0.002165779450788361,0.0012365647722031613,2.8696275148998672e-05
-0.0028948266487854794,0.001235299620678268,2.931424124721903e-05
-0.0036130802719678964,0.0012336726439480796,2.9931484313375617e-05
-0.004320588025301178,0.0012316892268737624,3.0547824781081076e-05
-0.005017453970109613,0.0012293547163749097,3.116308576689324e-05
-0.0057038322918539115,0.0012266743948094187,3.177709304468932e-05
-0.006379920475801759,0.0012236534566175048,3.238967500754605e-05
-0.007045952002485983,0.0012202969884979329,3.300066261882491e-05
-0.007702188672284551,0.0012166099533292402,3.36098893542817e-05
-0.00834891266742761,0.0012125971779943122,3.421719113711259e-05
-0.008986418475206264,0.0012082633452086538,3.4822406267913326e-05
-0.009615004826162052,0.0012036129893833118,3.5425375351561316e-05
-0.010234966831256444,0.0011986504964689572,3.602594122302438e-05
-0.010846588521114715,0.0011933801076308645,3.662394887404934e-05
-0.011450135994878739,0.001187805926501866,3.721924538258252e-05
-0.012045851373110782,0.0011819319296598686,3.7811679846622955e-05
-0.012633947714029028,0.0011757619798880836,3.8401103324009945e-05
-0.01321460499643739,0.0011692998417104671,3.898736877940958e-05
-0.013787967208669835,0.0011625491986591904,3.9570331039502e-05
-0.014354140527066179,0.0011555136717252563,4.014984675709811e-05
-0.014913192528524206,0.0011481968384613587,4.072577438464477e-05
-0.015465152358310912,0.0011406022522396498,4.129797415732002e-05
-0.01601001176060245,0.0011327334612099215,4.186630808568241e-05
-0.016547726871892286,0.001124594026551798,4.2430639957622836e-05
-0.017078220676762297,0.0011161875396646342,4.299083534917694e-05
-0.017601386029895083,0.0011075176379879699,4.3546761643590095e-05
-0.01811708915127049,0.0010985880191926784,4.4098288057885254e-05
-0.018625173498224047,0.0010894024535303048,4.4645285676066e-05
-0.019125463911366603,0.0010799647941779071,4.518762748799305e-05
-0.01961777093050869,0.0010702789854674384,4.5725188432904385e-05
-0.020101895187832883,0.001060349068937853,4.6257845446505706e-05
-0.02057763180202135,0.0010501791871903893,4.6785477510537764e-05
-0.02104477470431602,0.001039773585563805,4.7307965703726315e-05
-0.021503120820112357,0.001029136611682698,4.782519325303794e-05
-0.021952474018932817,0.0010182727129729365,4.833704558420185e-05
-0.022392648748219307,0.0010071864322811486,4.884341037051537e-05
-0.0228234732879536,0.0009958824017721054,4.934417757902868e-05
-0.02324479259461973,0.000984365335301462,4.983923951329707e-05
-0.023656470728757865,0.0009726400194706176,5.0328490851990086e-05
-0.024058392870920292,0.000960711303570698,5.0811828682750416e-05
-0.02445046692946299,0.0009485840886206022,5.1289152530798244e-05
-0.024832624741266983,0.0009362633157029198,5.176036438187913e-05
-0.025204822870851795,0.00092375395379989,5.222536869925483e-05
-0.02556704302399877,0.0009110609873261774,5.268407243453635e-05
-0.02591929210315479,0.0008981894035443891,5.313638503225399e-05
-0.026261601938947637,0.0008851441800338635,5.358221842814856e-05
-0.02659402873761864,0.000871930272364722,5.40214870412482e-05
-0.02691665229392121,0.000858552602106837,5.445410775986609e-05
-0.0272295750322636,0.0008450160452752908,5.487999992171162e-05
-0.027532920945163103,0.0008313254212809341,5.5299085288350676e-05
-0.027826834486871385,0.0008174854824229255,5.571128801427664e-05
-0.028111479453873045,0.0008035009039377394,5.611653461086681e-05
-0.028387037857261835,0.0007893762746099557,5.6514753905503734e-05
-0.028653708774258803,0.0007751160879520756,5.690587699614424e-05
-0.02891170715501305,0.0007607247339697576,5.7289837201624703e-05
-0.0291612625534665,0.0007462064915426378,5.76665700080028e-05
-0.029402617750201622,0.0007315655214667207,5.803601301125514e-05
-0.02963602724307656,0.0007168058602184011,5.839810585667642e-05
-0.029861755597847744,0.00070193141450817,5.875279017535806e-05
-0.030080075670999535,0.0006869459566909582,5.910000951815784e-05
-0.03029126672870026,0.0006718531210910333,5.943970928760334e-05
-0.030495612479369293,0.0006566564012890159,5.9771836668198354e-05
-0.030693399019227432,0.0006413591484143667,6.0096340555624196e-05
-0.030884912677136184,0.0006259645704902758,6.041317148535036e-05
-0.031070437744762272,0.0006104757328848012,6.072228156119413e-05
-0.03125025408645062,0.000594895559926998,6.102362438439708e-05
-0.03142463463567112,0.0005792268377464675,6.131715498381545e-05
-0.031593842799967325,0.0005634722183875579,6.160282974784896e-05
-0.031758129809964696,0.0005476342252350749,6.188060635875461e-05
-0.03191773205640964,0.0005317152597684813,6.21504437300055e-05
