frame_number,force
0,650.180494509527
1,650.1603683059881
2,650.1404690465515
3,650.1207976052568
4,650.1013579618599
5,650.0821572080315
6,650.0632055206063
7,650.044516107207
8,650.0261051281481
9,650.0079915964909
10,649.9901972569153
11,649.9727464442905
12,649.9556659236093
13,649.9389847129955
14,649.9227338905082
15,649.9069463842176
16,649.8916567443017
17,649.8769008959091
18,649.8627158720838
19,649.8491395270423
20,649.8362102316192
21,649.8239665546078
22,649.812446935177
23,649.8016893515403
24,649.7917309895271
25,649.782607912736
26,649.7743547347122
27,649.7670042935259
28,649.7605873298729
29,649.7551321709258
30,649.7506644234421
31,649.7472066807812
32,649.7447782488917
33,649.7433948957786
34,649.743068627939
35,649.7438074965085
36,649.7456154356246
37,649.7484921354447
38,649.7524329518005
39,649.7574288534273
40,649.7634664062576
41,649.7705277928313
42,649.7785908639087
43,649.7876292191715
44,649.7976123142877
45,649.8085055921814
46,649.8202706368937
47,649.8328653489053
48,649.8462441411564
49,649.8603581551662
50,649.8751554967893
51,649.8905814913722
52,649.9065789583764
53,649.923088505841
54,649.9400488452936
55,649.9573971276029
56,649.9750692996984
57,649.9930004814768
58,650.0111253620992
59,650.0293786152058
60,650.0476953328221
61,650.0660114775335
62,650.0842643517632
63,650.1023930817702
64,650.1203391127887
65,650.1380467112596
66,650.1554634704222
67,650.1725408157679
68,650.1892345063355
69,650.2055051269076
70,650.221318565675
71,650.2366464721092
72,650.2514666900786
73,650.2657636611443
74,650.279528792453
75,650.2927607829121
76,650.3054659005246
77,650.3176582031305
78,650.3293596946728
79,650.3406004094891
80,650.3514184176762
81,650.3618597450051
82,650.371978201282
83,650.3818351119786
84,650.3914989497467
85,650.4010448650947
86,650.410554118684
87,650.4201134208953
88,650.4298141870353
89,650.439751718625
90,650.4500243226123
91,650.4607323809519
92,650.4719773827511
93,650.4838609305625
94,650.4964837320863
95,650.5099445888015
96,650.5243393935647
97,650.5397601495592
98,650.5562940228642
99,650.5740224402501
100,650.5930202427655
101,650.6133549044634
102,650.6350858243691
103,650.6582636986748
104,650.6829299793758
105,650.7091164251127
106,650.7368447494953
107,650.7661263711543
108,650.796962267988
109,650.829342935828
110,650.8632484495813
111,650.898648623069
112,650.9355032622725
113,650.973762505486
114,651.0133672428387
115,651.054249606663
116,651.0963335234586
117,651.1395353182013
118,651.1837643625512
119,651.2289237597734
120,651.2749110605441
121,651.3216190052675
122,651.3689362900731
123,651.416748354701
124,651.4649381898249
125,651.5133871583917
126,651.5619758212267
127,651.6105847535226
128,651.6590953374597
129,651.7073905171959
130,651.7553555048275
131,651.802878428756
132,651.8498509189914
133,651.8961686272772
134,651.9417316828702
135,651.9864450862681
136,652.0302190429707
137,652.0729692386155
138,652.1146170566293
139,652.1550897396344
140,652.1943204953865
141,652.2322485471616
142,652.2688191283326
143,652.3039834217581
144,652.3376984457267
145,652.3699268888236
146,652.4006368963879
147,652.4298018116758
148,652.4573998754744
149,652.4834138886271
150,652.5078308428198
151,652.5306415260899
152,652.5518401103736
153,652.5714237283323
154,652.5893920454797
155,652.6057468316815
156,652.62049153431
157,652.6336308547773
158,652.6451703312731
159,652.6551159326077
160,652.6634736700266
161,652.6702492353087
162,652.6754476744981
163,652.6790731072439
164,652.6811285018049
165,652.6816155152438
166,652.6805344067419
167,652.6778840286594
168,652.6736618950865
169,652.6678643223569
170,652.6604866316637
171,652.6515234012154
172,652.6409687543885
173,652.6288166709256
174,652.6150613100805
175,652.5996973372336
176,652.5827202481208
177,652.5641266867013
178,652.5439147536849
179,652.522084303227
180,652.4986372255704
181,652.4735777134505
182,652.446912509889
183,652.4186511347503
184,652.3888060872215
185,652.357393021206
186,652.3244308904602
187,652.2899420603258
188,652.25395238364
189,652.2164912401064
190,652.1775915404918
191,652.1372896985857
192,652.0956255745351
193,652.0526423932407
194,652.0083866413695
195,651.9629079463822
196,651.9162589406486
197,651.868495112919
198,651.8196746482
199,651.7698582560096
200,651.7191089865546
201,651.6674920345706
202,651.6150745311895
203,651.561925325022
204,651.5081147543385
205,651.4537144124438
206,651.3987969077197
207,651.3434356181706
208,651.2877044380185
209,651.231677511956
210,651.1754289519602
211,651.1190325321844
212,651.0625613588793
213,651.0060875141947
214,650.9496816750236
215,650.8934127106384
216,650.8373472654142
217,650.7815493350442
218,650.7260798460962
219,650.6709962495478
220,650.616352139235
221,650.5621969060023
222,650.5085754375588
223,650.4555278725255
224,650.4030894150662
225,650.351290214092
226,650.3001553087078
227,650.2497046398369
228,650.1999531270201
229,650.1509108088118
230,650.1025830445835
231,650.0549707749628
232,650.0080708376382
233,649.9618763344951
234,649.916377044743
235,649.8715598772933
236,649.8274093549696
237,649.783908123303
238,649.7410374767333
239,649.6987778940106
240,649.6571095726049
241,649.616012949924
242,649.5754691978794
243,649.5354606770419
244,649.4959713374965
245,649.4569870558403
246,649.4184959014696
247,649.3804883295506
248,649.3429573017668
249,649.3058983385172
250,649.2693095077931
251,649.2331913568643
252,649.197546793396
253,649.1623809226585
254,649.127700847201
255,649.093515435159
256,649.0598350635794
257,649.0266713435919
258,648.9940368343114
259,648.9619447516185
260,648.9304086768782
261,648.8994422701695
262,648.8690589930923
263,648.8392718469274
264,648.810093131757
265,648.7815342307184
266,648.7536054214818
267,648.7263157153294
268,648.6996727235205
269,648.6736825507123
270,648.6483497153656
271,648.6236770967722
272,648.5996659076364
273,648.5763156904025
274,648.5536243350517
275,648.5315881157322
276,648.5102017429346
277,648.4894584270535
278,648.4693499487568
279,648.4498667323255
280,648.4309979198648
281,648.4127314460526
282,648.3950541142714
283,648.3779516757041
284,648.361408913464
285,648.3454097338839
286,648.3299372665714
287,648.3149739737435
288,648.3005017680337
289,648.2865021371844
290,648.2729562744659
291,648.2598452148636
292,648.2471499779416
293,648.2348517183073
294,648.2229318840505
295,648.2113723827015
296,648.2001557532541
297,648.189265341897
298,648.1786854785388
299,648.1684016507672
300,648.1584006713274
301,648.1486708348367
302,648.1392020595601
303,648.1299860103286
304,648.1210161987703
305,648.1122880572651
306,648.1037989839144
307,648.0955483573371
308,648.0875375217831
309,648.0797697442827
310,648.0722501455482
311,648.0649856049464
312,648.0579846382611
313,648.0512572469638
314,648.044814739606
315,648.0386695285026
316,648.0328349070071
317,648.0273248140736
318,648.0221535932515
319,648.0173357526168
320,648.01288573082
321,648.0088176730358
322,648.0051452194147
323,648.0018813076906
324,647.9990379910749
325,647.9966262726566
326,647.9946559580238
327,647.9931355283924
328,647.9920720370505
329,647.9914710323405
330,647.9913365105833
331,647.9916709022802
332,647.9924750946002
333,647.9937484926223
334,647.9954891211635
335,647.9976937681721
336,648.0003581692514
337,648.0034772308151
338,648.00704528717
339,648.0110563850292
340,648.0155045878716
341,648.0203842921935
342,648.0256905478932
343,648.0314193755686
344,648.0375680741628
345,648.0441355129273
346,648.0511224019261
347,648.0585315352138
348,648.0663680004077
349,648.074639348078
350,648.0833557149416
351,648.0925298964112
352,648.1021773658208
353,648.1123162391382
354,648.1229671856004
355,648.1341532869754
356,648.1458998508715
357,648.1582341860284
358,648.1711853489988
359,648.1847838714957
360,648.1990614762497
361,648.2140507875278
362,648.2297850413302
363,648.2462977997016
364,648.2636226731303
365,648.281793054488
366,648.3008418675081
367,648.3208013324436
368,648.3417027512977
369,648.3635763149222
370,648.3864509340829
371,648.4103540956959
372,648.4353117437636
373,648.4613481828574
374,648.4884860010328
375,648.5167460088235
376,648.5461471911256
377,648.5767066691059
378,648.6084396695098
379,648.6413594988946
380,648.6754775207318
381,648.7108031342675
382,648.7473437551814
383,648.7851047989208
384,648.824089668059
385,648.864299745391
386,648.9057343947555
387,648.9483909714666
388,648.992264843542
389,649.0373494237274
390,649.0836362110318
391,649.131114839538
392,649.1797731315734
393,649.2295971514617
394,649.2805712548596
395,649.3326781276719
396,649.3858988083838
397,649.4402126885972
398,649.4955974883761
399,649.5520292051558
400,649.6094820367259
401,649.6679282796517
402,649.7273382045266
403,649.7876799093401
404,649.8489191527426
405,649.9110191702731
406,649.9739404782133
407,650.0376406708195
408,650.1020742167262
409,650.1671922595856
410,650.2329424273067
411,650.2992686540558
412,650.3661110194191
413,650.4334056095909
414,650.501084405975
415,650.5690752070882
416,650.6373015899032
417,650.7056829165257
418,650.7741343913807
419,650.8425671731418
420,650.9108885444382
421,650.9790021408842
422,651.0468082395076
423,651.1142041054048
424,651.1810843939743
425,651.247341604083
426,651.3128665755871
427,651.3775490235843
428,651.4412781014803
429,651.5039429845109
430,651.565433464444
431,651.6256405456086
432,651.6844570331215
433,651.7417781060905
434,651.7975018705608
435,651.8515298881346
436,651.9037676762983
437,651.9541251758355
438,652.0025171798704
439,652.0488637188251
440,652.0930903961374
441,652.1351286707155
442,652.1749160834382
443,652.2123964263996
444,652.2475198550669
445,652.2802429451643
446,652.31052869775
447,652.3383464972359
448,652.3636720278812
449,652.3864871548382
450,652.4067797762596
451,652.4245436530204
452,652.4397782221185
453,652.4524883991555
454,652.4626843749083
455,652.4703814108531
456,652.4755996380676
457,652.4783638629212
458,652.4787033816602
459,652.4766518049354
460,652.472246892466
461,652.4655303969357
462,652.4565479148367
463,652.4453487410306
464,652.4319857238102
465,652.4165151178203
466,652.398996432519
467,652.3794922737154
468,652.3580681752368
469,652.3347924170104
470,652.3097358251581
471,652.2829715498528
472,652.254574818
473,652.224622659824
474,652.1931936104564
475,652.1603673891302
476,652.1262245592677
477,652.0908461725461
478,652.0543133992262
479,652.0167071463217
480,651.9781076651545
481,651.9385941506267
482,651.8982443359762
483,651.8571340887122
484,651.8153370154708
485,651.7729240850891
486,651.7299632798804
487,651.686519285057
488,651.6426532258395
489,651.598422461021
490,651.553880440404
491,651.5090766315797
492,651.4640565193266
493,651.4188616788664
494,651.3735299224247
495,651.328095516701
496,651.2825894664628
497,651.2370398566078
498,651.19147224245
499,651.1459100764766
500,651.1003751594151
501,651.0548881037307
502,651.0094687982858
503,650.9641368635894
504,650.9189120875781
505,650.8738148320132
506,650.8288663995951
507,650.784089352226
508,650.7395077718768
509,650.6951474574525
510,650.6510360538721
511,650.6072031126984
512,650.5636800862901
513,650.5205002592269
514,650.477698621866
515,650.4353116915632
516,650.3933772875488
517,650.3519342659849
518,650.3110222225062
519,650.2706811702866
520,650.2309512019475
521,650.191872143176
522,650.1534832049464
523,650.1158226400983
524,650.0789274090924
525,650.0428328591192
526,650.0075724202909
527,649.9731773222549
528,649.9396763340019
529,649.9070955287732
530,649.8754580748375
531,649.8447840516274
532,649.8150902894761
533,649.786390230478
534,649.758693808282
535,649.7320073458297
536,649.7063334716015
537,649.6816710563676
538,649.6580151734845
539,649.6353570861813
540,649.6136842648425
541,649.5929804360487
542,649.5732256635526
543,649.554396460195
544,649.536465929547
545,649.5194039365955
546,649.5031773072625
547,649.4877500563364
548,649.4730836426413
549,649.4591372496584
550,649.4458680897158
551,649.4332317301327
552,649.4211824399182
553,649.4096735554494
554,649.3986578628915
555,649.388087994033
556,649.3779168308077
557,649.368097912277
558,649.3585858366387
559,649.3493366502719
560,649.3403082159433
561,649.3314605528598
562,649.3227561420481
563,649.3141601916576
564,649.3056408581493
565,649.2971694204674
566,649.2887204047149
567,649.2802716569212
568,649.2718043620955
569,649.2633030094479
570,649.254755306104
571,649.2461520441602
572,649.2374869280858
573,649.228756371194
574,649.2199592711281
575,649.2110967749446
576,649.2021720443256
577,649.1931900306103
578,649.1841572676798
579,649.175081688651
580,649.1659724703708
581,649.1568399077647
582,649.1476953176636
583,649.1385509689604
584,649.1294200338266
585,649.1203165540804
586,649.1112554175115
587,649.1022523402121
588,649.093323852019
589,649.0844872827943
590,649.0757607476681
591,649.0671631298912
592,649.0587140607882
593,649.0504338974288
594,649.0423437000168
595,649.0344652127732
596,649.026820854075
597,649.0194337230209
598,649.0123276294588
599,649.0055271526811
600,648.9990577313625
601,648.9929457848853
602,648.9872188640982
603,648.981905827498
604,648.9770370369164
605,648.9726445654389
606,648.9687624095246
607,648.965426696971
608,648.9626758825361
609,648.9605509237023
610,648.9590954300659
611,648.9583557811245
612,648.9583812088875
613,648.9592238434939
614,648.9609387213802
615,648.9635837564672
616,648.967219675739
617,648.971909921653
618,648.9777205244087
619,648.9847199464384
620,648.9929788996656
621,649.0025701342399
622,649.0135681968103
623,649.0260491572939
624,649.0400903049399
625,649.0557698161097
626,649.073166396627
627,649.0923589006711
628,649.113425926734
629,649.136445390102
630,649.1614940711385
631,649.1886471392688
632,649.2179776535891
633,649.2495560419661
634,649.2834495611213
635,649.3197217405317
636,649.3584318132185
637,649.3996341365886
638,649.4433776062892
639,649.4897050657746
640,649.5386527145718
641,649.5902495193134
642,649.6445166329405
643,649.7014668282384
644,649.7611039517265
645,649.8234224033814
646,649.888406647742
647,649.9560307631946
648,650.0262580380214
649,650.0990406226745
650,650.17431924693
651,650.2520230086557
652,650.3320692388749
653,650.4143634461757
654,650.4987993423182
655,650.585258949928
656,650.6736127920365
657,650.7637201618799
658,650.8554294702485
659,650.9485786671174
660,651.0429957340177
661,651.1384992432794
662,651.2348989799889
663,651.3319966224959
664,651.4295864774252
665,651.5274562650837
666,651.6253879508533
667,651.7231586179477
668,651.8205413771211
669,651.9173063094079
670,652.0132214383333
671,652.1080537281456
672,652.2015701045526
673,652.2935384942267
674,652.3837288789236
675,652.471914359503
676,652.5578722244574
677,652.6413850167395
678,652.7222415917823
679,652.8002381587677
680,652.8751792965222
681,652.9468789351911
682,653.0151612954621
683,653.0798617785052
684,653.1408278012065
685,653.197919572094
686,653.2510108035947
687,653.2999893560517
688,653.3447578082253
689,653.3852339480242
690,653.4213511767034
691,653.453058820272
692,653.4803223430889
693,653.5031234599888
694,653.5214601446197
695,653.5353465330901
696,653.544812723187
697,653.5499044699791
698,653.5506827788563
699,653.5472233977692
700,653.5396162119416
701,653.5279645460247
702,653.5123843798015
703,653.4930034841569
704,653.4699604845866
705,653.4434038601867
706,653.4134908868515
707,653.3803865344009
708,653.3442623284838
709,653.3052951890262
710,653.2636662573572
711,653.219559723716
712,653.1731616656942
713,653.1246589066941
714,653.0742379021355
715,653.0220836600652
716,652.9683787021049
717,652.9133020705598
718,652.8570283881733
719,652.7997269781804
720,652.7415610531108
721,652.6826869802832
722,652.6232536299182
723,652.563401809116
724,652.5032637827378
725,652.4429628811913
726,652.3826131952815
727,652.3223193590896
728,652.2621764224477
729,652.2022698145097
730,652.1426753994073
731,652.0834596243109
732,652.0246797593053
733,651.9663842271652
734,651.9086130193978
735,651.8513981927352
736,651.794764437266
737,651.7387297035341
738,651.6833058719166
739,651.628499444587
740,651.5743122395774
741,651.5207420682949
742,651.4677833815142
743,651.4154278728084
744,651.3636650318023
745,651.3124826428761
746,651.2618672282493
747,651.211804436968
748,651.162279382462
749,651.1132769313259
750,651.0647819458458
751,651.0167794833023
752,650.969254956441
753,650.9221942612772
754,650.8755838797059
755,650.8294109645502
756,650.7836634139514
757,650.7383299409876
758,650.6934001433458
759,650.6488645764749
760,650.6047148316164
761,650.5609436175389
762,650.517544842063
763,650.4745136869566
764,650.4318466679507
765,650.3895416709627
766,650.3475979562813
767,650.3060161242396
768,650.264798038552
769,650.2239467067769
770,650.1834661206008
771,650.1433610612943
772,650.1036368779183
773,650.0642992479513
774,650.0253539315307
775,649.986806530842
776,649.9486622652157
777,649.9109257705161
778,649.8736009289505
779,649.8366907331747
780,649.8001971869857
781,649.7641212438332
782,649.7284627833819
783,649.6932206252196
784,649.6583925778335
785,649.6239755205087
786,649.589965515636
787,649.5563579485665
788,649.5231476916474
789,649.490329288844
790,649.457897157298
791,649.4258458017192
792,649.3941700365671
793,649.3628652101036
794,649.3319274239263
795,649.3013537413359
796,649.271142377723
797,649.2412928662807
798,649.2118061929801
799,649.1826848960908
800,649.1539331276708
801,649.1255566770085
802,649.0975629580306
803,649.0699609636081
804,649.0427611898639
805,649.0159755338042
806,648.9896171682208
807,648.9637003986422
808,648.9382405075379
809,648.9132535904274
810,648.8887563870794
811,648.8647661095243
812,648.8413002681942
813,648.8183764984545
814,648.7960123915002
815,648.7742253350202
816,648.7530323695063
817,648.7324500655443
818,648.7124944261973
819,648.6931808170663
820,648.6745239251081
821,648.6565377458165
822,648.6392355969707
823,648.6226301563045
824,648.6067335206031
825,648.5915572844317
826,648.577112637066
827,648.563410476133
828,648.5504615364612
829,648.538276532644
830,648.5268663131495
831,648.5162420222279
832,648.5064152640809
833,648.497398262633
834,648.4892040099944
835,648.4818463970038
836,648.4753403196693
837,648.4697017558982
838,648.4649478079493
839,648.4610967078315
840,648.4581677851921
841,648.4561813993284
842,648.4551588380104
843,648.4551221857408
844,648.456094163482
845,648.4580979411958
846,648.461156923943
847,648.4652945122428
848,648.4705338382485
849,648.476897480706
850,648.4844071630348
851,648.4930834399928
852,648.5029453791265
853,648.5140102431011
854,648.5262931779515
855,648.5398069108751
856,648.5545614600909
857,648.5705638584445
858,648.5878178914301
859,648.6063238493012
860,648.6260782927671
861,648.6470738328851
862,648.6692989276141
863,648.6927376991185
864,648.7173697769189
865,648.7431701725185
866,648.7701091911437
867,648.7981523852922
868,648.8272605527077
869,648.8573897787339
870,648.8884915206114
871,648.9205127297114
872,648.9533960071412
873,648.9870797885967
874,649.021498555373
875,649.0565830692701
876,649.0922606291177
877,649.1284553459163
878,649.1650884328272
879,649.2020785060093
880,649.2393418925694
881,649.2767929422226
882,649.3143443394233
883,649.3519074130736
884,649.3893924418943
885,649.426708954901
886,649.4637660273243
887,649.5004725723373
888,649.5367376286721
889,649.5724706442581
890,649.6075817561839
891,649.6419820669713
892,649.6755839163877
893,649.7083011473899
894,649.7400493648906
895,649.7707461870061
896,649.8003114900471
897,649.8286676503069
898,649.8557397870613
899,649.8814560116411
900,649.9057476870128
901,649.928549701487
902,649.94980075927
903,649.969443689464
904,649.9874257737504
905,650.0036990916311
906,650.0182208810088
907,650.030953910907
908,650.0418668618906
909,650.0509347080873
910,650.0581390929658
911,650.0634686897286
912,650.0669195365235
913,650.0684953364004
914,650.0682077118117
915,650.0660764037794
916,650.0621294069362
917,650.0564030333985
918,650.048941900373
