acceleration,velocity,displacement
-8.247398193862302e-05,0.0,0.0
-0.00033345681535277,-1.0398269932284825e-07,-2.5995674830712064e-11
-0.0006042556488857777,-3.384108153824852e-07,-1.3659405350704543e-10
-0.0008940773894444581,-7.129940749650442e-07,-3.994452760939278e-10
-0.0012015891524339007,-1.2369107104346338e-06,-8.869214724438473e-10
-0.0015250304283518645,-1.9185656056310753e-06,-1.6757905514602747e-09
-0.0018623325128072155,-2.7654063409208455e-06,-2.846783538098255e-09
-0.0022112324002214767,-3.7837975691780184e-06,-4.484084515622971e-09
-0.002569372292057212,-4.978948742247691e-06,-6.674771093479398e-09
-0.002934381244986098,-6.354887126508519e-06,-9.50823006066845e-09
-0.0033039389017113134,-7.914467163182872e-06,-1.3075568633091298e-08
-0.0036758212998342535,-9.659407213569265e-06,-1.7469037227279332e-08
-0.004047927460185643,-1.1590344403574238e-05,-2.2781475131565207e-08
-0.004418285846352402,-1.370689773020875e-05,-2.9105785665010954e-08
-0.004785042563748568,-1.6007729832733993e-05,-3.653444255574664e-08
-0.0051464365221359065,-1.849059960420511e-05,-4.5159024914981416e-08
-0.005500768864640549,-2.1152400950899225e-05,-5.50697750537575e-08
-0.005846374310278072,-2.398918674462888e-05,-6.635517197763952e-08
-0.006181601060778951,-2.6996180587393133e-05,-7.910151381064503e-08
-0.006504803834162819,-3.0167781811128577e-05,-9.339250441027546e-08
-0.0068143512083435,-3.3497570571755155e-05,-1.093088425059964e-07
-0.007108644131685814,-3.6978319406762484e-05,-1.269278150006258e-07
-0.007386139154311295,-4.060201522826176e-05,-1.4632289865938186e-07
-0.007645370012843066,-4.435989252005035e-05,-1.675633755964599e-07
-0.007884964791648748,-4.8242476221173305e-05,-1.907139677817658e-07
-0.008103660496284141,-5.2239632543156524e-05,-2.1583449497284827e-07
-0.008300319706268013,-5.6340627593794566e-05,-2.4297956000708603e-07
-0.008473954039139442,-6.0534196030146434e-05,-2.7219826591307126e-07
-0.008623757282437928,-6.480862386054078e-05,-3.0353397088574306e-07
-0.008749148295223412,-6.915185025495611e-05,-3.370240894146173e-07
-0.008849820595618339,-7.355159247766655e-05,-3.7269995009777293e-07
-0.008925792663451344,-7.799549579243398e-05,-4.1058672216529805e-07
-0.00897745178532575,-8.247130690462825e-05,-4.507034228395636e-07
-0.009005585327589697,-8.696706618285711e-05,-4.930630161114349e-07
-0.009011395454725457,-9.14713113784359e-05,-5.376726105017581e-07
-0.008996494797935906,-9.597328394160124e-05,-5.845337593317674e-07
-0.008962880848191994,-0.00010046312785313321,-6.33642862280451e-07
-0.00891288674601918,-0.000104932069751686,-6.849916616816558e-07
-0.008849106918945871,-0.00010937256816792727,-7.385678211615591e-07
-0.008774298195655342,-0.00011377841944657758,-7.943555680651854e-07
-0.008691260145016462,-0.00011814480903174553,-8.523363751847662e-07
-0.00860270148503439,-0.00012246829943925823,-9.124896523025171e-07
-0.008511101394842055,-0.00012674675015922733,-9.747934147021384e-07
-0.008418574766104558,-0.000130979169199464,-1.0392248945418112e-06
-0.008326749233535801,-0.00013516550019937408,-1.1057610618915208e-06
-0.008236660206884636,-0.00013930635255947918,-1.174379025081234e-06
-0.008148668565331304,-0.00014340268475253315,-1.2450562844092372e-06
-0.008062404203739004,-0.00014745545294480073,-1.3177708188335706e-06
-0.007976737446026779,-0.0001514652383572422,-1.3925009916590813e-06
-0.007889779573535411,-0.00015543186761213273,-1.469225268151425e-06
-0.0077989130084829975,-0.00015935404075763734,-1.5479217452438674e-06
-0.007700850717858627,-0.00016322898168922274,-1.6285675008555825e-06
-0.007591723222204408,-0.0001670521251742385,-1.7111377775714478e-06
-0.007467190338388655,-0.00017081685356438675,-1.795605022256104e-06
-0.007322573670289653,-0.00017451429456655633,-1.88193780928884e-06
-0.007153005499141749,-0.00017813318935891418,-1.9700996802702074e-06
-0.006953590389625437,-0.00018165983833110598,-2.0600479371927126e-06
-0.006719576535196223,-0.0001850781300623114,-2.151732429291067e-06
-0.006446533376640273,-0.00018836965754027052,-2.2450943761917126e-06
-0.00613053048613908,-0.00019151392350596537,-2.3400652714532716e-06
-0.005768311319631862,-0.0001944886339574081,-2.436565910819115e-06
-0.005357455074371657,-0.00019727007555590898,-2.5345055881974442e-06
-0.004896520813069085,-0.00019983356952776917,-2.633781499468364e-06
-0.004385170061533604,-0.00020215399224641985,-2.734278389911911e-06
-0.0038242661270362567,-0.00020420635129356232,-2.8358684757969067e-06
-0.003215948761267298,-0.00020596640501563821,-2.9384116648742067e-06
-0.002563681405640219,-0.0002074113125573651,-3.0417560942674574e-06
-0.0018722671430796073,-0.00020852029969454505,-3.145738997330435e-06
-0.001147830258149246,-0.00020927532404485226,-3.250187903265284e-06
-0.00039776214416349626,-0.00020966172214543046,-3.3549221648128545e-06
0.00036936873310488704,-0.00020966882049819512,-3.459754800473761e-06
0.0011439435191893342,-0.00020929049243512157,-3.5644946287070903e-06
0.0019154575487175388,-0.00020852564216814485,-3.668948662357907e-06
0.0026727234771538873,-0.000207378596911677,-3.772924722127862e-06
0.0034041118696379402,-0.00020585938807497905,-3.876234218374526e-06
0.004097825692300035,-0.00020398390368449456,-3.978695041314395e-06
0.004742202308545993,-0.00020177389668428307,-4.080134491406589e-06
0.005326033960903792,-0.00019925683761692063,-4.18039217498189e-06
0.005838896079843997,-0.00019646560510673368,-4.279322785662804e-06
0.006271472133678096,-0.00019343801305335314,-4.376798690202826e-06
0.006615863337681826,-0.00019021617918551316,-4.472712238262542e-06
0.00686587070172048,-0.0001868457456756626,-4.5669777194778365e-06
0.007017235938833817,-0.00018337496901552403,-4.6595328981506335e-06
0.0070678278622648165,-0.00017985370306524936,-4.7503400661708266e-06
0.007017762995371224,-0.00017633230535084033,-4.839386568274849e-06
0.006869453202606842,-0.0001728605013013458,-4.926684769937896e-06
0.006627578464997266,-0.00016948624338444478,-5.0122714561093436e-06
0.006298988292746167,-0.00016625460169500893,-5.096206667379207e-06
0.005892539609521146,-0.0001632067197194421,-5.17857199773282e-06
0.0054188818682454854,-0.00016037886435000046,-5.25946839375018e-06
0.004890201661296908,-0.00015780159346761487,-5.339013508204584e-06
0.004319938878957612,-0.00015549905833255124,-5.417338671154626e-06
0.0037224844972400914,-0.00015348845248850182,-5.494585548859889e-06
0.00311286744385762,-0.00015177961450322738,-5.570902565607821e-06
0.0025064363329520664,-0.00015037478855902496,-5.646441166373384e-06
0.0019185418003885809,-0.0001492685440256898,-5.721351999519563e-06
0.0013642260252105915,-0.00014844785206929,-5.795781098543308e-06
0.0008579267604238748,-0.00014789231387288138,-5.8698661400288515e-06
0.0004132031383979875,-0.0001475745313981759,-5.943732851346616e-06
4.248948717870073e-05,-0.00014746060824178173,-6.017491636256605e-06
-0.00024311825897340884,-0.0001475107654347304,-6.091234479675734e-06
-0.00043404074819511644,-0.00014768005518652256,-6.165032184831047e-06
-0.0005223567868381862,-0.00014791915457028088,-6.238931987270248e-06
-0.0005019081378497783,-0.00014817522080145287,-6.3129555811131815e-06
-0.0003683674112259904,-0.00014839278968872182,-6.387097583735725e-06
-0.00011926800181194402,-0.0001485146985419813,-6.4613244557934e-06
0.00024600593574130095,-0.00014848301405849895,-6.53557388394352e-06
0.0007262713188716315,-0.0001482399447448457,-6.609754623644357e-06
0.0013186397744325232,-0.00014772871697151966,-6.683746789073448e-06
0.002018650208233799,-0.00014689439447585309,-6.757402566935291e-06
0.0028204347538026806,-0.00014568462323534396,-6.830547321363091e-06
0.0037169106390096893,-0.00014405028688714087,-6.902981048893712e-06
0.004699989312030202,-0.00014194606189938088,-6.974480136090342e-06
0.005760793591483988,-0.00013933086617350234,-7.044799368108563e-06
0.006889873344752966,-0.0001361681994394431,-7.113674134511799e-06
0.008077409905605482,-0.0001324263786268535,-7.1808227790283736e-06
0.009313399616327357,-0.0001280786762463703,-7.245949042746679e-06
0.010587808559153955,-0.00012310337420249996,-7.308744555358897e-06
0.011890693931739447,-0.00011748374857977662,-7.3688913360544665e-06
0.013212291750665909,-0.00011120800215917527,-7.426064273739204e-06
0.014543074815519351,-0.00010426916051762896,-7.479933564408405e-06
0.015873789098675685,-9.66649445390802e-05,-7.5301670906725825e-06
0.01719548094154074,-8.83976270290261e-05,-7.576432733564609e-06
0.018499530217121342,-7.947387423936058e-05,-7.618400608881706e-06
0.019777703199752365,-6.990456588514216e-05,-7.655745218912831e-06
0.02102223179508188,-5.97045821364336e-05,-7.688147505918224e-06
0.022225915285135386,-4.889254536637928e-05,-7.715296787793927e-06
0.023382231666079934,-3.749050862857545e-05,-7.736892551292666e-06
0.02448544168380114,-2.552359029110518e-05,-7.752646076022586e-06
0.02553067002806386,-1.301956236313893e-05,-7.762281864186147e-06
0.02651395255827173,-8.40671655503105e-09,-7.765538856456071e-06
0.02743224378670813,1.3478142369689936e-05,-7.762171422542788e-06
0.02828338467063725,2.7407049484026282e-05,-7.751950124579359e-06
0.029066037083329516,4.174440492251797e-05,-7.734662260977722e-06
0.029779596601800025,5.645581334380036e-05,-7.710112206411142e-06
0.030424096949123656,7.150673673153128e-05,-7.678121568892309e-06
0.031000117165879713,8.686279026028212e-05,-7.638529187144356e-06
0.03150869903325149,0.00010248999431006492,-7.59119099100177e-06
0.03195127998365898,0.00011835498906429254,-7.53597974515818e-06
0.032329645155104184,0.00013442522034898334,-7.4727846928048615e-06
0.03264589938520113,0.00015066910648405966,-7.401511111096601e-06
0.03290245619818564,0.00016705619537990635,-7.32207978563061e-06
0.03310203877079004,0.00018355731912215027,-7.234426407005095e-06
0.033247688354803365,0.00020014475090354862,-7.138500889498671e-06
0.03334277679367651,0.0002167923671906686,-7.034266609975116e-06
0.03339101988514405,0.00023347581636037375,-6.921699564087356e-06
0.03339648782985183,0.00025017269328912273,-6.800787436674982e-06
0.033363608969564515,0.0002668627174889768,-6.671528583980457e-06
0.03329716358611753,0.0002835279106278973,-6.533930926951238e-06
0.03320226543650223,0.00030015276788355224,-6.388010757323376e-06
0.03308433020814451,0.0003167244167947139,-6.233791461153809e-06
0.03294903227096272,0.00033323275741449076,-6.071302167601508e-06
0.032802252871335466,0.0003496705787000653,-5.900576333572869e-06
0.03265002268822276,0.00036603364758995484,-5.721650277000364e-06
0.03249845894463173,0.00038232076799816844,-5.5345616731033335e-06
0.03235369300246965,0.0003985338059849438,-5.339348029607555e-06
0.03222178065885573,0.0004146776744002751,-5.13604515951125e-06
0.03210858669511049,0.0004307602662387667,-4.92468567435149e-06
0.03201963862682425,0.0004467923225692504,-4.705297527149486e-06
0.03195995041546534,0.0004627872198298228,-4.477902641549717e-06
0.03193382259459104,0.00047876066308233687,-4.242515670821678e-06
0.0319446298509358,0.0004947302761937186,-3.999142936002664e-06
0.03199461083373788,0.000510715086364887,-3.7477815953630127e-06
0.0320846777952802,0.0005267349085221416,-3.4884190966412553e-06
0.032214265296290866,0.0005428096442950343,-3.2210329584369615e-06
0.032381237417888134,0.0005589585199735791,-2.945590917369808e-06
0.032581870657665775,0.0005751992969924676,-2.6620514631282964e-06
0.03281092340155186,0.000591547495507272,-2.3703647650033616e-06
0.03306179283408638,0.0006080156745661816,-2.0704739724849983e-06
0.03332674915555094,0.0006246128100635909,-1.7623168513275551e-06
0.033597228102703644,0.0006413438043781546,-1.4458276977171186e-06
0.03386415760958949,0.000658209150806228,-1.1209394589210229e-06
0.034118293226413285,0.0006752047635152287,-7.875859803406587e-07
0.03435053923502923,0.0006923219716305893,-4.4570429655420423e-07
0.03455223754886712,0.0007095476658265634,-9.523688718991604e-08
0.034715413284457756,0.0007268645785348946,2.6386617390044847e-07
0.034832972530429614,0.0007442516749886165,6.316452372813262e-07
0.034898852605991286,0.0007616846312727217,1.0081293138466607e-06
0.03490812762656746,0.0007791363763308614,1.3933345657475565e-06
0.0348570733839818,0.0007965776765834987,1.7872630789761465e-06
0.03474319609993225,0.0008139777439544771,2.1899019341106403e-06
0.034565229474340056,0.0008313048503480452,2.601222582686271e-06
0.03432310367094927,0.0008485269336343675,3.021180528681874e-06
0.034017888850516646,0.000865612181764734,3.4497153075316495e-06
0.03365171483600877,0.0008825295826863654,3.886750748644425e-06
0.033227667487851456,0.0008992494282673304,4.332195501382848e-06
0.0327496613229119,0.0009157437604700213,4.785943798567186e-06
0.0322222872595776,0.0009319867476156436,5.247876425588602e-06
0.03165063533464828,0.0009479549782642001,5.717861857058563e-06
0.031040095453691838,0.0009636276609612852,6.195757516864934e-06
0.03039614336289934,0.000978986720665433,6.6814111122716136e-06
0.029724121926456657,0.000994016786987772,7.174661989184915e-06
0.029029028626139715,0.001008705074625921,7.675342454588338e-06
0.028315319620013088,0.0010230411616874591,8.183279013666683e-06
0.027586739659068608,0.0010370166765072296,8.698293473215354e-06
0.026846186093323808,0.0010506249079453276,9.220203869328494e-06
0.026095613748430176,0.0010638603579057662,9.748825185791268e-06
0.02533598491186425,0.0010767182575708398,1.028396983966042e-05
0.024567265166462085,0.0010891940700904215,1.0825447921575736e-05
0.023788462681079404,0.0011012830020523069,1.1373067189611418e-05
0.022997706950653216,0.00111297954446024,1.1926632826239555e-05
0.02219236286120209,0.0011242770619132039,1.2485946977832916e-05
0.021369176847861337,0.0011351674468404697,1.3050808105021334e-05
0.02052445328258005,0.00114564085437308,1.3621010180324722e-05
0.01965426031308017,0.001155685532771995,1.4196341777110991e-05
0.01875466433168879,0.0011652877639331872,1.4776585101287287e-05
0.017821990276572053,0.0011744319275852524,1.5361515024166896e-05
0.016853100614977197,0.0011831007003081397,1.5950898181140243e-05
0.015845680014041533,0.0011912753954653943,1.6544492205083626e-05
0.014798507708855086,0.0011989364423961185,1.7142045164549004e-05
0.013711697515948286,0.0012060639937023193,1.7743295273573613e-05
0.012586886518991565,0.0012126386397110541,1.8347970931926956e-05
0.011427356526769496,0.0012186422004724943,1.8955791141972843e-05
0.010238076643365918,0.0012240585587650283,1.9566466331782223e-05
0.009025660573347716,0.0012288744930692066,2.0179699594740782e-05
0.0077982383390056784,0.001233080467797295,2.0795188334957408e-05
0.0065652481342280055,0.0012366713394156034,2.1412626286760633e-05
0.005337159205234973,0.0012396469412504691,2.203170585692715e-05
0.004125140387006979,0.0012420125161485295,2.26521207212769e-05
0.002940691255273716,0.0012437789740590997,2.327356859382881e-05
0.0017952541821992473,0.001244962960418468,2.38957540774482e-05
0.0006998260099690791,0.00124558673046651,2.4518391500169443e-05
-0.0003354128662855877,0.0012456778337524307,2.5141207641224177e-05
-0.001301436744035984,0.0012452686213498504,2.5763944254999746e-05
-0.002190668681346301,0.001244395594993505,2.6386360309085584e-05
-0.002997223246577409,0.0012430986220115239,2.700823386333684e-05
-0.0037170949235147085,0.0012414200424690008,2.7629363529456974e-05
-0.004348291803708707,0.0012394036957871948,2.8249569464021023e-05
-0.004890914971484997,0.0012370938940933964,2.886869386149117e-05
-0.005347183888023719,0.0012345343693785193,2.9486600927359148e-05
-0.005721408094783164,0.0012317672213828176,3.0103176325049484e-05
-0.0060199055511449915,0.0012288318929713357,3.071832610363802e-05
-0.006250867789175089,0.0012257641996362557,3.133197512678992e-05
-0.006424172674728627,0.0012225954395202797,3.194406503657905e-05
-0.006551147564975807,0.0012193516094603535,3.255455179882421e-05
-0.006644288033297299,0.0012160527505607852,3.31634028888295e-05
-0.006716938191645163,0.0012127124440045496,3.377059418747083e-05
-0.00678293770501493,0.0012093374750303846,3.4376106667229565e-05
-0.006856240108976529,0.0012059276805768868,3.497992295613138e-05
-0.006950509325829977,0.0012024759932181852,3.558202387458015e-05
-0.007078706047784414,0.0011989686893747816,3.618238504522839e-05
-0.00725268067365096,0.0011953858426944227,3.6780973678245686e-05
-0.007482792986126903,0.0011917019742794781,3.737774563248916e-05
-0.007777580178577394,0.001187886880988302,3.79726428463061e-05
-0.008143493726654728,0.001183906612511994,3.856559121968118e-05
-0.008584721212399681,0.0011797245587772305,3.915649901250348e-05
-0.009103101737974581,0.001175302603039637,3.97452558029577e-05
-0.009698134950633977,0.0011706022938674848,4.033173202718448e-05
-0.010367076444456887,0.001165585991018712,4.0915779098406026e-05
-0.011105107726940464,0.0011602179449758626,4.149723008240467e-05
-0.011905566799957681,0.001154465276344138,4.207590088773467e-05
-0.012760224771420626,0.0011482988284512935,4.2651591913933526e-05
-0.01365959422794922,0.001141693873701451,4.3224090089471715e-05
-0.014593256388820796,0.0011346306610472586,4.3793171223158894e-05
-0.01555019604538115,0.001127094797938708,4.435860258790539e-05
-0.016519134950919036,0.0011190774651896331,4.492014565368747e-05
-0.017488854873928393,0.0011105754677334214,4.5477558886918236e-05
-0.018448501395098935,0.0011015911286661646,4.6030600536018135e-05
-0.019387860144652234,0.0010921320382812267,4.657903132775498e-05
-0.02029759948154579,0.001082210673374677,4.7122617005668956e-05
-0.02116947658604873,0.0010718439043577784,4.766113065010207e-05
-0.021996505309671677,0.0010610524088838483,4.8194354728412476e-05
-0.0227730830527158,0.0010498600117932514,4.872208283358175e-05
-0.023495072193334014,0.001038292972981739,4.92441210797755e-05
-0.02415983176133065,0.0010263792469930727,4.97602891347692e-05
-0.024766198044354856,0.0010141477395416514,5.027042088140288e-05
-0.02531441722909206,0.0010016275857232897,5.077436471271912e-05
-0.025806036603772217,0.0009888474722650736,5.127198347721621e-05
-0.026243761819036506,0.0009758350226593714,5.176315410094732e-05
-0.026631286761312677,0.0009626162605142841,5.2247766921740737e-05
-0.02697310144842278,0.0009492151634618503,5.272572477773477e-05
-0.027274283221495225,0.0009356533172943707,5.319694189792382e-05
-0.02754027733991815,0.0009219496771540174,5.366134264653592e-05
-0.02777667399285968,0.0009081204393208229,5.411886017565463e-05
-0.02798898902528204,0.0008941790235662874,5.45694350413764e-05
-0.028182455737402343,0.0008801361623756163,5.5013013837861876e-05
-0.028361835878160963,0.0008660000894717255,5.5449547900823714e-05
-0.028531259297209236,0.0008517768156778829,5.5878992127111114e-05
-0.02869410202975857,0.000837470475346141,5.630130394986712e-05
-0.028852910233665846,0.0008230837222802849,5.671644249927373e-05
-0.029009372769512584,0.0008086181515294903,5.712436796772617e-05
-0.029164340554581718,0.0007940747231984668,5.752504118640816e-05
-0.029317887605361276,0.000779454166158481,5.79184234087474e-05
-0.029469406545951354,0.0007647573426206529,5.830447628594218e-05
-0.029617729862304903,0.0007499855585185888,5.868316201122699e-05
-0.029761267726242796,0.0007351408091214519,5.9054443603137e-05
-0.029898154173655985,0.0007202259536464772,5.941828529382898e-05
-0.030026395737799767,0.0007052448161686133,5.977465298628275e-05
-0.03014401956030873,0.0006902022123440862,6.012351474341092e-05
-0.03024921966578527,0.0006751039025375627,6.046484127213133e-05
-0.030340498968439156,0.0006599564728790066,6.0798606365985475e-05
-0.030416801687821123,0.0006447671477149416,6.112478727113396e-05
-0.030477628776455976,0.0006295435400988723,6.144336494308742e-05
-0.030523128921632177,0.0006142933506743503,6.175432416578072e-05
-0.03055415902541914,0.0005990240286875874,6.205765351062121e-05
-0.030572310093657858,0.0005837424114078182,6.235334512064505e-05
-0.030579896948211508,0.0005684543596473509,6.264139431340884e-05
-0.03057991248345503,0.0005531644072894343,6.292179900514304e-05
-0.03057594874744069,0.0005378754419817103,6.319455896746082e-05
