frame_number,force
0,650.2259918600471
1,650.2061013378504
2,650.1861627981224
3,650.1661729666574
4,650.1461334896402
5,650.1260509431875
6,650.1059367929513
7,650.0858073183472
8,650.0656835115815
9,650.0455909555076
10,650.0255596805816
11,650.0056240015272
12,649.9858223362877
13,649.9661970097179
14,649.9467940413905
15,649.9276629130724
16,649.9088563091387
17,649.8904298229925
18,649.8724416239687
19,649.8549520819219
20,649.8380233509552
21,649.8217189191471
22,649.8061031352432
23,649.79124072322
24,649.7771962912439
25,649.7640338358894
26,649.7518162389841
27,649.7406047543238
28,649.730458483743
29,649.7214338453348
30,649.7135840404458
31,649.7069585295325
32,649.7016025283718
33,649.6975565347465
34,649.6948558930625
35,649.6935304024797
36,649.6936039737709
37,649.695094340231
38,649.6980128269952
39,649.7023641804645
40,649.7081464557403
41,649.7153509562063
42,649.7239622170059
43,649.7339580239556
44,649.7453094609435
45,649.7579809808757
46,649.7719304971552
47,649.7871094944719
48,649.8034631590627
49,649.8209305294449
50,649.8394446693396
51,649.8589328654773
52,649.8793168541305
53,649.9005130813847
54,649.9224330030692
55,649.9449834301658
56,649.9680669240671
57,649.9915822444667
58,650.0154248524614
59,650.0394874724473
60,650.0636607171568
61,650.0878337796253
62,650.1118951937086
63,650.1357336612137
64,650.1592389401462
65,650.1823027870859
66,650.2048199474132
67,650.2266891875561
68,650.2478143616554
69,650.2681055020923
70,650.2874799215741
71,650.3058633145869
72,650.3231908464795
73,650.3394082177145
74,650.3544726888765
75,650.368354049452
76,650.3810355105727
77,650.3925144995986
78,650.4028033335302
79,650.4119297488104
80,650.4199372661385
81,650.4268853696161
82,650.4328494802676
83,650.4379207061245
84,650.4422053557556
85,650.4458242093145
86,650.4489115498989
87,650.4516139667976
88,650.4540889496656
89,650.4565032983079
90,650.4590313765175
91,650.461853239916
92,650.4651526668828
93,650.469115119759
94,650.4739256625493
95,650.4797668620648
96,650.4868167009887
97,650.4952465324494
98,650.5052191054986
99,650.5168866892105
100,650.5303893203777
101,650.5458531965899
102,650.5633892332563
103,650.5830918003217
104,650.6050376526368
105,650.6292850671272
106,650.6558731989784
107,650.6848216666316
108,650.7161303708009
109,650.7497795468373
110,650.7857300440883
111,650.8239238211959
112,650.8642846424943
113,650.9067189577295
114,650.9511169448909
115,650.9973536936187
116,651.0452905050619
117,651.0947762845144
118,651.1456490059066
119,651.1977372312341
120,651.2508616722656
121,651.3048367863533
122,651.3594724028706
123,651.4145753799929
124,651.4699512898234
125,651.5254061214417
126,651.5807479790828
127,651.6357887422345
128,651.6903456504824
129,651.7442427786851
130,651.7973123747246
131,651.849396040048
132,651.9003457418892
133,651.9500246554431
134,651.9983078424513
135,652.0450827765242
136,652.0902497245877
137,652.1337219913279
138,652.1754260325494
139,652.2153014432345
140,652.2533008243514
141,652.2893895295723
142,652.3235452921401
143,652.3557577342331
144,652.3860277639924
145,652.4143668667789
146,652.4407962977124
147,652.4653461834672
148,652.4880545427872
149,652.5089662369124
150,652.5281318634037
151,652.5456066097938
152,652.5614490857354
153,652.5757201519219
154,652.5884817604195
155,652.5997958153367
156,652.6097230575576
157,652.6183219756211
158,652.6256477480085
159,652.631751228097
160,652.6366779887544
161,652.640467447812
162,652.6431520987674
163,652.6447568730175
164,652.6452986603496
165,652.6447860130887
166,652.6432190549427
167,652.64058960633
168,652.6368815241956
169,652.6320712394305
170,652.6261284628241
171,652.6190170229618
172,652.6106957969286
173,652.6011196966163
174,652.5902406789958
175,652.5780087564707
176,652.5643729911595
177,652.549282462555
178,652.53268720104
179,652.514539081284
180,652.4947926704576
181,652.4734060264022
182,652.4503414404309
183,652.4255661187567
184,652.3990527959699
185,652.370780273489
186,652.3407338754276
187,652.3089058143411
188,652.275295461343
189,652.2399095198649
190,652.2027621082213
191,652.1638747605108
192,652.1232763571841
193,652.0810029966651
194,652.0370978188525
195,651.9916107907037
196,651.9445984629754
197,651.8961237046893
198,651.8462554181872
199,651.7950682343626
200,651.7426421862165
201,651.6890623592636
202,651.6344185189284
203,651.5788047172558
204,651.5223188831035
205,651.4650624004371
206,651.4071396774402
207,651.3486577043168
208,651.2897255910001
209,651.2304540703327
210,651.1709549501998
211,651.1113404998232
212,651.0517227595346
213,650.9922127688117
214,650.9329197140227
215,650.8739500048258
216,650.8154062955404
217,650.7573864739727
218,650.6999826444464
219,650.6432801341771
220,650.5873565531431
221,650.532280937342
222,650.4781130032601
223,650.424902537205
224,650.3726889373274
225,650.3215009194846
226,650.2713563916199
227,650.2222624965763
228,650.1742158207679
229,650.1272027646911
230,650.0812000696951
231,650.0361754939489
232,649.9920886292892
233,649.9488918485976
234,649.9065313697533
235,649.8649484183153
236,649.8240804692475
237,649.7838625485889
238,649.744228576219
239,649.7051127279848
240,649.6664507897539
241,649.6281814702107
242,649.5902476355507
243,649.5525974283426
244,649.5151852352548
245,649.477972474954
246,649.4409281880364
247,649.4040294229253
248,649.3672614221638
249,649.3306176208079
250,649.2940994729248
251,649.2577161246469
252,649.2214839534608
253,649.1854259933681
254,649.1495712645403
255,649.1139540253506
256,649.0786129651123
257,649.0435903569721
258,649.0089311904194
259,648.974682300612
260,648.9408915084625
261,648.9076067839218
262,648.8748754462043
263,648.8427434166514
264,648.8112545393703
265,648.7804499806196
266,648.7503677118707
267,648.7210420765533
268,648.6925034384673
269,648.6647779101188
270,648.6378871597003
271,648.6118482946439
272,648.5866738176933
273,648.5623716493778
274,648.5389452094958
275,648.5163935492584
276,648.494711523977
277,648.4738899937498
278,648.4539160385117
279,648.4347731760466
280,648.4164415766504
281,648.398898273321
282,648.3821173698408
283,648.3660702513359
284,648.3507258033962
285,648.3360506461031
286,648.3220093878988
287,648.3085649011886
288,648.2956786178297
289,648.2833108404967
290,648.2714210671942
291,648.2599683296801
292,648.2489115490855
293,648.2382099120871
294,648.2278232694119
295,648.2177125560794
296,648.2078402298984
297,648.1981707221263
298,648.1886708925528
299,648.1793104799592
300,648.1700625372512
301,648.1609038394441
302,648.1518152529216
303,648.1427820550515
304,648.1337941934232
305,648.1248464745642
306,648.1159386744521
307,648.1070755674031
308,648.0982668746703
309,648.0895271375093
310,648.080875519394
311,648.0723355379567
312,648.0639347225763
313,648.0557041934495
314,648.0476781633799
315,648.0398933708046
316,648.0323884586596
317,648.0252033176666
318,648.0183784138904
319,648.011954118572
320,648.005970054435
321,648.0004644686775
322,647.9954736394814
323,647.991031320186
324,647.9871682238219
325,647.9839115510092
326,647.98128456572
327,647.9793062251138
328,647.9779908712426
329,647.9773479936882
330,647.9773820728237
331,647.9780925132746
332,647.9794736763193
333,647.9815150185154
334,647.9842013420957
335,647.987513160338
336,647.9914271771231
337,647.9959168740619
338,648.000953192307
339,648.0065052910925
340,648.0125413619758
341,648.019029476747
342,648.0259384475797
343,648.0332386795634
344,648.0409029976738
345,648.0489074317752
346,648.0572319439798
347,648.0658610824111
348,648.0747845442204
349,648.0839976298075
350,648.0935015717849
351,648.1033037266598
352,648.1134176222419
353,648.1238628579921
354,648.1346648601381
355,648.1458544998085
356,648.15746759018
357,648.1695442857662
358,648.182128411128
359,648.1952667458299
360,648.2090082882704
361,648.2234035160761
362,648.2385036574109
363,648.2543599858155
364,648.2710231497924
365,648.2885425467916
366,648.3069657498825
367,648.3263379943232
368,648.3467017304633
369,648.368096249097
370,648.3905573847754
371,648.4141172999741
372,648.4388043481669
373,648.4646430089904
374,648.4916538858988
375,648.5198537559893
376,648.5492556621301
377,648.5798690384252
378,648.6116998607205
379,648.6447508142701
380,648.6790214718542
381,648.7145084783366
382,648.7512057409301
383,648.789104626827
384,648.8281941711747
385,648.8684612993964
386,648.9098910686293
387,648.9524669327164
388,648.9961710331586
389,649.0409845149966
390,649.0868878628773
391,649.1338612497891
392,649.1818848889868
393,649.2309393771068
394,649.2810060129672
395,649.3320670736178
396,649.3841060287539
397,649.4371076773132
398,649.4910581953084
399,649.5459450901194
400,649.6017570615303
401,649.6584837722651
402,649.7161155308994
403,649.7746428897558
404,649.834056161865
405,649.8943448648384
406,649.9554971041633
407,650.0174989116458
408,650.0803335549554
409,650.1439808322435
410,650.2084163639222
411,650.2736108932498
412,650.3395296082136
413,650.4061314986734
414,650.4733687644251
415,650.5411862914427
416,650.6095212144692
417,650.6783025836045
418,650.7474511506751
419,650.8168792886471
420,650.8864910541007
421,650.9561823986859
422,651.0258415314506
423,651.0953494305131
424,651.1645804984913
425,651.233403350509
426,651.3016817181965
427,651.3692754502366
428,651.4360415892643
429,651.5018355037619
430,651.5665120510389
431,651.6299267457736
432,651.6919369107176
433,651.7524027916517
434,651.8111886243964
435,651.8681636449761
436,651.9232030343011
437,651.9761887867567
438,652.0270104896166
439,652.0755659993159
440,652.1217620021152
441,652.1655144497751
442,652.2067488645189
443,652.2454005113709
444,652.2814144399838
445,652.3147454025785
446,652.3453576591565
447,652.3732246845974
448,652.3983287942647
449,652.420660706082
450,652.4402190580338
451,652.4570098999312
452,652.4710461766422
453,652.4823472178376
454,652.4909382479634
455,652.4968499294811
456,652.5001179509675
457,652.5007826685221
458,652.4988888050068
459,652.494485208407
460,652.4876246679875
461,652.4783637835976
462,652.4667628793923
463,652.4528859503728
464,652.436800630105
465,652.4185781695184
466,652.3982934175586
467,652.3760247939938
468,652.3518542432481
469,652.325867155924
470,652.2981522426992
471,652.2688013457479
472,652.2379091766487
473,652.2055729755988
474,652.1718920926317
475,652.1369674959568
476,652.1009012146253
477,652.0637957222643
478,652.0257532664873
479,651.9868751467021
480,651.9472609431344
481,651.9070077023142
482,651.8662090886112
483,651.8249545171369
484,651.7833282894253
485,651.7414087579989
486,651.6992675481089
487,651.6569688650582
488,651.6145689145642
489,651.5721154616275
490,651.5296475496986
491,651.487195396542
492,651.444780477098
493,651.4024157979537
494,651.3601063630753
495,651.3178498252928
496,651.2756373113123
497,651.2334543998825
498,651.1912822254131
499,651.1490986750644
500,651.1068796462147
501,651.0646003320467
502,651.0222365047373
503,650.9797657677321
504,650.9371687499986
505,650.8944302155131
506,650.8515400611835
507,650.8084941772566
508,650.7652951470767
509,650.7219527684912
510,650.6784843871412
511,650.6349150406813
512,650.5912774203547
513,650.54761166129
514,650.5039649758728
515,650.4603911462883
516,650.4169498934626
517,650.3737061409828
518,650.3307291946145
519,650.2880918600106
520,650.2458695218
521,650.2041392058353
522,650.1629786434239
523,650.1224653529872
524,650.0826757517973
525,650.0436843085109
526,650.005562745876
527,649.9683793018046
528,649.9321980553706
529,649.8970783217765
530,649.8630741170999
531,649.8302336899739
532,649.7985991138273
533,649.7682059313132
534,649.739082843462
535,649.7112514396504
536,649.6847259690444
537,649.659513158423
538,649.6356120844156
539,649.6130141094937
540,649.5917028899464
541,649.5716544606444
542,649.5528373969963
543,649.5352130512982
544,649.518735860187
545,649.5033537215847
546,649.4890084410275
547,649.4756362467831
548,649.4631683711306
549,649.4515316935265
550,649.4406494411979
551,649.4304419435591
552,649.4208274375326
553,649.4117229204088
554,649.4030450450051
555,649.3947110487798
556,649.386639704531
557,649.3787522759927
558,649.3709734581478
559,649.3632322804222
560,649.35546295121
561,649.3476056237037
562,649.3396070652129
563,649.3314212152575
564,649.323009621551
565,649.3143417461273
566,649.3053951349775
567,649.2961554446317
568,649.2866163207439
569,649.2767791284665
570,649.2666525413155
571,649.2562520023499
572,649.2455990776041
573,649.2347207265341
574,649.2236485176857
575,649.2124178195429
576,649.2010669963192
577,649.1896366359942
578,649.1781688331142
579,649.1667065428993
580,649.1552930175645
581,649.1439713302163
582,649.1327839847522
583,649.1217726022848
584,649.1109776685861
585,649.1004383253071
586,649.0901921898765
587,649.0802751926786
588,649.0707214232597
589,649.0615629792436
590,649.0528298129225
591,649.0445495721341
592,649.0367474346283
593,649.0294459385091
594,649.0226648154736
595,649.0164208388194
596,649.010727704057
597,649.0055959641461
598,649.0010330411271
599,648.9970433307805
600,648.993628409505
601,648.9907873457165
602,648.9885171121167
603,648.9868130893267
604,648.9856696459465
605,648.9850807762206
606,648.9850407742902
607,648.9855449230616
608,648.986590176131
609,648.9881758130523
610,648.9903040509984
611,648.9929805994166
612,648.9962151488745
613,649.0000217901402
614,649.0044193632389
615,649.0094317386405
616,649.0150880350782
617,649.021422781264
618,649.0284760301714
619,649.0362934323214
620,649.0449262689584
621,649.054431440385
622,649.06487140251
623,649.0763140468935
624,649.0888325244897
625,649.1025050176006
626,649.1174144654391
627,649.13364824582
628,649.1512978109979
629,649.1704582722919
630,649.1912279273106
631,649.2137077251056
632,649.238000667239
633,649.2642111452474
634,649.292444216565
635,649.3228048217828
636,649.3553969466607
637,649.3903227324843
638,649.4276815377103
639,649.4675689530667
640,649.5100757731284
641,649.5552869305634
642,649.6032804031788
643,649.6541261062453
644,649.70788478236
645,649.7646068998007
646,649.8243315708045
647,649.8870855051273
648,649.9528820197315
649,650.0217201283796
650,650.0935837330486
651,650.16844093402
652,650.2462434701314
653,650.326926296504
654,650.4104073041975
655,650.496587184041
656,650.5853494342412
657,650.6765605081047
658,650.7700700956017
659,650.8657115314985
660,650.963302322623
661,651.0626447864739
662,651.1635267931589
663,651.2657226031865
664,651.3689937945398
665,651.4730902727954
666,651.5777513576802
667,651.6827069393076
668,651.7876786983549
669,651.8923813862269
670,651.9965241626284
671,652.0998119885428
672,652.2019470726701
673,652.3026303689015
674,652.401563121331
675,652.4984484517531
676,652.5929929826427
677,652.6849084861927
678,652.7739135472989
679,652.8597352257838
680,652.9421107009615
681,653.0207888806914
682,653.0955319584982
683,653.1661169059231
684,653.232336890869
685,653.2940026145454
686,653.3509435597516
687,653.4030091420462
688,653.450069752685
689,653.492017678737
690,653.5287678836391
691,653.5602586321879
692,653.5864519467945
693,653.6073338849936
694,653.6229146313235
695,653.6332284000065
696,653.6383331474766
697,653.6383100946654
698,653.6332630589378
699,653.6233175969445
700,653.6086199633374
701,653.5893358945661
702,653.5656492296698
703,653.5377603812011
704,653.5058846705413
705,653.4702505433639
706,653.4310976828945
707,653.3886750411532
708,653.3432388113596
709,653.2950503671381
710,653.2443741950804
711,653.191475845947
712,653.136619926474
713,653.0800681496046
714,653.0220774572172
715,652.9628982265147
716,652.9027725694367
717,652.8419327344304
718,652.780599622185
719,652.718981430688
720,652.657272447714
721,652.595652007886
722,652.5342836261854
723,652.4733143126435
724,652.412874067192
725,652.3530755512598
726,652.2940139337845
727,652.2357669122312
728,652.1783949115691
729,652.1219414645896
730,652.0664337760834
731,652.011883472076
732,651.9582875332887
733,651.9056294087313
734,651.8538803009321
735,651.803000608534
736,651.7529415038296
737,651.7036466121613
738,651.655053748929
739,651.6070966616674
740,651.5597067226561
741,651.51281452307
742,651.4663513303971
743,651.4202503823277
744,651.3744480002451
745,651.328884514829
746,651.2835050057712
747,651.238259865033
748,651.1931051962744
749,651.1480030629439
750,651.1029215969871
751,651.0578349814183
752,651.0127233236838
753,650.9675724416282
754,650.9223735873347
755,650.8771231343158
756,650.8318222511219
757,650.7864765812083
758,650.7410959455262
759,650.6956940799604
760,650.6502884135681
761,650.6048998858644
762,650.5595527931913
763,650.5142746466876
764,650.4690960188059
765,650.4240503531157
766,650.3791737137547
767,650.3345044557042
768,650.2900828044283
769,650.2459503425983
770,650.2021494107196
771,650.1587224358814
772,650.1157112090957
773,650.0731561375321
774,650.0310955022129
775,649.9895647525918
776,649.9485958665684
777,649.9082167987465
778,649.8684510326462
779,649.8293172460976
780,649.7908290944814
781,649.7529951134605
782,649.7158187400078
783,649.6792984473216
784,649.643427986488
785,649.6081967264762
786,649.573590083667
787,649.5395900311993
788,649.5061756770805
789,649.4733238994564
790,649.4410100273869
791,649.4092085542917
792,649.3778938686454
793,649.3470409841019
794,649.3166262499924
795,649.2866280225179
796,649.2570272765898
797,649.2278081387246
798,649.1989583233258
799,649.1704694586393
800,649.1423372949369
801,649.1145617949076
802,649.0871471121771
803,649.0601014665883
804,649.0334369254538
805,649.007169100691
806,648.9813167736269
807,648.9559014617042
808,648.9309469426239
809,648.9064787499179
810,648.8825236498014
811,648.8591091050082
812,648.8362627301815
813,648.8140117461774
814,648.7923824455809
815,648.7713996858911
816,648.7510864282191
817,648.7314633378309
818,648.7125484593563
819,648.6943569751372
820,648.6769010508627
821,648.6601897684214
822,648.6442291418681
823,648.6290222099533
824,648.6145691990837
825,648.6008677525584
826,648.5879132229514
827,648.5756990242737
828,648.5642170404783
829,648.5534580868191
830,648.5434124185647
831,648.5340702769456
832,648.5254224569892
833,648.5174608785426
834,648.5101791409767
835,648.5035730427733
836,648.4976410483198
837,648.4923846857336
838,648.4878088623884
839,648.4839220898095
840,648.4807366161148
841,648.4782684700242
842,648.4765374233343
843,648.475566878414
844,648.4753836854178
845,648.4760178917859
846,648.4775024247416
847,648.479872707214
848,648.4831662099475
849,648.4874219464822
850,648.4926799215182
851,648.4989805463152
852,648.5063640367931
853,648.5148698096415
854,648.5245358886516
855,648.535398329369
856,648.5474906669878
857,648.5608433899786
858,648.5754834390553
859,648.5914337282503
860,648.6087126844077
861,648.6273338046775
862,648.6473052369981
863,648.6686293933325
864,648.6913026084331
865,648.7153148585766
866,648.7406495548854
867,648.7672834233159
868,648.7951864776003
869,648.8243220839734
870,648.8546471098527
871,648.8861121443434
872,648.9186617770571
873,648.9522349232271
874,648.9867651863127
875,649.0221812518907
876,649.0584073068464
877,649.0953634760183
878,649.1329662665016
879,649.1711290093757
880,649.2097622896299
881,649.2487743562363
882,649.2880715050101
883,649.3275584281163
884,649.3671385270828
885,649.4067141902822
886,649.4461870385983
887,649.4854581432342
888,649.52442821896
889,649.5629977963899
890,649.6010673774692
891,649.6385375775797
892,649.6753092555441
893,649.711283631072
894,649.7463623895088
895,649.7804477765519
896,649.8134426902096
897,649.8452507824001
898,649.8757765864514
899,649.9049256879841
900,649.9326049553408
901,649.958722843265
902,649.9831897807979
903,650.005918651011
904,650.0268253660656
905,650.0458295369738
906,650.0628552340623
907,650.0778318310803
908,650.09069492204
909,650.1013872948344
910,650.1098599403472
911,650.116073071716
912,650.1199971262008
913,650.1216137209537
914,650.1209165332734
915,650.1179120764804
916,650.1126203453165
917,650.1050753094178
