frame_number,force
0,631.6319000000613
1,631.5287315357451
2,631.426274027516
3,631.325209482726
4,631.2261943365733
5,631.129910297348
6,631.037156431957
7,630.9489597186852
8,630.8666683993004
9,630.7919829438866
10,630.7268819732288
11,630.6734256530267
12,630.6334639363637
13,630.6083184912486
14,630.5985187768538
15,630.6036517038667
16,630.6223535193483
17,630.65245217676
18,630.6912543272913
19,630.7359462141318
20,630.7840402362855
21,630.8337713106552
22,630.884353005957
23,630.9360402782897
24,630.9899905965469
25,631.0479495289342
26,631.111806437908
27,631.1830793422013
28,631.2624079146929
29,631.3491594491372
30,631.4412623243717
31,631.5353483832992
32,631.6272067668548
33,631.7124608979798
34,631.7873264946838
35,631.8493107575015
36,631.897744047804
37,631.9340613565557
38,631.9617712364721
39,631.98608411484
40,632.013225147152
41,632.0495166702791
42,632.1003648102385
43,632.1693088823026
44,632.2572856267484
45,632.3622301869526
46,632.4790920170809
47,632.6002890080346
48,632.716554383798
49,632.8180559011408
50,632.8956095069642
51,632.9417944162964
52,632.9518104456006
53,632.9239864306866
54,632.8599225193134
55,632.7643036255874
56,632.6444460367015
57,632.5096402061486
58,632.3703473880737
59,632.2373124125551
60,632.1206699899963
61,632.0291318078209
62,631.9693325347979
63,631.9453858952426
64,631.9586701607166
65,632.0078385346582
66,632.0890354004091
67,632.1962845756
68,632.3219979080308
69,632.4575473120402
70,632.5938617444712
71,632.7220357101623
72,632.8339418334596
73,632.9228236637813
74,632.9838229546162
75,633.0143827143467
76,633.0144663283655
77,632.9865409383783
78,632.9352925391748
79,632.8670813229883
80,632.7892066826024
81,632.7091017803072
82,632.6335856482493
83,632.5682696494521
84,632.517172773328
85,632.4825616204338
86,632.4649943336207
87,632.4635182015534
88,632.475959783646
89,632.4992540428121
90,632.5297773304513
91,632.5636738952705
92,632.5971864359847
93,632.627001218535
94,632.650596460219
95,632.6665568076943
96,632.6748025878486
97,632.676684993957
98,632.6749140518057
99,632.6733079657004
100,632.6763813761796
101,632.6888329450871
102,632.7150362503489
103,632.7586468267992
104,632.822394383655
105,632.9080572822527
106,633.0165560460578
107,633.1480742025581
108,633.3021230946788
109,633.4775144943918
110,633.6722747658913
111,633.8835857564843
112,634.1078355382772
113,634.3408098742532
114,634.577989199926
115,634.8148738619097
116,635.0472574248237
117,635.2713968669581
118,635.4840730600764
119,635.6825778185852
120,635.8646896533003
121,636.0286975987594
122,636.1734988690074
123,636.2987464402714
124,636.4049845012388
125,636.4937048947692
126,636.567286356772
127,636.6288190799701
128,636.681846663431
129,636.7300718036089
130,636.7770787188468
131,636.8261208541868
132,636.8799960306393
133,636.9409891590232
134,637.0108334455032
135,637.0906503269625
136,637.1808693251089
137,637.2811635306246
138,637.390435596805
139,637.5068637383414
140,637.6279977567818
141,637.7508968672001
142,637.8723165093008
143,637.9889583025438
144,638.097776096931
145,638.1962887247192
146,638.2828211243684
147,638.3566082867311
148,638.4177452959964
149,638.4670192985612
150,638.5056853029708
151,638.535243596349
152,638.5572640230018
153,638.5732973861492
154,638.5849026289418
155,638.5937791546452
156,638.601938305987
157,638.6118152744122
158,638.6262386675675
159,638.6482330940045
160,638.6806993721325
161,638.7260620990947
162,638.7859769574524
163,638.8611552166434
164,638.9513120352265
165,639.0552082632166
166,639.1707516470914
167,639.2951401279253
168,639.4250379117682
169,639.5567689150762
170,639.6865133528406
171,639.8105086791873
172,639.9252668312333
173,640.0278127411469
174,640.1159323970459
175,640.1884061640691
176,640.2452012069928
177,640.287600102125
178,640.3182387607197
179,640.3410175383995
180,640.3608564931461
181,640.3832991323163
182,640.4140056703804
183,640.4581930842318
184,640.5200860917516
185,640.602458976545
186,640.7063547763759
187,640.8310337090084
188,640.9741368669769
189,641.1320019651338
190,641.3000610922355
191,641.473264817914
192,641.6464860290873
193,641.8148672607131
194,641.974104343223
195,642.1206924846364
196,642.2521626549087
197,642.3672976665921
198,642.4662710733292
199,642.5506366507561
200,642.623124589285
201,642.6872595276112
202,642.7468773098813
203,642.8056472866856
204,642.8666865963996
205,642.9323025896881
206,643.0038581340968
207,643.0817379885799
208,643.1653929534006
209,643.253439562117
210,643.343790228779
211,643.4337818804038
212,643.520271552813
213,643.5996904824286
214,643.668089936918
215,643.7212431430247
216,643.7548588738185
217,643.7649141897715
218,643.7480616479003
219,643.702047407612
220,643.6260884250635
221,643.5211640246549
222,643.3901669080745
223,643.2378574776959
224,643.0705937099899
225,642.8958572911448
226,642.7216476513872
227,642.5558525185904
228,642.4057063087586
229,642.2774101391273
230,642.1759323125426
231,642.1049619436983
232,642.0669570900384
233,642.0632132659721
234,642.0938895485172
235,642.1579726556555
236,642.2532136826653
237,642.3761011592434
238,642.5219194897772
239,642.6849044305926
240,642.8584859861393
241,643.0356155401755
242,643.2091772816129
243,643.3724546555422
244,643.5195802323802
245,643.6458886562611
246,643.7481299800027
247,643.8245519155553
248,643.874888877307
249,643.9002946877428
250,643.9032343975372
251,643.8873251378233
252,643.8571046858641
253,643.8177167538839
254,643.774523204302
255,643.7326720133781
256,643.6966615789376
257,643.6699473221142
258,643.6546355597866
259,643.6513027139193
260,643.6589664451685
261,643.6752193977833
262,643.6965145514774
263,643.7185667908783
264,643.7368186001469
265,643.7469161226645
266,643.7451489398821
267,643.7288122025161
268,643.6964545986813
269,643.6479872140026
270,643.5846433995794
271,643.5087925821022
272,643.423627645476
273,643.3327710421107
274,643.2398661938141
275,643.1482208960106
276,643.0605486936676
277,642.9788261391038
278,642.9042592189768
279,642.8373364480425
280,642.7779403133767
281,642.7254869877083
282,642.6790621968278
283,642.6375234151624
284,642.5995464101991
285,642.5636021368283
286,642.5278613176939
287,642.4900474939178
288,642.4472891636594
289,642.3960393803816
290,642.3321263994334
291,642.2509753474939
292,642.1480059769423
293,642.0191736085864
294,641.8615903179616
295,641.6741454588861
296,641.4580315723149
297,641.2170721797831
298,640.9577563663804
299,640.6889231935297
300,640.4210996663445
301,640.1655628250776
302,639.9332542277837
303,639.7337056216447
304,639.5741227745483
305,639.4587253308758
306,639.3883805138909
307,639.3605253494155
308,639.369358063145
309,639.4062865292614
310,639.4606259719513
311,639.520515285454
312,639.5739712903955
313,639.6099530381448
314,639.6192978426885
315,639.5954232573853
316,639.534740897929
317,639.4367709972171
318,639.303972426581
319,639.141320535774
320,638.9556826802817
321,638.7550585832031
322,638.5477667238791
323,638.3416647516012
324,638.1434878443007
325,637.9583736381901
326,637.7896142944182
327,637.6386358535128
328,637.5051676311525
329,637.387548053309
330,637.2831128515858
331,637.188610407621
332,637.1005902109554
333,637.0157298602184
334,636.9311013973122
335,636.8444040272458
336,636.7541882752877
337,636.6600741952736
338,636.5629454864694
339,636.4650889847338
340,636.3702304242859
341,636.2833892283925
342,636.210467485931
343,636.1575328032017
344,636.1298444628632
345,636.1307707202228
346,636.160813121262
347,636.2169616711305
348,636.2925469590142
349,636.3776588869019
350,636.4600996572169
351,636.5267445027845
352,636.5651037888858
353,636.5648336168401
354,636.5189501904546
355,636.424569261949
356,636.2830966159681
357,636.0999064970629
358,635.8836300799275
359,635.645211823171
360,635.396872050882
361,635.1510644871128
362,634.9194803963098
363,634.7121454702414
364,634.5366655564518
365,634.3976830687045
366,634.2966002661421
367,634.231602996666
368,634.1979809281812
369,634.1887078115785
370,634.1952315865603
371,634.2084129182779
372,634.2195235392315
373,634.2211860570335
374,634.2081304776974
375,634.1776616184248
376,634.1297640829808
377,634.066820759204
378,633.9929932797052
379,633.9133883434881
380,633.8331764441243
381,633.7568232166257
382,633.687548457926
383,633.6270642506063
384,633.5755815129692
385,633.5320284341599
386,633.4944017154113
387,633.460172637863
388,633.4266884374086
389,633.3915339697924
390,633.3528380268176
391,633.3095172592808
392,633.2614507571872
393,633.2095763440478
394,633.1558990554277
395,633.1034023091904
396,633.0558513152047
397,633.0174787134966
398,632.9925554491331
399,632.9848853118909
400,632.9973044604365
401,633.0312831634894
402,633.0867023406099
403,633.1618326514557
404,633.2535012001805
405,633.3573980079343
406,633.46845704653
407,633.581246947987
408,633.6903135012316
409,633.7904240562557
410,633.8766877291446
411,633.9445715915579
412,633.9898766490783
413,634.0087499513777
414,633.9977902316165
415,633.9542687893775
416,633.8764457534077
417,633.763925340282
418,633.6179739035601
419,633.4417226438561
420,633.2401869374221
421,633.0200593982029
422,632.7892819373791
423,632.5564617157096
424,632.3302330889389
425,632.1186580682677
426,631.9287128463243
427,631.7658635928391
428,631.6337196586521
429,631.5337665614675
430,631.4652010566703
431,631.4248942251673
432,631.4074970883033
433,631.405694912939
434,631.4106169729698
435,631.4124023353531
436,631.4008995053044
437,631.3664513053923
438,631.3007004732553
439,631.1973464711847
440,631.0527856973989
441,630.8665718495753
442,630.6416357792276
443,630.384207170674
444,630.1033972527696
445,629.810444161199
446,629.5176860378808
447,629.2373890165188
448,628.9805894701293
449,628.7561004891035
450,628.5697967395885
451,628.4242500434382
452,628.3187427229133
453,628.2496318120467
454,628.2109827815196
455,628.195357813113
456,628.1946453106542
457,628.2008429724051
458,628.2067314426382
459,628.2063918868172
460,628.1955386964707
461,628.171659287401
462,628.1339687639145
463,628.0831991888633
464,628.0212591666958
465,627.9508196345033
466,627.8748972742394
467,627.7965064153464
468,627.718426680831
469,627.6430910577953
470,627.5725530099752
471,627.5084645219171
472,627.4520119440951
473,627.4038123860635
474,627.3638312746972
475,627.3313942124489
476,627.3053241518791
477,627.2841734671472
478,627.2664843471402
479,627.2510164457407
480,627.2369097173797
481,627.2237755957204
482,627.2117194833755
483,627.201296621416
484,627.1934001711326
485,627.1890799056212
486,627.1892985688024
487,627.1946568300937
488,627.2051467606337
489,627.2200007942794
490,627.2376743412045
491,627.2559561815228
492,627.2721745922232
493,627.2834655257719
494,627.2870685862019
495,627.2806026379902
496,627.2622651514919
497,627.2309202152172
498,627.1860780005662
499,627.1277961986622
500,627.0565453696005
501,626.9730842726208
502,626.878386634659
503,626.773638149763
504,626.6602865004809
505,626.54010059733
506,626.4151972681327
507,626.2880193936533
508,626.1612743738893
509,626.0378452572254
510,625.9206709892286
511,625.8125778612205
512,625.7160498658754
513,625.6329528878923
514,625.5642621189169
515,625.5098612406755
516,625.4684708896325
517,625.4377303675051
518,625.4144200811877
519,625.394784224427
520,625.3748985986189
521,625.3510300444372
522,625.3199438901046
523,625.2791216797843
524,625.2268572314506
525,625.1622201291284
526,625.0849113242409
527,624.9950653581152
528,624.8930607876779
529,624.7793850154862
530,624.6545754038606
531,624.5192393844702
532,624.3741453642006
533,624.2203660978327
534,624.0594427087176
535,623.8935291921356
536,623.7254820315185
537,623.5588694556959
538,623.3978803156493
539,623.2471228838538
540,623.111331979349
541,622.9950370518013
542,622.9022527292425
543,622.8362224419303
544,622.7992044312595
545,622.7922839384045
546,622.8152307706035
547,622.8664543224761
548,622.9431010991402
549,623.0412978307351
550,623.1564972629667
551,623.2838608147745
552,623.4186172870507
553,623.5563527966838
554,623.693201373367
555,623.8259244443612
556,623.9518947761809
557,624.0690225821236
558,624.1756655685207
559,624.2705564753389
560,624.3527719199495
561,624.4217525509479
562,624.4773626215667
563,624.5199583895542
564,624.5504321408731
565,624.570208761115
566,624.5811851142377
567,624.585617740724
568,624.585982503001
569,624.5848428010859
570,624.5847562336188
571,624.5882183624083
572,624.5976059941248
573,624.6150712030104
574,624.642362941585
575,624.680603679516
576,624.7300976780931
577,624.7902596828579
578,624.859709397439
579,624.9365043841381
580,625.0184301586978
581,625.10325578992
582,625.188890292914
583,625.2734223793178
584,625.3550735919054
585,625.4321224640153
586,625.5028575844568
587,625.5656004317182
588,625.6188181413181
589,625.6613252624073
590,625.6925486978575
591,625.7128026364197
592,625.7234993038836
593,625.7272194006697
594,625.7275943481521
595,625.7290093584132
596,625.7361945911689
597,625.7537918807523
598,625.7859567595377
599,625.8360144785944
600,625.9061736372146
601,625.9973137498505
602,626.1088753743568
603,626.2388698713571
604,626.3839957085008
605,626.5398285812291
606,626.7010615473106
607,626.8617922703253
608,627.0158630487803
609,627.1572546396623
610,627.280525385068
611,627.3812732832347
612,627.4565837949644
613,627.5054171486703
614,627.5288808805133
615,627.5303200543838
616,627.5151533020188
617,627.4904114421875
618,627.4640016739814
619,627.4438013287645
620,627.4367437145598
621,627.4480656979179
622,627.4808418497092
623,627.5358579873825
624,627.6118033591601
625,627.7057010023741
626,627.8134638805236
627,627.9304697694414
628,628.0520801207491
629,628.1740614653386
630,628.292888471621
631,628.4059253429805
632,628.5115077184568
633,628.6089699083866
634,628.6986593348012
635,628.7819441147972
636,628.8611729930944
637,628.9395262820759
638,629.0207225754235
639,629.1086046147767
640,629.206680926041
641,629.3177158026831
642,629.4434367416594
643,629.5843886103099
644,629.7399302225245
645,629.9083486678707
646,630.0870573058314
647,630.2728407006475
648,630.4621103771717
649,630.6511415467565
650,630.8362781486619
651,631.0141149601383
652,631.1816765433513
653,631.3366099837715
654,631.4773957502152
655,631.603558939761
656,631.7158384357164
657,631.8162608408526
658,631.9080781986142
659,631.9955565812944
660,632.0836343286494
661,632.1774916279794
662,632.282077755298
663,632.401634793919
664,632.5392564853564
665,632.6965331713411
666,632.8733394830118
667,633.0678033263525
668,633.2764590350997
669,633.4945551623075
670,633.7164715624513
671,633.9361980188277
672,634.1478283815552
673,634.3460242509606
674,634.5264002602621
675,634.6857897508314
676,634.8223809172281
677,634.9357603363766
678,635.0269237730581
679,635.0982864293081
680,635.1536629307037
681,635.1981317887777
682,635.2376855746134
683,635.278616867393
684,635.3266937724918
685,635.3862908176044
686,635.4596966129494
687,635.5467854804969
688,635.6451379524083
689,635.750572877224
690,635.8579528227831
691,635.9620725677821
692,636.0584501601045
693,636.1438982016614
694,636.21682539718
695,636.277272190839
696,636.3267115634385
697,636.3676616583263
698,636.4031725170338
699,636.4362612483858
700,636.4693709629253
701,636.503916675701
702,636.5399608830637
703,636.5760431623019
704,636.6091789571855
705,636.6350355522444
706,636.6482753287455
707,636.6430318044119
708,636.6134727313618
709,636.5544122757767
710,636.4619378668773
711,636.3339931681378
712,636.170819193984
713,635.975143123082
714,635.7520454495233
715,635.5085132903429
716,635.2527592890879
717,634.9934216743725
718,634.7387597481502
719,634.4959402842032
720,634.2704908571085
721,634.0659708180922
722,633.8838727090791
723,633.7237334915785
724,633.5834227657513
725,633.4595686412471
726,633.3480578987625
727,633.2445159828142
728,633.1446708002181
729,633.0445523993266
730,632.9405563076591
731,632.8294534388888
732,632.708430462706
733,632.5751969960345
734,632.4281340886365
735,632.2664175999818
736,632.0900494645698
737,631.8997698758951
738,631.6968827046193
739,631.4830655402537
740,631.2602262023632
741,631.0304204661353
742,630.7958006497546
743,630.5585530657638
744,630.320803235641
745,630.0844978585071
746,629.851296245388
747,629.6225187235314
748,629.3991947570992
749,629.1822160469984
750,628.9725432420365
751,628.7713746251121
752,628.5801849710724
753,628.400583409748
754,628.2340069691572
755,628.0813356601011
756,627.9425532958205
757,627.8165670608969
758,627.7012464509091
759,627.593674929261
760,627.490550493921
761,627.3886394400429
762,627.2851892268667
763,627.1782409984493
764,627.066833617294
765,626.9511294542175
766,626.8324899773212
767,626.7134852765817
768,626.5977777789939
769,626.4898305212345
770,626.3944587909033
771,626.3163150750272
772,626.2594158243301
773,626.2267810220632
774,626.2201997050228
775,626.2400905628148
776,626.2854135870075
777,626.3536102334626
778,626.4405909595831
779,626.5408213179837
780,626.6475632477141
781,626.7533094476395
782,626.8504127762758
783,626.931863329429
784,626.9921125735013
785,627.0278053375931
786,627.0382743229717
787,627.0256838534754
788,626.9947730304706
789,626.9522283353265
790,626.9057935181664
791,626.8632811042798
792,626.8316667551888
793,626.8164168004596
794,626.8211339026153
795,626.8475334632864
796,626.8957038438048
797,626.9645625421183
798,627.0524002663336
799,627.1574066895711
800,627.2780907818444
801,627.4135366031315
802,627.5634638020751
803,627.7280834465158
804,627.9077589071395
805,628.1025173455929
806,628.311515836222
807,628.5326158464019
808,628.7622142694913
809,628.9954067016042
810,629.2264565983736
811,629.4494621902385
812,629.6590777615023
813,629.8511573070351
814,630.0232305260175
815,630.174768424485
816,630.3072301510703
817,630.4239066784812
818,630.529601702701
819,630.6302104271551
820,630.7322539572432
821,630.8423982550706
822,630.9669572603772
823,631.1113782516716
824,631.2797367615462
825,631.4743040651301
826,631.6952612143134
827,631.9406062981604
828,632.2062529253199
829,632.4862832147998
830,632.7733207428557
831,633.0590154388973
832,633.3346473234709
833,633.5918372870151
834,633.8233124119309
835,634.0236374489506
836,634.1898105131614
837,634.3216338275661
838,634.4218026811523
839,634.4956919847656
840,634.5508493962344
841,634.5962362123828
842,634.6413047651744
843,634.6950492091114
844,634.76518023593
845,634.8575409429446
846,634.9758226770248
847,635.1215751520845
848,635.2944393190295
849,635.4924867237221
850,635.7125577291309
851,635.9505467180102
852,636.2016416858925
853,636.4605573099141
854,636.7218030274796
855,636.9800093982916
856,637.2303072731312
857,637.4687268574282
858,637.6925639733645
859,637.9006502962523
860,638.0934671752597
861,638.2730640318748
862,638.442781637374
863,638.6068259799468
864,638.7697696337174
865,638.9360599698157
866,639.1095901799696
867,639.2933580530912
868,639.4892183233059
869,639.6977315677842
870,639.9181127997801
871,640.1482736121275
872,640.3849378279677
873,640.6238081331588
874,640.8597772150971
875,641.0871983322
876,641.3002340873088
877,641.4932787231833
878,641.6614119966368
879,641.8008161243602
880,641.9090886484832
881,641.9854120152348
882,642.0305742462165
883,642.0468535089326
884,642.037786431689
885,642.007850424832
886,641.9620991604147
887,641.9057831311158
888,641.8439679283871
889,641.781150491831
890,641.7208817812226
891,641.6654323153258
892,641.6155683864016
893,641.5705172487441
894,641.5281730490117
895,641.4855352439236
896,641.4393016288236
897,641.3864909139846
898,641.3249642258955
899,641.2537478797949
900,641.173116314817
901,641.0844557979618
902,640.9899749776544
903,640.8923460026532
904,640.7943587265794
905,640.6986601242824
906,640.6076231533789
907,640.5233387291155
908,640.4476732777017
909,640.3823157879525
910,640.3287619811853
911,640.2882228445178
912,640.2614658840214
913,640.2486001038449
914,640.2488325418697
915,640.2602666481107
916,640.279844233302
917,640.3035121611622
