frame_number,force
0,595.9349300000359
1,596.3601425978326
2,596.7694557665034
3,597.1485893446938
4,597.4862236420938
5,597.7748602752234
6,598.0111262083396
7,598.1955709107268
8,598.3320844198033
9,598.4270795744595
10,598.4885607411667
11,598.5251807860433
12,598.5453802382375
13,598.5566885779077
14,598.5652315729277
15,598.5754467328494
16,598.5899875070525
17,598.6097991948078
18,598.6343561726651
19,598.6620382686856
20,598.6905910579779
21,598.7175856691427
22,598.7407950152486
23,598.7584350325542
24,598.7692628740144
25,598.7725622029811
26,598.7680671465556
27,598.7558743979304
28,598.7363701565239
29,598.7101663635881
30,598.6780131092464
31,598.6406463287784
32,598.5985565358593
33,598.5517243140692
34,598.4994289329981
35,598.4402518340524
36,598.3723493593487
37,598.2939805281846
38,598.2041818605005
39,598.1034156311506
40,597.9940067440547
41,597.8802320188067
42,597.7680120849244
43,597.6642495408892
44,597.575935159808
45,597.5091903741472
46,597.4684161502933
47,597.4556751905611
48,597.4703687098404
49,597.5092164246099
50,597.566524356676
51,597.6347112806887
52,597.7050384164276
53,597.7684531316735
54,597.8164428641684
55,597.8418152808159
56,597.8393569586892
57,597.8063436683884
58,597.7428703191322
59,597.6519573342041
60,597.5393967200098
61,597.4133274015439
62,597.2835600423185
63,597.1606970590736
64,597.0551140514937
65,596.9758853712993
66,596.9297548526084
67,596.920277722117
68,596.9472764054199
69,597.0067362779786
70,597.0912109202715
71,597.1907229195702
72,597.2940517502132
73,597.3902148400759
74,597.469900740617
75,597.526628118851
76,597.557476074197
77,597.5633246215107
78,597.5486211616779
79,597.5207352264299
80,597.4889884966773
81,597.4634656702938
82,597.4537329108099
83,597.467610209993
84,597.5101497976447
85,597.5829558863005
86,597.68394291913
87,597.8075757035293
88,597.9455661075838
89,598.0879218294798
90,598.2241769635913
91,598.3446122226122
92,598.4413000247016
93,598.5088621999954
94,598.5448816018385
95,598.5499581180361
96,598.5274449328917
97,598.4829319882068
98,598.423550289951
99,598.3571645001085
100,598.2915267791145
101,598.233486381963
102,598.1883610543845
103,598.1595525485462
104,598.1484351531448
105,598.1544916582036
106,598.175637710094
107,598.2086636759323
108,598.2497232721253
109,598.2948076618794
110,598.3401646642858
111,598.382645681882
112,598.4199713299685
113,598.4509028962659
114,598.4753102387236
115,598.4941410961804
116,598.5093048163037
117,598.5234773033434
118,598.5398245158246
119,598.5616400914683
120,598.5919009918159
121,598.6327648966567
122,598.6850660804835
123,598.747903428553
124,598.8184320275678
125,598.8919495193767
126,598.9623121155346
127,599.022639176148
128,599.0661893622563
129,599.0872405149695
130,599.0818040725858
131,599.0480548319513
132,598.9864295578093
133,598.8994115574709
134,598.7910659154966
135,598.6664277230019
136,598.5308649038636
137,598.3895223810275
138,598.2469133758422
139,598.1066859849128
140,597.9715710277087
141,597.8434944941108
142,597.7238037584825
143,597.6135263086082
144,597.5135780455824
145,597.4248729151476
146,597.3483351685456
147,597.2848465767562
148,597.2351614669888
149,597.1998083849284
150,597.1789864011502
151,597.1724598987007
152,597.1794555685491
153,597.1985699530317
154,597.2277064217213
155,597.2640734180209
156,597.3042793735866
157,597.3445400503316
158,597.3809732721273
159,597.409918699077
160,597.4282160316637
161,597.433409228069
162,597.4238852593813
163,597.3989643642909
164,597.3589364184193
165,597.3050249692952
166,597.2392758339068
167,597.1643840041017
168,597.0834690974866
169,596.9998072459508
170,596.9165505837116
171,596.8364955356503
172,596.7619587461378
173,596.69477560072
174,596.63638081004
175,596.5879010671757
176,596.5502015042645
177,596.5238673713264
178,596.5091422607634
179,596.5058629454577
180,596.5134272099219
181,596.5308186598446
182,596.5567040375515
183,596.5896137388108
184,596.6282027790662
185,596.6715599194553
186,596.7194982119312
187,596.7727410438315
188,596.8329258295412
189,596.9023824617277
190,596.9836956490036
191,597.0791164522844
192,597.1899401947027
193,597.3160021707045
194,597.4554306822679
195,597.6047222722885
196,597.7590969699492
197,597.9130099355472
198,598.0606753315743
199,598.1964931320739
200,598.3153312446473
201,598.4126757067603
202,598.4847068784928
203,598.5283826153603
204,598.5415987070974
205,598.5234474940145
206,598.4745288859864
207,598.3972201561565
208,598.2958001355474
209,598.1763430586548
210,598.0463370482072
211,597.914037101474
212,597.7876223848295
213,597.6742774246625
214,597.57934633753
215,597.5057154459737
216,597.4535590870922
217,597.4205269572657
218,597.4023551877627
219,597.3937728173477
220,597.3895013035794
221,597.3851412118338
222,597.3777939894968
223,597.3663378037506
224,597.3513390578455
225,597.3346363256477
226,597.318690931067
227,597.3058562365796
228,597.2977525203831
229,597.2949134271968
230,597.2967864696936
231,597.3020626448609
232,597.3092291724425
233,597.3171984986632
234,597.3258525705073
235,597.3363562419547
236,597.351151904534
237,597.3736344810604
238,597.4075788390606
239,597.4564260029565
240,597.5225445714336
241,597.6065897410529
242,597.7070787060889
243,597.8202702038767
244,597.9403794705288
245,598.0600997358523
246,598.1713549935528
247,598.2661808461245
248,598.3376209965933
249,598.380532680418
250,598.3922064664278
251,598.3727197765462
252,598.3249656391171
253,598.2543397745366
254,598.1681270672157
255,598.0746794813253
256,597.9825021902313
257,597.8993668386303
258,597.8315622336214
259,597.7833737507427
260,597.756845642645
261,597.751826300121
262,597.7662441456872
263,597.7965330977729
264,597.8381243812015
265,597.885933659107
266,597.9347908894259
267,597.9797815725404
268,598.0164841840351
269,598.0410974783624
270,598.0504677528671
271,598.0420592665303
272,598.0139398577954
273,597.964845093649
274,597.894331487573
275,597.8029653851008
276,597.6924622774318
277,597.5657065249554
278,597.426626862841
279,597.2799531778787
280,597.130913230428
281,596.9849296622909
282,596.847351844539
283,596.7232284146252
284,596.6171146935678
285,596.5329087491083
286,596.4737042964186
287,596.4416387756471
288,596.4377178896025
289,596.4616229320882
290,596.511544450812
291,596.5841142572384
292,596.6745081531508
293,596.7767585611782
294,596.8842629028082
295,596.9904206347402
296,597.0892959553204
297,597.1761955189354
298,597.2480706292505
299,597.3036883896807
300,597.3435571842606
301,597.369638273147
302,597.384917215505
303,597.3929242903079
304,597.3972738496225
305,597.4012582172547
306,597.4075104900186
307,597.4177512605025
308,597.4326417205825
309,597.4517628468252
310,597.4737288211347
311,597.4964341167722
312,597.5174268240039
313,597.5343790790394
314,597.5455814864156
315,597.5503473803076
316,597.5492148950132
317,597.5438898651072
318,597.5369491577137
319,597.5313857191921
320,597.5301074262488
321,597.5354999659659
322,597.5491347203354
323,597.5716590378865
324,597.6028637935797
325,597.6418915892556
326,597.6875314885891
327,597.7385410759716
328,597.7939379567742
329,597.8532067809022
330,597.9163790596665
331,597.9839670340914
332,598.056766099946
333,598.1355741114783
334,598.2209035655591
335,598.3127757027229
336,598.4106711171705
337,598.5136643957153
338,598.6207047309917
339,598.7309474871059
340,598.8440178154709
341,598.9601059260783
342,599.0798445243826
343,599.2039835439746
344,599.3329394811924
345,599.4663379389395
346,599.6026706080323
347,599.7391565137111
348,599.8718557440809
349,599.9960398661216
350,600.1067665761435
351,600.1995469935978
352,600.2709670516252
353,600.3191474848948
354,600.3439822954991
355,600.3471519218555
356,600.3319415714607
357,600.3029015581543
358,600.265380617356
359,600.2249692221025
360,600.1869129908893
361,600.1555753127939
362,600.134021542285
363,600.1237675440033
364,600.1247060656549
365,600.135209613953
366,600.1523974801096
367,600.1725322065498
368,600.1914846672977
369,600.2051973793218
370,600.2100862548863
371,600.203339881104
372,600.1831004212825
373,600.1485469483684
374,600.099937056989
375,600.0386652604626
376,599.9673538941928
377,599.8899273839419
378,599.8115762013896
379,599.7385242491528
380,599.6775730293236
381,599.6354746594113
382,599.6182397544384
383,599.6304944571071
384,599.6749755651745
385,599.7522160877523
386,599.8604389334708
387,599.995651416367
388,600.1519198414
389,600.3217918042358
390,600.4968177116764
391,600.6681174755802
392,600.8269579444898
393,600.9653337296963
394,601.0765465046512
395,601.1557504174181
396,601.2003973174332
397,601.2104994679211
398,601.1886414403308
399,601.139716790812
400,601.0704238955273
401,600.9886025777937
402,600.9025105929079
403,600.8201324592313
404,600.7485978577802
405,600.6937617689716
406,600.6599552866436
407,600.64987045118
408,600.6645267990555
409,600.7032879315876
410,600.7639277082284
411,600.8427672123769
412,600.934912860248
413,601.034618887063
414,601.1357692549918
415,601.2324385341767
416,601.3194712611416
417,601.3930153013804
418,601.4509362086166
419,601.4930248967453
420,601.5209241363492
421,601.5377630916284
422,601.5475706346372
423,601.5545874294555
424,601.5626085483514
425,601.5744841278797
426,601.5918776237237
427,601.6153100165399
428,601.6444291664048
429,601.6783916974856
430,601.7162486018719
431,601.7572539214199
432,601.8010383496916
433,601.847608861349
434,601.8971646079879
435,601.9497564251906
436,602.0048551439713
437,602.0609331380595
438,602.1151948737581
439,602.1635842598388
440,602.201130131242
441,602.2225933594036
442,602.2232987025177
443,602.1999954259244
444,602.1515864094016
445,602.0795860448037
446,601.98821293275
447,601.8840920585968
448,601.7756156153413
449,601.6720686227466
450,601.582652716925
451,601.5155404685264
452,601.4770698274857
453,601.4711527946697
454,601.4989394314058
455,601.558759736563
456,601.6463520046805
457,601.7553544259383
458,601.8779849307252
459,602.0057924859084
460,602.130366369193
461,602.2439418801528
462,602.3399014773954
463,602.4131908378748
464,602.4606425060592
465,602.4811616493228
466,602.4757150060133
467,602.4470845799557
468,602.3993939566527
469,602.3374751100957
470,602.2661972428575
471,602.1898967900188
472,602.1120121939874
473,602.0349597139902
474,601.9602299158222
475,601.8886572056665
476,601.8208024466202
477,601.7573760171721
478,601.6996176041314
479,601.6495468521147
480,601.6100083182703
481,601.5844591066428
482,601.5764949931398
483,601.5891761610928
484,601.6242753853948
485,601.6816080061009
486,601.7586046049123
487,601.850251138392
488,601.949450277857
489,602.0477673088685
490,602.1364384748283
491,602.2074603265617
492,602.2545606915266
493,602.2738830181963
494,602.2642859970506
495,602.2272418970382
496,602.1663842010925
497,602.0868001284248
498,601.9941941362008
499,601.8940688375252
500,601.7910658896805
501,601.6885644031719
502,601.5885587719661
503,601.4917652439384
504,601.3978634498554
505,601.3057738076155
506,601.2138987939884
507,601.120298177855
508,601.0228075637924
509,600.9191365340589
510,600.8069887034271
511,600.6842266480783
512,600.5490731300692
513,600.4003176182049
514,600.23749328038
515,600.0609996572116
516,599.8721580495107
517,599.6731911414288
518,599.4671198264524
519,599.257578196226
520,599.048560791475
521,598.844126097605
522,598.6480845358064
523,598.4637001164776
524,598.2934343468388
525,598.1387633996961
526,598.0001054731753
527,597.8768888204266
528,597.7677577263105
529,597.6708714826948
530,597.5842330758821
531,597.5059943490604
532,597.4347022487188
533,597.369466551713
534,597.3100469335513
535,597.2568735581644
536,597.2110207648972
537,597.174142240504
538,597.148351589149
539,597.1360085411129
540,597.1393706598618
541,597.1601123251043
542,597.1987900587669
543,597.2544001446728
544,597.3241772367718
545,597.4037128185917
546,597.4873749605364
547,597.5689394491358
548,597.6423164847014
549,597.7022576044355
550,597.7449286169988
551,597.7682400539536
552,597.7718641286423
553,597.7569431947112
554,597.725578326015
555,597.6802404339786
556,597.6232551542072
557,597.556480374395
558,597.4812330989605
559,597.3984481272207
560,597.3089868562216
561,597.2139777358317
562,597.1150699511851
563,597.0145214800785
564,596.9151086579672
565,596.8199063842729
566,596.7320195983235
567,596.6543400340408
568,596.5893667469539
569,596.5390880419235
570,596.504901694141
571,596.4875531669746
572,596.4870773072764
573,596.5027229115161
574,596.5328371060787
575,596.5747145427151
576,596.6244681191907
577,596.6770108098955
578,596.7262249594372
579,596.7653488318063
580,596.7875545684159
581,596.7866387305505
582,596.7577048502302
583,596.6977052113853
584,596.6057426671345
585,596.4831013873749
586,596.3330406181624
587,596.1604205120981
588,595.9712380235684
589,595.7721476977748
590,595.570026356699
591,595.3716058495643
592,595.1831553052825
593,595.010175458243
594,594.8570941899256
595,594.727002154752
596,594.6214910554966
597,594.5406344845901
598,594.4831103953317
599,594.4464415050569
600,594.4273288930193
601,594.4220529516039
602,594.4269002402588
603,594.4385526446109
604,594.454366659407
605,594.4724890569444
606,594.4917974312177
607,594.5117029159211
608,594.5318845584293
609,594.5520254544053
610,594.571597725947
611,594.5897196029881
612,594.6050970258924
613,594.6160594943724
614,594.6206915441816
615,594.6170401546412
616,594.6033536907449
617,594.5782987865658
618,594.5411199710102
619,594.4917439197138
620,594.4308574927331
621,594.3599806796765
622,594.2815168241984
623,594.1987275747022
624,594.1155798167756
625,594.0364448792202
626,593.9656747912619
627,593.9071211430914
628,593.8636877475636
629,593.8370024585422
630,593.8272555017317
631,593.8332077067712
632,593.8523470149299
633,593.8811659261632
634,593.9155322111164
635,593.9511206521321
636,593.9838656186772
637,594.0103885110159
638,594.0283545541758
639,594.0367223473163
640,594.0358634946621
641,594.0275372044105
642,594.0147028609244
643,594.0011588354619
644,593.991024997288
645,593.9881331283406
646,593.9954284832603
647,594.0144924987763
648,594.0452616698601
649,594.0859578261218
650,594.1332002523974
651,594.182264958679
652,594.2274699808818
653,594.2626623092702
654,594.2817589058878
655,594.2792745828544
656,594.2507699556705
657,594.1931772470724
658,594.1050067919429
659,593.9864802626598
660,593.8396387753526
661,593.668421410815
662,593.478643976558
663,593.2777877873175
664,593.0745491233616
665,592.8781693982987
666,592.6976245994866
667,592.5407811901754
668,592.4136254088049
669,592.3196548728798
670,592.2594980867166
671,592.2308089115966
672,592.2284708799823
673,592.2451271527522
674,592.2720105299942
675,592.2999891106634
676,592.3206890519093
677,592.3275232747573
678,592.3164514072773
679,592.286332006766
680,592.2388085439408
681,592.1777730009184
682,592.1085311912444
683,592.0368273994001
684,591.9678852913845
685,591.9056079387869
686,591.8520541274701
687,591.8072648284204
688,591.7694565194221
689,591.735538399296
690,591.7018589957302
691,591.6650509127242
692,591.6228237447613
693,591.5745582700323
694,591.5215881361745
695,591.4671215982179
696,591.4158361413658
697,591.3732380083006
698,591.3448991807047
699,591.3356795396404
700,591.3490322468041
701,591.3864811932134
702,591.4473447977176
703,591.528754848951
704,591.6259790770597
705,591.7330013137558
706,591.8432548450631
707,591.950371453394
708,592.048825948211
709,592.1344140047036
710,592.2045589458925
711,592.258466543195
712,592.2971356313245
713,592.3232157433466
714,592.3407109714552
715,592.3545607265113
716,592.3701541275366
717,592.3928366463742
718,592.4274563371803
719,592.4779866218923
720,592.547246728738
721,592.6367147120551
722,592.7464117150008
723,592.8748502493501
724,593.0190706119246
725,593.1748038925681
726,593.3367824837416
727,593.499184866302
728,593.6561689919783
729,593.8024220829892
730,593.9336395175746
731,594.046857599646
732,594.1406092081107
733,594.214922672446
734,594.2712101853867
735,594.3120893261366
736,594.3411717517573
737,594.3628455598223
738,594.3820586767638
739,594.4040789360313
740,594.434190339712
741,594.4773065259496
742,594.5375273400299
743,594.6177002100493
744,594.719057001243
745,594.840984112166
746,594.9809641241147
747,595.1347107748536
748,595.2965052685756
749,595.4597287463915
750,595.6175654210153
751,595.7638077529011
752,595.8936332086884
753,596.0041863669394
754,596.0948346120584
755,596.1670570094178
756,596.2240173067439
757,596.2699249958183
758,596.3093070030823
759,596.3463167069442
760,596.3842020429124
761,596.4250280041607
762,596.4696907784257
763,596.5181823378658
764,596.5699974214125
765,596.6245508960337
766,596.6814963863941
767,596.7408831576251
768,596.8031360636816
769,596.8688872467231
770,596.9387215193121
771,597.0129065933241
772,597.0911637734214
773,597.1725146418629
774,597.2552317326779
775,597.3369155894015
776,597.4146958023529
777,597.4855158556658
778,597.5464414079645
779,597.5949440117877
780,597.6291412324945
781,597.6479944074823
782,597.6514663401938
783,597.640632308761
784,597.6177329906632
785,597.5861573756262
786,597.5503378658502
787,597.515531582445
788,597.4874703656498
789,597.4718960726224
790,597.474037114509
791,597.498095066033
792,597.5467909856826
793,597.6209975901245
794,597.7194816878427
795,597.8387950257445
796,597.9733547642109
797,598.1157351728186
798,598.257166151197
799,598.3882228475243
800,598.4996855166137
801,598.5835213944056
802,598.6338879017604
803,598.6480102582193
804,598.6267732834905
805,598.574889791813
806,598.5005646336426
807,598.4146637505304
808,598.3295019964991
809,598.2574390969556
810,598.2094891986414
811,598.1941182911075
812,598.2163601165831
813,598.2773397165686
814,598.3742455558166
815,598.5007330202499
816,598.6476890906372
817,598.804257491599
818,598.9590148327668
819,599.1011810857307
820,599.2217287637789
821,599.314242682149
822,599.3754075736443
823,599.4050661827558
824,599.4058669400782
825,599.3825870255954
826,599.3412740636975
827,599.2883901445917
828,599.2301346519422
829,599.1720486392387
830,599.1188920741932
831,599.0746967698142
832,599.0428755671284
833,599.0263051701232
834,599.0273502729051
835,599.0478252407696
836,599.0889016638547
837,599.150983061615
838,599.2335789852507
839,599.3352104054882
840,599.4533715845104
841,599.5845664319424
842,599.7244253533697
843,599.8678934014637
844,600.0094731107201
845,600.1435060571478
846,600.2644747743564
847,600.3673023291258
848,600.4476344401958
849,600.5021058882365
850,600.5285952207885
851,600.5264465727471
852,600.496603842224
853,600.4415953256309
854,600.3653434298926
855,600.2728338440952
856,600.1697194318925
857,600.0619304500873
858,599.9553244806216
859,599.8553682274597
860,599.7668269563981
861,599.6934530209622
862,599.6376979499846
863,599.6005007057275
864,599.5812115720561
865,599.5776896570853
866,599.5865675181577
867,599.6036276666558
868,599.6242060568287
869,599.6435435079997
870,599.6570477904428
871,599.6604865910614
872,599.6501718631249
873,599.623193956883
874,599.5777189003984
875,599.5133004103617
876,599.4311181355106
877,599.3340579053557
878,599.2265858269863
879,599.1144061815993
880,599.0039199999741
881,598.9015247966842
882,598.8128264426086
883,598.7418715165347
884,598.6905382701575
885,598.658222665299
886,598.6419092024199
887,598.6366371920275
888,598.6362892259219
889,598.6345604177707
890,598.6259292247413
891,598.6064600312201
892,598.5743255006312
893,598.5300119790212
894,598.4762229198974
895,598.4175129339626
896,598.3596957388551
897,598.3090995337554
898,598.2717821089979
899,598.2528274540465
900,598.2558075053485
901,598.2824328617044
902,598.3323758819106
903,598.4032433341245
904,598.4906913683106
905,598.5886971253902
906,598.6900145920914
907,598.786830896093
908,598.871594338599
909,598.9379178940633
910,598.9814007119074
911,599.0001906911625
912,598.9951562260769
913,598.9696366419405
914,598.9288568158066
915,598.879168116194
916,598.8272870787932
917,598.779661984151
