frame_number,force
0,541.9564200038516
1,542.1036769184152
2,542.2506059885077
3,542.3968814323348
4,542.5421815672984
5,542.6861907956459
6,542.8286015167956
7,542.9691159463557
8,543.1074478245088
9,543.2433239994785
10,543.3764858749597
11,543.5066907131219
12,543.6337127869366
13,543.7573443773889
14,543.8773966126603
15,543.9937001472179
16,544.106105678709
17,544.2144843003133
18,544.3187276869694
19,544.4187481162347
20,544.5144783276711
21,544.6058712272028
22,544.6928994443246
23,544.7755547511307
24,544.8538473538148
25,544.9278050694118
26,544.9974724021625
27,545.062909534556
28,545.1241912484604
29,545.1814057925637
30,545.2346537133163
31,545.2840466666448
32,545.329706226268
33,545.3717627017694
34,545.4103539762929
35,545.4456243704947
36,545.4777235367717
37,545.5068053859482
38,545.5330270475578
39,545.5565478647355
40,545.5775284255632
41,545.596129633991
42,545.6125118245565
43,545.6268339259125
44,545.6392526789386
45,545.6499219159715
46,545.6589919081267
47,545.6666087873425
48,545.6729140484075
49,545.6780441340123
50,545.6821301034038
51,545.6852973832733
52,545.6876655984331
53,545.6893484792689
54,545.6904538422131
55,545.6910836382048
56,545.6913340625246
57,545.6912957179047
58,545.6910538215599
59,545.6906884456487
60,545.6902747797409
61,545.6898834034318
62,545.6895805574552
63,545.6894284022742
64,545.6894852539557
65,545.6898057883309
66,545.6904412062806
67,545.6914393552511
68,545.6928448041419
69,545.6946988700383
70,545.6970395961902
71,545.6999016819484
72,545.7033163672561
73,545.707311276161
74,545.7119102250085
75,545.7171330012906
76,545.7229951187749
77,545.7295075541168
78,545.7366764704616
79,545.744502935079
80,545.7529826405352
81,545.7621056413286
82,545.7718561194686
83,545.7822121929328
84,545.7931457805021
85,545.8046225351919
86,545.8166018563224
87,545.8290369873333
88,545.8418752032663
89,545.8550580889436
90,545.8685219064054
91,545.8821980479853
92,545.896013569338
93,545.9098917948453
94,545.923752986272
95,545.9375150644696
96,545.9510943733172
97,545.9644064746066
98,545.9773669617043
99,545.989892278762
100,546.001900531989
101,546.0133122806554
102,546.0240512974414
103,546.0340452896202
104,546.04322657434
105,546.0515327032376
106,546.0589070334925
107,546.0652992437564
108,546.0706657941732
109,546.0749703299495
110,546.0781840275147
111,546.0802858814614
112,546.0812629298844
113,546.0811104159907
114,546.0798318849769
115,546.0774392170296
116,546.0739525995256
117,546.069400443422
118,546.0638192497743
119,546.0572534321972
120,546.0497551003651
121,546.0413838089817
122,546.0322062763033
123,546.0222960759713
124,546.0117333050282
125,546.000604229346
126,545.989000905442
127,545.9770207752401
128,545.9647662283029
129,545.9523441248431
130,545.9398652725265
131,545.9274438507834
132,545.9151967782849
133,545.9032430223693
134,545.8917028527851
135,545.8806970450692
136,545.8703460406743
137,545.8607690719779
138,545.8520832612991
139,545.8444027042945
140,545.8378375492294
141,545.8324930842308
142,545.8284688446262
143,545.8258577519018
144,545.8247452945948
145,545.825208759528
146,545.8273165194821
147,545.8311273812901
148,545.8366899970698
149,545.8440423409182
150,545.8532112531889
151,545.8642120537124
152,545.8770482241745
153,545.8917111593237
154,545.9081799873615
155,545.9264214611923
156,545.9463899231656
157,545.9680273460508
158,545.9912634524702
159,546.0160159143846
160,546.0421906339842
161,546.0696821076965
162,546.098373875659
163,546.1281390592544
164,546.1588409888608
165,546.1903339229087
166,546.2224638575784
167,546.2550694236127
168,546.2879828628134
169,546.32103107272
170,546.3540367049153
171,546.3868193010035
172,546.4191964503698
173,546.4509849546672
174,546.4820019852295
175,546.5120662215545
176,546.5409989617579
177,546.5686251988177
178,546.5947746585001
179,546.6192827957265
180,546.6419917461167
181,546.6627512289133
182,546.68141939681
183,546.6978636279393
184,546.7119612560397
185,546.7236002363932
186,546.7326797461948
187,546.7391107173611
188,546.7428162976903
189,546.7437322343321
190,546.7418071730827
191,546.7370028681956
192,546.7292942994962
193,546.7186696958321
194,546.705130465738
195,546.6886910373726
196,546.6693786103441
197,546.6472328223398
198,546.6223053339733
199,546.5946593362477
200,546.5643689863657
201,546.5315187789757
202,546.4962028612194
203,546.4585243012839
204,546.4185943215193
205,546.3765315081811
206,546.3324610098281
207,546.286513734867
208,546.2388255560346
209,546.1895365271129
210,546.1387901159505
211,546.086732457518
212,546.0335116300479
213,545.9792769560175
214,545.9241783285454
215,545.8683655632573
216,545.8119877758049
217,545.7551927859267
218,545.6981265501953
219,545.6409326270037
220,545.5837516781882
221,545.52672101152
222,545.4699741672445
223,545.4136405503391
224,545.3578451086206
225,545.302708055385
226,545.248344633841
227,545.1948649194518
228,545.1423736562307
229,545.0909701244682
230,545.0407480392399
231,544.9917954797397
232,544.9441948485601
233,544.8980228584688
234,544.8533505428537
235,544.810243284807
236,544.7687608585032
237,544.7289574751343
238,544.690881824528
239,544.654577103216
240,544.6200810208436
241,544.5874257796223
242,544.5566380251115
243,544.5277387696607
244,544.5007432919116
245,544.4756610175423
246,544.4524953885707
247,544.4312437306867
248,544.4118971294506
249,544.3944403263712
250,544.3788516449682
251,544.3651029552972
252,544.3531596835076
253,544.3429808710921
254,544.3345192865347
255,544.327721590053
256,544.3225285501293
257,544.3188753085805
258,544.3166916892494
259,544.3159025444448
260,544.316428133063
261,544.3181845245039
262,544.3210840229564
263,544.3250356076952
264,544.3299453869288
265,544.3357170652516
266,544.3422524271464
267,544.3494518402695
268,544.3572147818479
269,544.3654403897214
270,544.3740280372413
271,544.3828779291753
272,544.3918917142515
273,544.4009731087738
274,544.41002852441
275,544.4189676916213
276,544.4277042684982
277,544.4361564234326
278,544.4442473793147
279,544.4519059068593
280,544.4590667553791
281,544.4656710112044
282,544.471666377166
283,544.477007370534
284,544.4816554405777
285,544.4855790095856
286,544.4887534424582
287,544.4911609505411
288,544.4927904363367
289,544.4936372873459
290,544.4937031285621
291,544.4929955430573
292,544.4915277686474
293,544.489318376489
294,544.486390935264
295,544.4827736626136
296,544.4784990639833
297,544.4736035585037
298,544.4681270919071
299,544.4621127370226
300,544.4556062823067
301,544.4486558081015
302,544.4413112494373
303,544.4336239441715
304,544.4256461664888
305,544.4174306476822
306,544.4090300877094
307,544.4004966618836
308,544.391881527516
309,544.3832343356535
310,544.3746027529847
311,544.3660319982915
312,544.3575643967749
313,544.3492389548957
314,544.3410909585314
315,544.3331515982235
316,544.3254476266426
317,544.3180010546803
318,544.31082889342
319,544.3039429494628
320,544.2973496807501
321,544.2910501194068
322,544.2850398674785
323,544.2793091706327
324,544.2738430733941
325,544.2686216571485
326,544.2636203596961
327,544.2588103733897
328,544.2541591176906
329,544.2496307808061
330,544.2451869240169
331,544.2407871417358
332,544.2363897700731
333,544.2319526361398
334,544.2274338393108
335,544.2227925545067
336,544.2179898466411
337,544.2129894847761
338,544.2077587440231
339,544.2022691826571
340,544.1964973815283
341,544.1904256332074
342,544.1840425695186
343,544.1773437174905
344,544.1703319745892
345,544.1630179942756
346,544.1554204730085
347,544.1475663305571
348,544.1394907773197
349,544.1312372649412
350,544.122857319279
351,544.1144102573693
352,544.1059627924985
353,544.0975885336888
354,544.0893673877702
355,544.0813848737222
356,544.0737313601384
357,544.0665012371601
358,544.0597920336977
359,544.0537034894824
360,544.0483365903739
361,544.0437925748387
362,544.0401719192851
363,544.0375733098414
364,544.036092608756
365,544.035821825309
366,544.0368481032391
367,544.0392527378352
368,544.0431102354577
369,544.0484874271654
370,544.0554426473691
371,544.0640249880465
372,544.0742736383845
373,544.0862173188023
374,544.0998738179451
375,544.1152496414752
376,544.1323397810118
377,544.1511276090774
378,544.1715849016593
379,544.1936719858351
380,544.2173380074651
381,544.2425213131272
382,544.2691499401071
383,544.297142207672
384,544.3264074022359
385,544.3568465486385
386,544.3883532595601
387,544.4208146548904
388,544.4541123424291
389,544.488123450498
390,544.5227217019896
391,544.5577785183799
392,544.5931641416776
393,544.6287487624196
394,544.6644036425765
395,544.7000022229372
396,544.7354212046343
397,544.7705415941156
398,544.805249700659
399,544.8394380758103
400,544.8730063847823
401,544.905862200569
402,544.9379217119564
403,544.9691103369922
404,544.9993632343674
405,545.0286257066374
406,545.0568534908572
407,545.0840129337366
408,545.110081049969
409,545.1350454641986
410,545.158904239202
411,545.1816655949399
412,545.2033475249133
413,545.2239773177176
414,545.2435909927104
415,545.2622326590088
416,545.2799538064987
417,545.2968125365966
418,545.3128727401432
419,545.3282032309154
420,545.3428768455373
421,545.3569695228108
422,545.3705593765355
423,545.3837257756218
424,545.3965484442457
425,545.4091065934614
426,545.4214780942441
427,545.4337387005379
428,545.4459613297953
429,545.4582154078574
430,545.4705662844431
431,545.4830747242687
432,545.495796476716
433,545.5087819246718
434,545.5220758116221
435,545.5357170455725
436,545.5497385783552
437,545.5641673586548
438,545.5790243562711
439,545.5943246539858
440,545.6100776023651
441,545.6262870320849
442,545.6429515176411
443,545.6600646854283
444,545.6776155583716
445,545.6955889289411
446,545.7139657526137
447,545.7327235547178
448,545.7518368450214
449,545.7712775360076
450,545.7910153619948
451,545.8110182968175
452,545.8312529677971
453,545.851685063476
454,545.8722797322172
455,545.8930019685322
456,545.9138169841399
457,545.934690561389
458,545.9555893875538
459,545.9764813693714
460,545.9973359277187
461,546.0181242720889
462,546.03881965314
463,546.0593975893241
464,546.079836061456
465,546.1001156681172
466,546.1202197354819
467,546.1401343771622
468,546.1598485022287
469,546.1793537719716
470,546.1986445078165
471,546.2177175539374
472,546.2365720985631
473,546.2552094580925
474,546.2736328283097
475,546.2918470072889
476,546.3098580948171
477,546.3276731733309
478,546.3452999755574
479,546.3627465441755
480,546.3800208886902
481,546.3971306442456
482,546.4140827362861
483,546.4308830537178
484,546.4475361316619
485,546.4640448435699
486,546.4804101020954
487,546.4966305689313
488,546.5127023754283
489,546.5286188574665
490,546.5443703091839
491,546.5599437605916
492,546.5753227840645
493,546.5904873343522
494,546.6054136259008
495,546.6200740496523
496,546.6344371294359
497,546.6484675163357
498,546.6621260185773
499,546.675369664581
500,546.6881517976108
501,546.7004222015805
502,546.7121272587768
503,546.7232101413548
504,546.7336110391968
505,546.7432674266579
506,546.7521143696604
507,546.7600848728525
508,546.7671102646788
509,546.7731206167218
510,546.7780451928609
511,546.7818129235748
512,546.7843529008744
513,546.7855948897285
514,546.7854698524834
515,546.7839104837335
516,546.7808517542051
517,546.7762314628787
518,546.7699907960815
519,546.7620748904627
520,546.7524333941614
521,546.7410210179185
522,546.7277980660456
523,546.7127309364577
524,546.695792579547
525,546.6769629072454
526,546.6562291456123
527,546.63358612626
528,546.6090365138948
529,546.5825909692085
530,546.5542682477567
531,546.5240952357143
532,546.4921069228304
533,546.458346312657
534,546.4228642706792
535,546.3857193118456
536,546.3469773297421
537,546.3067112705311
538,546.2650007559942
539,546.221931660954
540,546.1775956502087
541,546.1320896789856
542,546.0855154599958
543,546.0379789004967
544,545.9895895142951
545,545.9404598152984
546,545.8907047001486
547,545.8404408275816
548,545.7897860019365
549,545.7388585680927
550,545.6877768251384
551,545.6366584662875
552,545.5856200525405
553,545.5347765264131
554,545.4842407692402
555,545.4341232019449
556,545.3845314261661
557,545.3355699007678
558,545.2873396474234
559,545.2399379778709
560,545.1934582352378
561,545.1479895431742
562,545.1036165590477
563,545.0604192299347
564,545.0184725515576
565,544.9778463307421
566,544.9386049521949
567,544.9008071509062
568,544.8645057919776
569,544.829747659873
570,544.7965732592477
571,544.7650166299917
572,544.7351051796633
573,544.706859536491
574,544.6802934254803
575,544.6554135693576
576,544.6322196155711
577,544.6107040903026
578,544.5908523802108
579,544.572642742368
580,544.5560463427433
581,544.5410273236043
582,544.5275429003282
583,544.5155434886186
584,544.5049728642621
585,544.4957683589648
586,544.4878610968101
587,544.4811762760661
588,544.4756335004727
589,544.4711471629835
590,544.4676268836357
591,544.4649780019946
592,544.4631021231714
593,544.461897714207
594,544.4612607447617
595,544.4610853633999
596,544.4612645990326
597,544.4616910764603
598,544.4622577352569
599,544.4628585420576
600,544.4633891871443
601,544.4637477568491
602,544.4638353739705
603,544.4635567996515
604,544.462820992271
605,544.4615416213538
606,544.4596375362593
607,544.4570331899231
608,544.4536590177017
609,544.4494517711477
610,544.4443548067151
611,544.4383183298324
612,544.4312995951229
613,544.4232630635265
614,544.4141805167448
615,544.4040311289627
616,544.3928014953119
617,544.3804856162521
618,544.3670848374036
619,544.3526077454886
620,544.337070022408
621,544.3204942601805
622,544.3029097392937
623,544.2843521727855
624,544.2648634189907
625,544.2444911671271
626,544.223288600729
627,544.201314043969
628,544.1786305956385
629,544.1553057553768
630,544.1314110462495
631,544.107021636569
632,544.0822159623276
633,544.0570753506046
634,544.0316836440539
635,544.0061268265907
636,543.9804926501729
637,543.954870261875
638,543.9293498293321
639,543.9040221615049
640,543.8789783211878
641,543.8543092260388
642,543.8301052360407
643,543.8064557268683
644,543.7834486503414
645,543.7611700846767
646,543.739703778513
647,543.7191306936501
648,543.6995285520533
649,543.680971392734
650,543.6635291434749
651,543.6472672110938
652,543.6322460923611
653,543.6185210062931
654,543.6061415478015
655,543.5951513628244
656,543.5855878459743
657,543.5774818629951
658,543.5708575014968
659,543.5657318542344
660,543.5621148394158
661,543.5600090620895
662,543.5594097196583
663,543.5603045531795
664,543.5626738450659
665,543.5664904640521
666,543.5717199598632
667,543.5783207114009
668,543.5862441319332
669,543.5954349328993
670,543.6058314459073
671,543.6173660012125
672,543.6299653602285
673,543.6435511987575
674,543.6580406363905
675,543.6733468062369
676,543.6893794579735
677,543.7060455858935
678,543.7232500721217
679,543.7408963343097
680,543.7588869678999
681,543.7771243755775
682,543.7955113800067
683,543.8139518191896
684,543.8323511258674
685,543.8506168929581
686,543.8686594263825
687,543.8863922854482
688,543.9037328099799
689,543.920602632983
690,543.9369281775711
691,543.9526411366369
692,543.9676789328594
693,543.9819851549317
694,543.9955099636295
695,544.0082104594981
696,544.0200510036419
697,544.0310034844468
698,544.0410475249491
699,544.0501706266591
700,544.0583682456999
701,544.0656437970928
702,544.072008584146
703,544.0774816524865
704,544.0820895712753
705,544.0858661460751
706,544.0888520682089
707,544.091094505163
708,544.092646636731
709,544.0935671423676
710,544.0939196462487
711,544.0937721276323
712,544.0931963052325
713,544.0922670052136
714,544.0910615226927
715,544.0896589859343
716,544.0881397308126
717,544.0865846913176
718,544.0850748107737
719,544.0836904782262
720,544.0825109943688
721,544.0816140704947
722,544.0810753621898
723,544.0809680375284
724,544.0813623779812
725,544.0823254092741
726,544.0839205590571
727,544.086207338519
728,544.0892410460258
729,544.0930724925167
730,544.0977477504879
731,544.1033079302391
732,544.1097889877602
733,544.1172215678836
734,544.12563088471
735,544.1350366397343
736,544.1454529769073
737,544.1568884728857
738,544.1693461598733
739,544.182823578025
740,544.19731285469
741,544.2128008089526
742,544.2292690817521
743,544.2466942936102
744,544.2650482327874
745,544.284298076211
746,544.3044066441461
747,544.325332687943
748,544.3470312086089
749,544.3694538026946
750,544.3925490313399
751,544.4162628082362
752,544.440538802228
753,544.465318849713
754,544.4905433708595
755,544.5161517823913
756,544.5420828989138
757,544.5682753148825
758,544.5946677603416
759,544.6211994252787
760,544.6478102494436
761,544.674441176435
762,544.7010343727584
763,544.727533414477
764,544.7538834454764
765,544.7800313113023
766,544.8059256709382
767,544.8315170868901
768,544.8567580927952
769,544.8816032378936
770,544.906009108883
771,544.9299343315494
772,544.9533395566766
773,544.9761874363942
774,544.9984425976808
775,545.020071618909
776,545.0410430133886
777,545.0613272217247
778,545.0808966135422
779,545.0997254992811
780,545.1177901539679
781,545.1350688560468
782,545.1515419447298
783,545.1671918989492
784,545.1820034401939
785,545.195963660239
786,545.209062172897
787,545.2212912867183
788,545.2326461937577
789,545.2431251686472
790,545.2527297723442
791,545.2614650557307
792,545.269339759273
793,545.2763665057089
794,545.2825619827706
795,545.2879471121545
796,545.292547199673
797,545.2963920604093
798,545.2995161122465
799,545.3019584313703
800,545.3037627640589
801,545.3049774902288
802,545.3056555359343
803,545.3058542343435
804,545.3056351373433
805,545.3050637821879
806,545.3042094189569
807,545.3031447050307
808,545.3019453726114
809,545.3006898746518
810,545.2994590136428
811,545.2983355572369
812,545.2974038451805
813,545.2967493929282
814,545.2964584973131
815,545.2966178482998
816,545.2973141491025
817,545.2986337458684
818,545.3006622677027
819,545.3034842775377
820,545.3071829341408
821,545.3118396657094
822,545.3175338560104
823,545.3243425444062
824,545.3323401409851
825,545.3415981574623
826,545.3521849539358
827,545.3641655012557
828,545.3776011587564
829,545.3925494672901
830,545.4090639576501
831,545.4271939744308
832,545.4469845150596
833,545.4684760831424
834,545.4917045546061
835,545.5167010548392
836,545.5434918453916
837,545.5720982197888
838,545.6025364094997
839,545.6348175026321
840,545.6689473785408
841,545.7049266603887
842,545.7427506851994
843,545.7824094886286
844,545.823887800839
845,545.8671650503841
846,545.9122153738675
847,545.9590076296711
848,546.0075054142952
849,546.0576670802752
850,546.1094457552464
851,546.1627893620612
852,546.2176406397095
853,546.2739371646751
854,546.3316113728661
855,546.3905905833481
856,546.4507970262007
857,546.5121478772999
858,546.5745553026525
859,546.6379265146762
860,546.7021638430967
861,546.7671648238476
862,546.8328223099167
863,546.8990246080182
864,546.965655644505
865,547.0325951636926
866,547.0997189616796
867,547.1668991579544
868,547.2340045051478
869,547.3009007349747
870,547.3674509366208
871,547.4335159629126
872,547.4989548594115
873,547.5636253117841
874,547.6273841070123
875,547.6900876042699
876,547.7515922120883
877,547.8117548698435
878,547.8704335330204
879,547.9274876624036
880,547.982778717056
881,548.0361706500207
882,548.0875304046721
883,548.1367284087671
884,548.1836390625108
885,548.2281412168263
886,548.2701186389526
887,548.3094604640535
888,548.3460616328713
889,548.3798233162695
890,548.4106533279397
891,548.4384665268032
892,548.4631852108639
893,548.4847395041725
894,548.5030677373076
895,548.518116818911
896,548.5298425920137
897,548.53821016553
898,548.5431942092409
899,548.5447791999298
900,548.5429596069246
901,548.5377400071259
902,548.5291351225195
903,548.517169776384
904,548.5018787669641
905,548.4833066589143
906,548.4615074937665
907,548.4365444218059
908,548.408489259533
909,548.377421979145
910,548.343430138503
911,548.3066082612139
912,548.2670571766239
913,548.2248833291269
914,548.180198066038
915,548.1331169137902
916,548.0837588529259
917,548.0322456024965
