acceleration,velocity,displacement
-0.059437777079470434,0.0,0.0
-0.056788416992181984,-2.9056548517913105e-05,-7.2641371294782764e-09
-0.054144955290441416,-5.678989158856895e-05,-2.8725747156098793e-08
-0.051513253249322696,-8.320444372350997e-05,-6.372433098411853e-08
-0.04889909839356688,-0.00010830753163423237,-1.1160232482355413e-07
-0.04630816877293966,-0.000132109348425859,-1.7170654483857697e-07
-0.04374599855679601,-0.00015462289025829293,-2.4338960450961494e-07
-0.04121794530735936,-0.0001758638762243318,-3.260112961302711e-07
-0.038729159243462895,-0.00019585065236203735,-4.189399282768634e-07
-0.03628455475174774,-0.00021460408086084002,-5.215536115825827e-07
-0.0338887843453548,-0.00023214741563511567,-6.332414857065715e-07
-0.031546215221039356,-0.0002485061655267142,-7.53404880997029e-07
-0.029260908527180142,-0.0002637079464637691,-8.814584089946499e-07
-0.027036601422532756,-0.0002777823239511973,-1.0168309765983914e-06
-0.024876691978142556,-0.00029076064730136614,-1.1589667194115321e-06
-0.022784226959569383,-0.0003026758770357941,-1.3073258504958223e-06
-0.02076189252722287,-0.00031356240690749216,-1.461385421481644e-06
-0.018812007897053788,-0.0003234558820135613,-1.6206399937119074e-06
-0.01693652199006705,-0.00033239301448534153,-1.784602217836633e-06
-0.015137013057027984,-0.0003404113982471153,-1.952803321019747e-06
-0.013414691208313498,-0.00034754932431345066,-2.1247935016598886e-06
-0.011770403732928533,-0.00035384559804876116,-2.3001422322504415e-06
-0.010204643064958918,-0.000359339359748233,-2.47843847169969e-06
-0.00871755723606112,-0.00036406990982348805,-2.65929078909262e-06
-0.007308962622383217,-0.00036807653978809915,-2.842327401495517e-06
-0.0059783587561383165,-0.00037139837013272953,-3.0271961289757243e-06
-0.004724944943111458,-0.00037407419605754196,-3.213564270523292e-06
-0.003547638415241696,-0.00037614234189713023,-3.40111840501196e-06
-0.0024450937409882926,-0.0003776405249361877,-3.58956412172029e-06
-0.001415723201690206,-0.00037860572917185735,-3.778625685247301e-06
-0.0004577178245500195,-0.0003790740894284174,-3.96804563989737e-06
0.0004309312384131151,-0.0003790807860749516,-4.1575843587732115e-06
0.0012524112702820979,-0.0003786599504477778,-4.347019542903894e-06
0.002009066724701744,-0.00037784458094903184,-4.536145675753096e-06
0.002703378314368343,-0.0003766664696892643,-4.724773438412671e-06
0.003337942571932016,-0.0003751561394676892,-4.912729090701909e-06
0.003915451955593792,-0.0003733427908358078,-5.0998538232777836e-06
0.004438675538683161,-0.00037125425896223854,-5.2860030857272955e-06
0.004910440303663826,-0.00036891698000165177,-5.471045895468268e-06
0.005333613058816612,-0.00036635596666103167,-5.6548641321339385e-06
0.00571108301077364,-0.0003635947926436341,-5.837351821960105e-06
0.0060457450490905675,-0.00036065558562866805,-6.0184144165281806e-06
0.006340483818777555,-0.000357559028411701,-6.1979680700382725e-06
0.006598158670998712,-0.00035432436778925694,-6.375938919088512e-06
0.0068215895957802145,-0.0003509694307225622,-6.552262368716467e-06
0.007013544254347087,-0.00034751064726003033,-6.726882388212115e-06
0.007176726236526082,-0.000343963079637312,-6.899750819936451e-06
0.007313764662489354,-0.00034034045691255815,-7.0708267040739185e-06
0.007427205223532163,-0.00033665521444105275,-7.240075621912321e-06
0.007519502716563939,-0.0003329185374560287,-7.407469059886591e-06
0.00759301508272781,-0.00032914040800620576,-7.57298379625215e-06
0.007649998925534415,-0.0003253296545041402,-7.736601311879736e-06
0.0076926064644810025,-0.0003214940031566363,-7.898307226294931e-06
0.007722883870002142,-0.00031764013057301556,-8.058090759727345e-06
0.007742770912147927,-0.00031377371687747805,-8.215944221589968e-06
0.007754101832454703,-0.0003098994986913274,-8.371862525482169e-06
0.0077586073200220295,-0.0003060213214032082,-8.525842730505804e-06
0.007757917446098872,-0.000302142190211678,-8.677883608409525e-06
0.007753565388857989,-0.00029826431950293877,-8.827985235838179e-06
0.007746991759640904,-0.00029438918021581405,-8.976148610767867e-06
0.007739549325112058,-0.0002905175449446258,-9.122375292057978e-06
0.0077325079119780656,-0.00028664953063535324,-9.266667060952972e-06
0.007727059284689456,-0.0002827846388361864,-9.409025603320858e-06
0.007724321797863494,-0.00027892179356554813,-9.549452211421292e-06
0.007725344639991654,-0.00027505937695608437,-9.6879475040517e-06
0.0077311115065782105,-0.0002711952629194419,-9.824511164020582e-06
0.007742543573858776,-0.0002673268491493327,-9.959141692037776e-06
0.007760501685036677,-0.00026345108783460883,-1.009183617628376e-05
0.007785787697630472,-0.00025956451548894206,-1.0222590077114649e-05
0.007819144964416005,-0.0002556632823234304,-1.0351397026567741e-05
0.007861257937245188,-0.00025174318159801513,-1.0478248642548103e-05
0.007912750906500609,-0.0002477996793870787,-1.0603134357794377e-05
0.007974185922925136,-0.00024382794517972226,-1.0726041263936077e-05
0.008046059982193831,-0.0002398228837034425,-1.0846953971156868e-05
0.008128801574031185,-0.00023577916831438625,-1.0965854484161326e-05
0.008222766703393537,-0.00023169127624503007,-1.108272209530118e-05
0.008328234484895811,-0.00022755352594795773,-1.1197533295849426e-05
0.008445402404087693,-0.00022336011672571186,-1.1310261706517843e-05
0.00857438134466389,-0.00021910517078852396,-1.1420878028396401e-05
0.008715190508318172,-0.00021478277782527845,-1.1529350015549851e-05
0.008867752398223263,-0.0002103870420986431,-1.1635642470530831e-05
0.00903188808074882,-0.00020591213197890007,-1.1739717264050218e-05
0.009207312967875586,-0.00020135233171674396,-1.1841533379974129e-05
0.009393633371086578,-0.00019670209513200342,-1.1941046986686316e-05
0.009590344069547223,-0.00019195610077184496,-1.2038211535662278e-05
0.009796827112445398,-0.00018710930797634682,-1.2132977887849326e-05
0.010012352036148121,-0.00018215701318919844,-1.2225294468140712e-05
0.010236077624029973,-0.0001770949057741539,-1.231510744788155e-05
0.010467055279549341,-0.0001719191225482591,-1.2402360954962154e-05
0.010704234031066875,-0.00016662630022060504,-1.248699731065437e-05
0.010946467142574934,-0.00016121362492719458,-1.2568957291941318e-05
0.011192520265155685,-0.0001556788780752619,-1.2648180417691932e-05
0.011441081026906637,-0.00015002047775224632,-1.2724605256648808e-05
0.011690769925049511,-0.00014423751501425728,-1.2798169754840434e-05
0.011940152356000357,-0.0001383297844439948,-1.2868811579704997e-05
0.012187751599831539,-0.00013229780845503683,-1.2936468477929755e-05
0.012432062564654282,-0.00012614285491391536,-1.3001078643771992e-05
0.012671566087720782,-0.0001198669477508216,-1.3062581094438177e-05
0.01290474357436287,-0.00011347287033530068,-1.3120916048959708e-05
0.013130091736733282,-0.00010696416150752665,-1.3176025306920414e-05
0.013346137189756432,-0.00010034510427590421,-1.3227852623366272e-05
0.01355145068238669,-9.362070730786843e-05,-1.3276344076262216e-05
0.01374466077736693,-8.679667944293002e-05,-1.3321448422949916e-05
0.013924466826336957,-7.987939754200405e-05,-1.336311744219615e-05
0.014089651119100596,-7.287586805564465e-05,-1.3401306258595562e-05
0.014239090121312914,-6.579368274554128e-05,-1.3435973646295859e-05
0.014371764748548828,-5.864096902807585e-05,-1.3467082309239263e-05
0.01448676964861063,-5.142633542878598e-05,-1.3494599135353478e-05
0.014583321477928539,-4.415881264715119e-05,-1.3518495422372463e-05
0.014660766162367304,-3.684779073707723e-05,-1.353874707321852e-05
0.014718585125145149,-2.9502952915199117e-05,-1.355533475913159e-05
0.014756400449281998,-2.213420652159233e-05,-1.3568244048990788e-05
0.014773978931779355,-1.4751611676326992e-05,-1.3577465503540268e-05
0.014771234991205334,-7.36530819558082e-06,-1.3582994733508246e-05
0.014748232410658873,1.4558654885233267e-08,-1.358483242089342e-05
0.014705184931492383,7.377912990423047e-06,-1.3582984302982093e-05
0.014642455753157367,1.4714823161585483e-05,-1.357746111894409e-05
0.014560556028938914,2.2015576107109553e-05,-1.3568278519126917e-05
0.014460142464432118,2.927075073045231e-05,-1.3555456937417526e-05
0.014342014123357422,3.6471289877399696e-05,-1.3539021427265563e-05
0.014207108532432077,4.360857054134707e-05,-1.3519001462160876e-05
0.014056497164971699,5.067447196569801e-05,-1.3495430701534115e-05
0.013891380376739227,5.766144135112575e-05,-1.346834672320491e-05
0.013713081861559537,6.456255691070044e-05,-1.3437790723639454e-05
0.013523042678470496,7.137158804570794e-05,-1.3403807187400352e-05
0.013322814872474017,7.808305243344407e-05,-1.3366443527280563e-05
0.013114054670468452,8.469226981917969e-05,-1.3325749696717407e-05
0.01289851519042797,9.11954122844038e-05,-1.3281777776191512e-05
0.012678038565343549,9.758955072334668e-05,-1.3234581535439574e-05
0.012454547361523887,0.00010387269720506354,-1.318421597345747e-05
0.012230035165538557,0.00011004384283682915,-1.3130736838446997e-05
0.012006556226767157,0.00011610299068490558,-1.3074200130066564e-05
0.011786214077402242,0.00012205118326094792,-1.30146615865801e-05
0.01157114910806134,0.00012789052405731382,-1.2952176159750535e-05
0.01136352514155615,0.00013362419261971818,-1.2886797480581277e-05
0.011165515100551242,0.00013925645268024502,-1.2818577319256286e-05
0.010979285897065535,0.0001447926529296492,-1.2747565042853812e-05
0.01080698269013736,0.00015023922007644994,-1.2673807074602286e-05
0.010650712675881358,0.0001556036439179546,-1.2597346358603685e-05
0.010512528596468305,0.00016089445423604203,-1.2518221834065185e-05
0.010394412174922835,0.00016612118942888981,-1.2436467923148953e-05
0.01029825769350324,0.00017129435689599632,-1.235211403656773e-05
0.010225855933478642,0.0001764253853027418,-1.2265184101018046e-05
0.010178878683761005,0.00018152656895705172,-1.2175696112453097e-05
0.010158864003996524,0.00018661100462899108,-1.2083661719056587e-05
0.010167202393399351,0.00019169252122834006,-1.1989085837592254e-05
0.010205123974960402,0.00019678560282043001,-1.1891966306580061e-05
0.010273686766746592,0.00020190530550585678,-1.179229357949849e-05
0.010373766089142535,0.00020706716871982906,-1.1690050460942069e-05
0.010506045149842397,0.0002122871215295753,-1.1585211888379718e-05
0.010671006844752707,0.00021758138452822407,-1.1477744761865267e-05
0.010868926799287353,0.0002229663679392341,-1.1367607823748403e-05
0.0110998676538919,0.00022845856655252892,-1.1254751590125463e-05
0.01136367458792904,0.00023407445211298414,-1.1139118335459085e-05
0.011659972088233113,0.00023983036378202467,-1.1020642131485333e-05
0.011988161992550235,0.0002457423973022205,-1.0899248941214272e-05
0.012347422855196308,0.0002518262935141571,-1.0774856768510178e-05
0.012736710684251288,0.000258097326899019,-1.0647375863406884e-05
0.013154761090332258,0.0002645701948426649,-1.0516708982971463e-05
0.01360009287561754,0.00027125890833415233,-1.038275170717726e-05
0.014071013087470108,0.00027817668482492424,-1.0245392808887491e-05
0.014565623567459782,0.0002853358439886567,-1.0104514676684096e-05
0.015081829038007092,0.0002927477071400234,-9.959993788901925e-06
0.015617346773402263,0.00030042250109287575,-9.811701236843701e-06
0.01616971789392263,0.00030836926725970695,-9.659503294755556e-06
0.01673632030268209,0.00031659577680885815,-9.503262033738415e-06
0.017314383253228725,0.0003251084526978359,-9.342835976361741e-06
0.01790100348447948,0.0003339122993822629,-9.178080788341717e-06
0.01849316278927062,0.00034301084095070044,-9.008850003258476e-06
0.019087746809602464,0.00035240606835041874,-8.834995775933195e-06
0.019681564796711484,0.00036209839625199724,-8.656369659782592e-06
0.020271370048920295,0.00037208662996340516,-8.472823403228741e-06
0.02085388074137555,0.0003823679426609791,-8.284209760072646e-06
0.02142580087680527,0.0003929378630655243,-8.09038330864102e-06
0.021983841109018337,0.0004037902735619802,-7.891201274484143e-06
0.022524739225824545,0.0004149174186456909,-7.686524351432226e-06
0.023045280127674744,0.00042630992348406573,-7.476217515899787e-06
0.023542315190817446,0.0004379568223136888,-7.260150829450348e-06
0.024012780941047564,0.00044984559634665504,-7.038200224785262e-06
0.0244537169797639,0.0004619622208268579,-6.8102482704918835e-06
0.024862283103577677,0.00047429122084769327,-6.576184910073246e-06
0.025235775549192874,0.0004868157355108859,-6.335908170983601e-06
0.0255716422830234,0.00049951758996894,-6.089324839613645e-06
0.025867497250168493,0.000512377374852238,-5.83635109840835e-06
0.02612113351115584,0.0005253745325425691,-5.576913121559649e-06
0.026330535223100325,0.0005384874497261331,-5.310947625992473e-06
0.026493888441194085,0.0005516935556422067,-5.038402374650389e-06
0.0266095907046906,0.0005649694254286779,-4.759236629382667e-06
0.026676259333824545,0.0005782908879383066,-4.473421551040921e-06
0.02669273832897764,0.0005916331373540071,-4.180940544717842e-06
0.02665810375541749,0.0006049708478751059,-3.881789548410564e-06
0.026571667518091917,0.0006182782906934833,-3.575977263768417e-06
0.02643297946868636,0.0006315294524401778,-3.2635253279850013e-06
0.026241827827525842,0.0006446981542642308,-2.9444684263088993e-06
0.025998237936142577,0.0006577581707051479,-2.6188543450665547e-06
0.02570246937751021,0.0006706833475335611,-2.2867439655068774e-06
0.02535501151103574,0.0006834477177556975,-1.948211199184563e-06
0.024956577474752738,0.0006960256150021447,-1.6033428659951023e-06
0.024508096716138888,0.0007083917835498675,-1.2522385163570991e-06
0.02401070613068162,0.0007205214842615727,-8.950101994042391e-07
0.023465739911301763,0.0007323905957720686,-5.317821793958287e-07
0.02287471823618355,0.0007439757103089399,-1.6269060287557663e-07
0.02223933494551263,0.000755254223604364,2.1211688060274931e-07
0.021561444381693717,0.0007662044184361655,5.924815411128816e-07
0.020843047592055935,0.000776805541429603,9.78234031079324e-07
0.020086278110991826,0.0007870378728553649,1.3691948846505658e-06
0.019293387538013778,0.0007968827892676163,1.7651750501813112e-06
0.018466731100437346,0.000806322818927229,2.1659764522300226e-06
0.0176087533408986,0.000815341690037563,2.5713925794712205e-06
0.016721974024942857,0.0008239243718790234,2.9812090949503673e-06
0.015808974342007807,0.0008320571089707611,3.3952044651628134e-06
0.014872383466818118,0.0008397274484229676,3.8131506045112455e-06
0.013914865536134743,0.0008469242606737058,4.2348135317854136e-06
0.012939107072439662,0.0008536377538258494,4.659954035410302e-06
0.011947804864854632,0.000859859481810173,5.088328344319308e-06
0.010943654308300205,0.0008655823466034617,5.519688801422717e-06
0.009929338204173856,0.0008708005947315802,5.953784536756478e-06
0.008907516038558426,0.0008755098082922633,6.390362137512439e-06
0.00788081377655126,0.0008797068907460408,6.829166312272015e-06
0.006851814236609836,0.000883390047749331,7.269940546895858e-06
0.005823048124035631,0.0008865587633394924,7.712427749668063e-06
0.004796985799764345,0.0008892137718204423,8.156370883458047e-06
0.00377602984161063,0.0008913570257307861,8.601513582845854e-06
0.00276250842807335,0.000892991660298207,9.047600754353102e-06
0.0017586695470290386,0.0008941219547919827,9.49437915812565e-06
0.0007666760056320544,0.0008947532911801479,9.941597969618683e-06
-0.0002113988078580697,0.0008948921104795914,1.0389009320033618e-05
-0.0011735744802354546,0.000894545867157568,1.0836368814442908e-05
-0.0021179665186089403,0.0008937229819078569,1.1283436026709264e-05
-0.003042788730189339,0.0008924327930956574,1.1729974970460142e-05
-0.003946355048269767,0.0008906855071510426,1.2175754545521817e-05
-0.004827080803625897,0.0008884921481880688,1.2620548959356596e-05
-0.005683483457116286,0.0008858645071228832,1.3064138123184333e-05
-0.006514182837589521,0.0008828150905492067,1.3506308022602356e-05
-0.007317900953972462,0.0008793570696013162,1.3946851062639987e-05
-0.008093461471994825,0.0008755042289948244,1.4385566387289022e-05
-0.00883978896974809,0.0008712709163843887,1.4822260173633825e-05
-0.009555908111244873,0.0008666719921141405,1.5256745900758457e-05
-0.010240942897643665,0.0008617227793619183,1.568884459362747e-05
-0.010894116162269396,0.00085643901459694,1.6118385042117186e-05
-0.011514749455286327,0.0008508367981925511,1.654520399531456e-05
-0.012102263413383336,0.0008449325449753837,1.6969146331106544e-05
-0.012656178645275108,0.000838742934460719,1.739006520096557e-05
-0.013176117109086151,0.0008322848605221288,1.780782214971128e-05
-0.013661803920450362,0.0008255753802647447,1.8222287209908e-05
-0.014113069498093284,0.0008186316619101088,1.8633338970451713e-05
-0.014529851915245763,0.000811470931556774,1.9040864618818433e-05
-0.01491219928652869,0.0008041104187563304,1.944475995639671e-05
-0.01526027199531393,0.0007965673009358697,1.984492938631976e-05
-0.015574344563432981,0.000788858646796183,2.0241285873252772e-05
-0.01585480698141073,0.0007810013589099721,2.0633750874679312e-05
-0.016102165346720283,0.0007730121158279394,2.102225424336379e-05
-0.01631704169181294,0.0007649073140683061,2.140673410083785e-05
-0.016500172918142327,0.0007567030104158173,2.178713668195888e-05
-0.01665240878745938,0.0007484148649894169,2.2163416150810187e-05
-0.016774708957862615,0.0007400580855530864,2.2535534388445814e-05
-0.016868139088096874,0.0007316473735415965,2.2903460753219484e-05
-0.01693386606857412,0.0007231968722524288,2.3267171814667988e-05
-0.016973152467577225,0.0007147201176183909,2.3626651062135692e-05
-0.016987350298317584,0.0007062299919269172,2.3981888589522018e-05
-0.016977894215990396,0.0006977386807983402,2.4332880757703332e-05
-0.016946294250754165,0.000689257633681654,2.467962983632333e-05
-0.016894128174234156,0.0006807975280754069,2.5022143626762595e-05
-0.016823033577965774,0.0006723682376373569,2.5360435068190785e-05
-0.016734699708025824,0.000663978804315859,2.569452182867909e-05
-0.016630859054902504,0.0006556374146251269,2.6024425883414337e-05
-0.016513278654612027,0.0006473513801977483,2.6350173082120054e-05
-0.01638375103387696,0.000639127122775626,2.6671792707863397e-05
-0.016244084739504023,0.0006309701638322808,2.6989317029515374e-05
-0.016096094424358814,0.0006228851190413151,2.7302780850233774e-05
-0.015941590504116063,0.0006148756978091964,2.76122210544464e-05
-0.01578236843609807,0.0006069447080741428,2.7917676155917237e-05
-0.015620197698735992,0.0005990940665404343,2.8219185849570883e-05
-0.015456810571853411,0.0005913248144727869,2.8516790569824187e-05
-0.015293890841859621,0.0005836371391193586,2.8810531058222222e-05
-0.015133062585383534,0.0005760304007625479,2.91004479431927e-05
-0.014975879215449352,0.0005685031653123397,2.938658133471142e-05
-0.014823812998381678,0.000561053242258882,2.9668970436604225e-05
-0.014678245262935036,0.0005536777276935528,2.9947653179092333e-05
-0.014540457524652207,0.000546373051996656,3.0222665874014886e-05
-0.014411623735653804,0.0005391350316815795,3.0494042894934444e-05
-0.014292803836148896,0.0005319589247886288,3.0761816384051994e-05
-0.014184938726151883,0.0005248394891480536,3.102601598753616e-05
-0.014088846704275652,0.0005177710427904467,3.1286668620520785e-05
-0.014005221352670572,0.0005107475257762102,3.1543798262662446e-05
-0.013934630799010023,0.00050376256273829,3.179742578479107e-05
-0.013877518263565954,0.000496809525472646,3.204756880684381e-05
-0.013834203789379195,0.0004898815949594097,3.2294241586951825e-05
-0.01380488703612303,0.00048297182225303417,3.253745494125493e-05
-0.013789650989175143,0.0004760731877467096,3.277721619375487e-05
-0.01378846641260909,0.00046917865839626356,3.3013529155290614e-05
-0.013801196876235874,0.0004622812425740523,3.3246394130533196e-05
-0.013827604213033787,0.0004553740423017349,3.347580795175214e-05
-0.01386735430163935,0.0004484503026730666,3.370176403799584e-05
-0.013920023108142169,0.00044150345832062125,3.392425247824427e-05
-0.013985102957284242,0.0004345271768042646,3.414326013702549e-05
-0.014062009030140904,0.0004275153988074083,3.435877078092841e-05
-0.014150086095067887,0.0004204623750261061,3.457076522438679e-05
