frame_number,force
0,608.5611600000365
1,608.529086093992
2,608.4998604598744
3,608.4758456680822
4,608.4585689927115
5,608.4485879925038
6,608.4455693952699
7,608.4485144020957
8,608.456040416964
9,608.4666480199189
10,608.478933889197
11,608.4917259243634
12,608.504121234813
13,608.5154250816161
14,608.5250187686867
15,608.532205992069
16,608.5360963218285
17,608.5355904271464
18,608.5295220822126
19,608.5169596722194
20,608.4975814011991
21,608.4719684644083
22,608.4416610613779
23,608.4088949471275
24,608.3760469480952
25,608.3449298125296
26,608.316150993839
27,608.2887459846158
28,608.2602073959873
29,608.2269022637835
30,608.1847668853455
31,608.1301231972882
32,608.0604613640563
33,607.975056427845
34,607.8753235905963
35,607.7648593904355
36,607.649150926703
37,607.5349664877931
38,607.4294909285196
39,607.3393370638745
40,607.26961305615
41,607.2232253488206
42,607.200552326343
43,607.1995511454478
44,607.2162673247516
45,607.2456228615962
46,607.2822998303551
47,607.3215396319863
48,607.359736764683
49,607.3947802786723
50,607.4261435765326
51,607.454737427656
52,607.4825514796672
53,607.5121423605509
54,607.5460722150681
55,607.5864230151841
56,607.6344854071443
57,607.6906614203358
58,607.7545599181142
59,607.8252196024166
60,607.9013711436348
61,607.9816519084476
62,608.0647148933327
63,608.149218774113
64,608.2337322266051
65,608.3166161270574
66,608.3959508903081
67,608.469553896942
68,608.5350964216778
69,608.5902953174103
70,608.6331294706047
71,608.6620208471477
72,608.6759346944141
73,608.674393054933
74,608.6574408346371
75,608.6256303856579
76,608.5800858758658
77,608.5226717298443
78,608.4562304260849
79,608.3847946695647
80,608.3136437581054
81,608.2490886505012
82,608.1979431591391
83,608.1667415272168
84,608.1608404555443
85,608.1835650697864
86,608.2355427374985
87,608.3143478961128
88,608.4145561402347
89,608.5282569547485
90,608.6459912933434
91,608.7579750840224
92,608.8553813906171
93,608.93143036577
94,608.9820947494798
95,609.006340260346
96,609.005935595115
97,608.9849478564795
98,608.9490692528275
99,608.9049033008102
100,608.8592930992249
101,608.8187272200455
102,608.7888321113578
103,608.77395818422
104,608.7768746106881
105,608.7985876774605
106,608.8382883308713
107,608.8934258833414
108,608.9599007999342
109,609.0323679265396
110,609.1046400953053
111,609.1701767475816
112,609.2226293221464
113,609.2563997661246
114,609.2671615414068
115,609.2522982934026
116,609.2112288553543
117,609.1455977154287
118,609.0593085955155
119,608.9583714031659
120,608.8505380438788
121,608.7447289959707
122,608.6502877859973
123,608.5761265732871
124,608.5298393518211
125,608.5168682124759
126,608.5398158556759
127,608.5980002417539
128,608.6873395573973
129,608.8006252644124
130,608.92817959334
131,609.0588233393759
132,609.1810367183263
133,609.2841846389929
134,609.35967207329
135,609.4018861565372
136,609.4087884926853
137,609.3820602379344
138,609.3267708142213
139,609.2506225378976
140,609.1628951271204
141,609.0732565359702
142,608.9906164592128
143,608.9221801973836
144,608.8728117277402
145,608.8447446864052
146,608.8376194047116
147,608.8487954170449
148,608.8738814680706
149,608.9074162539256
150,608.9436137860503
151,608.9770643865212
152,609.0032738101183
153,609.0189512195587
154,609.0220300406925
155,609.0114959599819
156,608.9871487707744
157,608.949405084528
158,608.8991755653665
159,608.8377781876826
160,608.7668262714647
161,608.6880660907808
162,608.6032012630877
163,608.513779397043
164,608.4211996887316
165,608.3268408715587
166,608.2322465208164
167,608.1392711465891
168,608.0500988745898
169,607.967094723414
170,607.8925187799481
171,607.82819655699
172,607.775264976394
173,607.7340861690708
174,607.7043511428885
175,607.6853188395711
176,607.676089813481
177,607.6758130645588
178,607.6837639804652
179,607.6992908422852
180,607.721678285792
181,607.7499945494709
182,607.7829725809513
183,607.8189451145014
184,607.8558387470218
185,607.89124077815
186,607.9225668762238
187,607.947348332127
188,607.9636144248865
189,607.9702918246935
190,607.9675164655368
191,607.9567714895785
192,607.9408146816093
193,607.9234123860482
194,607.9089312562718
195,607.9018472661984
196,607.9062250388885
197,607.9252195697508
198,607.9606581249167
199,608.0127491073818
200,608.0799292223033
201,608.1588336495271
202,608.2443861137433
203,608.3300375084964
204,608.4081922943767
205,608.4708388042069
206,608.5103575165019
207,608.5204316130918
208,608.4969307840097
209,608.4385999467708
210,608.3473918969294
211,608.2283528577059
212,608.0890779697007
213,607.9388536076669
214,607.7876618090722
215,607.6452278452665
216,607.5202477591207
217,607.419857068885
218,607.3493288541828
219,607.3119499872271
220,607.3090256562815
221,607.3399861907724
222,607.4025894025101
223,607.4932108025736
224,607.6071974234264
225,607.7392457866664
226,607.8837644296159
227,608.0351923960415
228,608.18825379387
229,608.3381345381778
230,608.4805834955359
231,608.6119645679059
232,608.7292937638965
233,608.8302728862138
234,608.9133033631854
235,608.9774615781117
236,609.0224397382084
237,609.0484762639312
238,609.0562969331943
239,609.0470686058045
240,609.0223517985206
241,608.9840375260006
242,608.9342618154914
243,608.8752991973662
244,608.8094405893863
245,608.7388618750425
246,608.6654938641881
247,608.59091816805
248,608.5163260437562
249,608.4425684549045
250,608.3702931410286
251,608.30012947032
252,608.232868850698
253,608.1696036207222
254,608.1118118325021
255,608.061385509073
256,608.0205935553355
257,607.9919641251832
258,607.9780763273089
259,607.9812640390371
260,608.0032512658107
261,608.0447631025552
262,608.1051845896549
263,608.1823537145217
264,608.272564194433
265,608.3708213871867
266,608.4713453207568
267,608.5682564151207
268,608.6563274500245
269,608.7316573552971
270,608.792133217178
271,608.8375990728806
272,608.8697220917364
273,608.8916026102189
274,608.9071968907275
275,608.9206277906018
276,608.9354731498848
277,608.9541419111406
278,608.9774492744718
279,609.0044678939773
280,609.0326690175689
281,609.0583020954901
282,609.0769233575722
283,609.083983006771
284,609.0754017388375
285,609.0480898508578
286,609.000376841927
287,608.9323243832362
288,608.8458922199013
289,608.7449239530936
290,608.6349308971232
291,608.5226772353639
292,608.4155926104036
293,608.3210534612967
294,608.2455974388573
295,608.194170607798
296,608.1695275768099
297,608.1718843874693
298,608.1988739806407
299,608.2458055728948
300,608.3061958310004
301,608.372510834212
302,608.4370237723797
303,608.4926650880029
304,608.5337412679501
305,608.5564311895389
306,608.5590172671835
307,608.5418552396317
308,608.5071260202416
309,608.4584400919595
310,608.4003726985043
311,608.3379996980366
312,608.2764860104963
313,608.2207517212196
314,608.1752099092017
315,608.1435479963288
316,608.1285174130221
317,608.1317062009828
318,608.1533025674977
319,608.1919077317374
320,608.2444907512728
321,608.3065690637269
322,608.372648737666
323,608.4368861918269
324,608.4938638672977
325,608.539336065906
326,608.5708101834656
327,608.5878681604687
328,608.5921820872449
329,608.5872218386733
330,608.5776835935208
331,608.568693862322
332,608.5648836979302
333,608.5694828907435
334,608.5836195959324
335,608.6059885841604
336,608.6329720921487
337,608.6591972155288
338,608.6784247309793
339,608.6845997260804
340,608.6728676512641
341,608.6403829846157
342,608.5867992973158
343,608.514395204863
344,608.4278414675639
345,608.3336565517429
346,608.239436229736
347,608.1529697392908
348,608.0813617977557
349,608.0302607685948
350,608.0032526665561
351,608.0014424915191
352,608.0232338316696
353,608.0643292918718
354,608.1179799448604
355,608.1754965118538
356,608.2270041728673
357,608.2623848030204
358,608.2723094322517
359,608.2492306145642
360,608.1881963446216
361,608.0873752200838
362,607.9482417806458
363,607.7754382747054
364,607.5763733548486
365,607.360623367584
366,607.1391826921865
367,606.9235989373121
368,606.7250455293502
369,606.5534147445225
370,606.4165313740488
371,606.3195801757189
372,606.2648164773038
373,606.2515951433627
374,606.2767070902346
375,606.3349580688823
376,606.419879036675
377,606.5244414725219
378,606.6416712845861
379,606.7651019174301
380,606.8890608044818
381,607.0088208102986
382,607.1206570532878
383,607.2218366754383
384,607.3105543363079
385,607.3858223575951
386,607.4473301125012
387,607.4952932549207
388,607.5303122483746
389,607.5532541374378
390,607.5651712687768
391,607.5672758122242
392,607.5609856323643
393,607.5480349352831
394,607.530609161405
395,607.5114353493685
396,607.4937525543745
397,607.4811109711093
398,607.4769988802958
399,607.4843539958937
400,607.5050588045116
401,607.5395341046569
402,607.5865234820966
403,607.6431094861334
404,607.7049459456002
405,607.7666576612831
406,607.8223512344291
407,607.8661844006476
408,607.8929478356847
409,607.8986195090383
410,607.8808473416681
411,607.839298298111
412,607.775802075302
413,607.6942432682505
414,607.6002167147891
415,607.500520417029
416,607.4025807737462
417,607.3138802942541
418,607.2414163565996
419,607.1911952379172
420,607.1677708394564
421,607.1738560012847
422,607.2100437202736
423,607.2746715194082
424,607.3638537904845
425,607.4716999336657
426,607.5907297779452
427,607.7124863778448
428,607.8283195175857
429,607.930266276052
430,608.0119006877616
431,608.0689944180523
432,608.0998587980853
433,608.1053261420903
434,608.0884236282884
435,608.0538405350674
436,608.007288247366
437,607.9548397874961
438,607.902330598683
439,607.8548908899309
440,607.8166474413638
441,607.7905899481028
442,607.7785662505094
443,607.7813567807917
444,607.7987710438754
445,607.829714661863
446,607.8722152508038
447,607.9234579732456
448,607.9799146055257
449,608.0376187485188
450,608.0925697851133
451,608.1411909619495
452,608.1807500999486
453,608.2096717976858
454,608.2277088752816
455,608.2359742833719
456,608.236845985184
457,608.2337482239959
458,608.2308029546025
459,608.2323586097881
460,608.2424442736806
461,608.2642393614549
462,608.2996546421658
463,608.349080340782
464,608.4113029577027
465,608.4835635223496
466,608.5617340893148
467,608.6406071184925
468,608.7143032270235
469,608.7767958878502
470,608.8225283177827
471,608.8470681233564
472,608.8477169504008
473,608.823970622167
474,608.7777246225752
475,608.7131569146619
476,608.6362884846833
477,608.5542910826631
478,608.4746544211393
479,608.4043347288048
480,608.3489910872883
481,608.3123902904072
482,608.2960382700212
483,608.2990792515195
484,608.3184861585039
485,608.3495387462227
486,608.3865438210801
487,608.423699063143
488,608.4559582770933
489,608.4797452758429
490,608.4933947062983
491,608.4972601249931
492,608.4935010099124
493,608.4856184437931
494,608.4778393501066
495,608.474451763742
496,608.4791805972274
497,608.4946757476362
498,608.5221655521924
499,608.5613100012579
500,608.610270894873
501,608.6659943327636
502,608.7246673639214
503,608.7822716091462
504,608.8351290253746
505,608.8803308144527
506,608.9159641129186
507,608.9411028214129
508,608.9555993348857
509,608.9597760225334
510,608.9541345582282
511,608.9391679536164
512,608.9153057001636
513,608.8829823174044
514,608.8427948630185
515,608.7956933484692
516,608.7431354400754
517,608.6871419665789
518,608.63020886026
519,608.5750636977979
520,608.5243022199713
521,608.4799855766375
522,608.4432988069457
523,608.4143586117499
524,608.3922221982031
525,608.375100659171
526,608.3607336069534
527,608.3468477642683
528,608.3316049008932
529,608.3139459249442
530,608.2937613118016
531,608.2718602288437
532,608.2497571337537
533,608.2293291876567
534,608.2124167997351
535,608.2004466311589
536,608.194147320882
537,608.1933992277338
538,608.1972240548348
539,608.2038963898184
540,608.2111505732066
541,608.2164587191709
542,608.2173620810026
543,608.211833759193
544,608.1986295368412
545,608.1775629438138
546,608.1496441353966
547,608.117052520811
548,608.0829519659363
549,608.0511857820284
550,608.0259000861706
551,608.0111402132857
552,608.0104496122882
553,608.0264838223989
554,608.0606478507111
555,608.1127786572132
556,608.1809166359562
557,608.2612284589427
558,608.3481477829087
559,608.4347789810885
560,608.5135570551149
561,608.5770866461728
562,608.619023350262
563,608.6348404639767
564,608.6223540328148
565,608.5819398932217
566,608.516434825652
567,608.4307551130357
568,608.3313037036751
569,608.2252783274594
570,608.1200084528649
571,608.0224107190265
572,607.9385814459445
573,607.8734951114121
574,607.8307790500726
575,607.8125652582744
576,607.8194351132821
577,607.8504569863062
578,607.9032984698334
579,607.9743979247231
580,608.0591876288556
581,608.1523510075245
582,608.2480848070542
583,608.3403532459065
584,608.4231586783916
585,608.4908724341153
586,608.5386469230342
587,608.5628833477517
588,608.561691800474
589,608.5352696980636
590,608.4861343929865
591,608.4191576502978
592,608.3413534818812
593,608.2613796711686
594,608.1887476428611
595,608.1327945817387
596,608.1015334296518
597,608.1005401239894
598,608.1320572411217
599,608.1944844701793
600,608.2823764146549
601,608.386978046718
602,608.4972292902447
603,608.6010975903877
604,608.6870577696044
605,608.7455219500498
606,608.7700272817925
607,608.7580224069778
608,608.7111547723377
609,608.635037090315
610,608.5385436293882
611,608.4327391516363
612,608.3295666726007
613,608.2404227169139
614,608.1747554817019
615,608.138849068092
616,608.1349849374956
617,608.1611547604689
618,608.2114141337071
619,608.2768365954317
620,608.3468992076723
621,608.4110480931693
622,608.460175303615
623,608.4877766022989
624,608.4906279047473
625,608.4689066939228
626,608.4257944943728
627,608.3667007817993
628,608.2982983814126
629,608.2275420166632
630,608.1607950085884
631,608.1031521823644
632,608.0580184455932
633,608.0269688600134
634,608.0098806399454
635,608.0052972613823
636,608.0109524963414
637,608.024342521088
638,608.0432106870534
639,608.0658364061229
640,608.0910923285927
641,608.1183063657463
642,608.1470019439961
643,608.1765955920406
644,608.2061262810275
645,608.234084375172
646,608.2583914942559
647,608.2765474591306
648,608.2859184630572
649,608.2841180007275
650,608.269435906207
651,608.2412769902714
652,608.2005565170989
653,608.1499735939608
654,608.0940737902475
655,608.0390356100849
656,607.9921628971637
657,607.9611160383776
658,607.952958196432
659,607.973131956025
660,608.0245171884994
661,608.1067390750583
662,608.215879329632
663,608.3446892824219
664,608.4833183715132
665,608.6204695793549
666,608.7447973742194
667,608.8463058440511
668,608.9175081718319
669,608.9541693057945
670,608.9555467833977
671,608.9241440186087
672,608.8650734337308
673,608.7851742239685
674,608.6920365670782
675,608.5930663063195
676,608.4947016873203
677,608.4018719360733
678,608.3177554873878
679,608.2438451274842
680,608.1802683670464
681,608.1262646100155
682,608.0806990764402
683,608.042499561539
684,608.0109355254463
685,607.9857136390891
686,607.966920036419
687,607.954872851511
688,607.9499498634881
689,607.9524348050309
690,607.9624008799778
691,607.9796353798247
692,608.003602391635
693,608.033433835531
694,608.0679397577792
695,608.1056427906123
696,608.1448499421915
697,608.1837596232235
698,608.2205803383754
699,608.2536374598761
700,608.2814636788243
701,608.3028859998716
702,608.3171274455777
703,608.3239327332857
704,608.323698345579
705,608.3175432397715
706,608.3072283101212
707,608.2948613300889
708,608.2824151927396
709,608.2711925900927
710,608.261422842152
711,608.2521418382528
712,608.2414022677282
713,608.226745107498
714,608.2057923411863
715,608.1768132892199
716,608.139147420912
717,608.0934063743093
718,608.041422417858
719,607.9859624930996
720,607.9302773521946
721,607.8775895016976
722,607.8306322399811
723,607.7913325535652
724,607.7606864084624
725,607.7388183520986
726,607.7251720368915
727,607.7187670255068
728,607.7184783436302
729,607.723318994945
730,607.7327046111234
731,607.7466579687219
732,607.7658973417465
733,607.79176721853
734,607.8260078897374
735,607.8703977691238
736,607.9263231680901
737,607.994347399413
738,608.0738768936247
739,608.163027679593
740,608.2587464801375
741,608.3571604228606
742,608.4540719663747
743,608.5454948982097
744,608.6281266706276
745,608.6996695942553
746,608.7589511699541
747,608.8058413242575
748,608.8410084390252
749,608.8655858136883
750,608.8808269028405
751,608.8878150347969
752,608.8872701143657
753,608.8794632041104
754,608.8642192311869
755,608.8409788756474
756,608.8089063366136
757,608.7670463614345
758,608.7145320715963
759,608.6508308347906
760,608.5760010712942
761,608.4909181801561
762,608.3974128655126
763,608.2982620261394
764,608.1969928344216
765,608.0975059044514
766,608.0035826328348
767,607.9183908316481
768,607.84411560185
769,607.781809414619
770,607.7314884010996
771,607.6924272402222
772,607.663551819328
773,607.643814039781
774,607.6324541297932
775,607.6290948398924
776,607.6336499862739
777,607.6460628022483
778,607.665924805111
779,607.6920603716148
780,607.722180003061
781,607.7526983764749
782,607.7787883015745
783,607.7947088531649
784,607.7944109589898
785,607.7723818840036
786,607.724631505724
787,607.649658432931
788,607.5491989850474
789,607.4285811471434
790,607.296568584254
791,607.1646649693176
792,607.0459412174641
793,606.9535329115721
794,606.899017662329
795,606.8909121589717
796,606.9335174664684
797,607.0262861648894
798,607.163800737265
799,607.3363655654224
800,607.5311404192171
801,607.7336752508944
802,607.9296386407385
803,608.1064836444376
804,608.2547938795997
805,608.3691094559957
806,608.4481324865483
807,608.4943288683041
808,608.5130470130555
809,608.5113417003952
810,608.4967160169479
811,608.4759831284193
812,608.4544079589564
813,608.4352257651029
814,608.4195706860324
815,608.4067948633085
816,608.3951054504979
817,608.3823831623569
818,608.3669969522255
819,608.3484335770067
820,608.3276210924726
821,608.3069076886796
822,608.2897346773217
823,608.2801063622607
824,608.2819946011512
825,608.2988035308103
826,608.3329679960152
827,608.3857000107408
828,608.4568585736758
829,608.5449084822451
830,608.6469491863462
831,608.7588213851952
832,608.8753162630688
833,608.9905042685137
834,609.0981727199513
835,609.1923358399528
836,609.2677667956879
837,609.3204899328041
838,609.348158986276
839,609.3502462169973
840,609.3279915970929
841,609.284109679131
842,609.2223092681741
843,609.1467278010281
844,609.0614034095968
845,608.9698946831437
846,608.8751130706111
847,608.7793692817929
848,608.6845720200505
849,608.5924770551892
850,608.5048872639588
851,608.4237479732509
852,608.3511367376422
853,608.2891805980651
854,608.2399360838893
855,608.2052493385258
856,608.1865996570531
857,608.1849341875327
858,608.2005158806742
859,608.2328142717342
860,608.2804639965135
861,608.341302492946
862,608.4124812153026
863,608.4906305766759
864,608.5720523861293
865,608.652912643458
866,608.7294086496331
867,608.7978910896624
868,608.8549409886626
869,608.8974302111468
870,608.9226135543357
871,608.9282868949474
872,608.912997388738
873,608.8762449619314
874,608.8186146866916
875,608.741824835575
876,608.6487125819691
877,608.5431713604906
878,608.4300226675099
879,608.3147957151089
880,608.203414283691
881,608.1018248447656
882,608.0156117738874
883,607.9496312112254
884,607.9076763037392
885,607.8921793436132
886,607.9039624972899
887,607.9420671228331
888,608.0037147742414
889,608.0844594269306
890,608.178561579882
891,608.279559014257
892,608.3809545178613
893,608.4769082365596
894,608.5628160107304
895,608.6356774557979
896,608.6942074561349
897,608.7387015076928
898,608.7707000555287
899,608.7925070063663
900,608.8066284262436
901,608.8152212638058
902,608.8196549224083
903,608.8202650776348
904,608.8163322129288
905,608.8062789540459
906,608.7880554204186
907,608.7596536571497
908,608.7196618267157
909,608.6677557496675
910,608.6050367273787
911,608.5341510499608
912,608.4591615172159
913,608.385182188364
914,608.317825318749
915,608.2625336667774
916,608.2238821971737
917,608.2049373873881
918,608.2067622789134
