frame_number,force
0,611.4354800000386
1,611.1689117612173
2,610.9130774605104
3,610.6779817780756
4,610.4722562387301
5,610.3026465724204
6,610.1736398054805
7,610.0872390892775
8,610.0429188920539
9,610.0377983236594
10,610.0670304167872
11,610.1243407340974
12,610.2026036961224
13,610.2943509587586
14,610.3921618847342
15,610.4889553422366
16,610.5782383795037
17,610.6543543818052
18,610.7127334866213
19,610.7501151667988
20,610.7647040975257
21,610.7562284394578
22,610.7258814422432
23,610.676142757059
24,610.6104966708684
25,610.5330826295681
26,610.4483248761184
27,610.3605954566442
28,610.2739625780631
29,610.1920539506398
30,610.1180258913415
31,610.054592367061
32,610.0040507022876
33,609.9682474950034
34,609.9484569943656
35,609.9451853209466
36,609.9579489670504
37,609.9850905527015
38,610.023691263626
39,610.0696287664623
40,610.1178170369118
41,610.1626465369241
42,610.1986112965263
43,610.2210614239265
44,610.2269664167097
45,610.2155375034476
46,610.1885574881301
47,610.150311863483
48,610.1070906326436
49,610.0663130245407
50,610.0354040791351
51,610.020614424381
52,610.0260061403947
53,610.0528107310846
54,610.0992928221627
55,610.1611367931678
56,610.2322478815493
57,610.3057683779595
58,610.3750787420664
59,610.4345820463341
60,610.4801474501571
61,610.5091974050813
62,610.5205278725327
63,610.5140076464356
64,610.490296039861
65,610.4506673530469
66,610.3969667540787
67,610.3316671066266
68,610.2579574306482
69,610.1797730387352
70,610.1016835842435
71,610.0285972690835
72,609.965305094382
73,609.9159465303599
74,609.8835046876202
75,609.8694351888437
76,609.8735083326709
77,609.893904930143
78,609.9275532062416
79,609.9706325615838
80,610.0191222953249
81,610.069269186958
82,610.1178911156132
83,610.1624947397745
84,610.2012309923506
85,610.2327356094372
86,610.255915246081
87,610.2697476700038
88,610.2731549777506
89,610.264977665441
90,610.2440474893847
91,610.2093504274459
92,610.1602749070526
93,610.0969250484126
94,610.020441799792
95,609.9332457485008
96,609.8391167146588
97,609.7430541184788
98,609.6509082024338
99,609.5688269996263
100,609.5026098994467
101,609.4570748358315
102,609.4355312991622
103,609.4394261310783
104,609.4682090100652
105,609.519440975023
106,609.5891271130573
107,609.672203375792
108,609.7630777992035
109,609.8561343932421
110,609.9461404716644
111,610.0285303395794
112,610.099557676544
113,610.1563257490008
114,610.1967330477987
115,610.2194005699913
116,610.2236463678587
117,610.2095364974415
118,610.1779941300522
119,610.1309150777431
120,610.0712233773467
121,610.002803555568
122,609.9302733765027
123,609.8586145802219
124,609.792735869084
125,609.737064653205
126,609.6952402060695
127,609.6699357692916
128,609.6627994111345
129,609.674481414682
130,609.704708683365
131,609.7523763239444
132,609.8156492142285
133,609.8920861675421
134,609.9788035425721
135,610.0726825235918
136,610.1705971788965
137,610.2696093668538
138,610.3670689453558
139,610.4605936956985
140,610.5479650150919
141,610.6270219856906
142,610.6956435661231
143,610.7518758363019
144,610.7941977447233
145,610.8218478397717
146,610.8350934182821
147,610.8353345738582
148,610.8249876025385
149,610.8071595427455
150,610.7851865621212
151,610.7621454974611
152,610.7404483742603
153,610.7215956980066
154,610.7061116144654
155,610.6936373502871
156,610.6831380168014
157,610.6731808068618
158,610.6622519231712
159,610.6490817480652
160,610.6329438010491
161,610.613887656918
162,610.5928630838596
163,610.5717018077684
164,610.5529509412621
165,610.5395871353259
166,610.5346640176107
167,610.5409488179071
168,610.5605909466074
169,610.5948470332688
170,610.6438766239663
171,610.7066227841855
172,610.7807905555202
173,610.8629266107368
174,610.9485972926166
175,611.032669962557
176,611.1097082541504
177,611.1744687603439
178,611.2224363667079
179,611.2502951268051
180,611.2562396076572
181,611.2400878217067
182,611.203220336088
183,611.148400153387
184,611.079519831122
185,611.0012985946294
186,610.918934131139
187,610.8377104839126
188,610.762574981248
189,610.6977176082227
190,610.6462070072974
191,610.6097478419589
192,610.5886125303308
193,610.5817609601713
194,610.5871090649804
195,610.601872573444
196,610.6229168619402
197,610.6470731497006
198,610.6714014195246
199,610.6933806337885
200,610.711005993424
201,610.7227860741219
202,610.7276555736557
203,610.724842029683
204,610.713737930879
205,610.6938259353279
206,610.6646843976488
207,610.6260712184334
208,610.5780593719481
209,610.5211896984864
210,610.4566154123276
211,610.38622079319
212,610.3126889075066
213,610.2394818876035
214,610.1707069051303
215,610.1108724499306
216,610.0645692299014
217,610.0361193957416
218,610.0292261466402
219,610.0466350491621
220,610.0898071386126
221,610.1586145900629
222,610.2510965334831
223,610.3633351100984
224,610.4895123669852
225,610.622185835526
226,610.7527866115869
227,610.8723084520205
228,610.9721232245463
229,611.0448308643419
230,611.0850369063414
231,611.0899535938078
232,611.0597448332991
233,610.9975736467728
234,610.9093472806983
235,610.803184703387
236,610.6886611838651
237,610.5759118838728
238,610.4746877877807
239,610.3934522710009
240,610.3385963373681
241,610.3138420243473
242,610.3198975100311
243,610.3544192278389
244,610.4123153593323
245,610.486386757787
246,610.5682509764905
247,610.6494385421034
248,610.7224977439959
249,610.7819186383085
250,610.8247119547859
251,610.8505523459428
252,610.8614906421957
253,610.8613224996739
254,610.8547469645989
255,610.8464566161035
256,610.8402913320714
257,610.8385764123777
258,610.8417478474641
259,610.8483327905267
260,610.85529818232
261,610.8587054323582
262,610.8545306881128
263,610.8394641798855
264,610.8115117047056
265,610.7702783230934
266,610.7168961866903
267,610.6536437824559
268,610.5833738326435
269,610.508905322188
270,610.4325293834524
271,610.3557293798871
272,610.2791452056227
273,610.2027517516847
274,610.1261858214932
275,610.0491410529381
276,609.9717525443644
277,609.8949109882781
278,609.8204724180064
279,609.7513457803252
280,609.6914336460544
281,609.6453852290707
282,609.6181261139058
283,609.6141695650674
284,609.636777780152
285,609.6871071877647
286,609.7635188039119
287,609.8612410449724
288,609.972525658925
289,610.0873432033582
290,610.194543454673
291,610.2832888095579
292,610.3444917346156
293,610.3719809267878
294,610.3631915138208
295,610.3192974507888
296,610.2448320990554
297,610.1469309408313
298,610.0343632602082
299,609.916514230387
300,609.8024548694287
301,609.7001951015334
302,609.616153371939
303,609.5548194697836
304,609.5185699626747
305,609.5076186588757
306,609.520112712754
307,609.5523913293895
308,609.5994098962266
309,609.6553073610031
310,609.7140621075291
311,609.7701459159783
312,609.8190615524784
313,609.8576586217769
314,609.8841752930232
315,609.8980338775816
316,609.8994883148247
317,609.889249989138
318,609.8682010256988
319,609.8372583697809
320,609.7973967115666
321,609.7497893083334
322,609.6959961635753
323,609.6381244242588
324,609.5789032069162
325,609.5216476406462
326,609.4701225193194
327,609.428336789233
328,609.400297652622
329,609.3897383686162
330,609.3998249143676
331,609.4328527769632
332,609.4899632418933
333,609.5709239952456
334,609.674013008601
335,609.7960154513634
336,609.9323173820654
337,610.0770867365417
338,610.2235608465375
339,610.364465262996
340,610.4925513077941
341,610.6011909452695
342,610.6849461129051
343,610.7400402572647
344,610.7646818431557
345,610.7592071728449
346,610.7260263772965
347,610.6693826133343
348,610.594965070253
349,610.5094299026338
350,610.4198691382306
351,610.3332423499409
352,610.2557757950703
353,610.1923500520315
354,610.1459324178949
355,610.1171497506368
356,610.1041217836121
357,610.1026586352721
358,610.10685573591
359,610.1100169142522
360,610.1057472679946
361,610.0890143523604
362,610.0569872497481
363,610.0095193536919
364,609.9492199546056
365,609.881135388679
366,609.8121169124202
367,609.7499866099498
368,609.7026254987554
369,609.6771016135501
370,609.6789356537599
371,609.7115743176331
372,609.7761082426888
373,609.8712319575832
374,609.9934082398678
375,610.1371893153197
376,610.2956651655301
377,610.4610273842281
378,610.6252300131321
379,610.7807029494361
380,610.9210494835523
381,611.0416464979415
382,611.1400668872647
383,611.2162610080371
384,611.2724611848543
385,611.3128020680102
386,611.3426804621635
387,611.367916945066
388,611.3938286830145
389,611.4243634072011
390,611.4614511086324
391,611.5046877425316
392,611.5513891614889
393,611.5969738358449
394,611.6355748199268
395,611.6607616986795
396,611.6662739868844
397,611.6467047528721
398,611.598094243268
399,611.518390772455
400,611.4077303759574
401,611.268497254984
402,611.1051568581122
403,610.9238928178856
404,610.7321126544522
405,610.5379011110984
406,610.3494887127698
407,610.1747741748707
408,610.0209087747262
409,609.8939329226816
410,609.7984553512835
411,609.7373799824475
412,609.7117050904144
413,609.7204317791128
414,609.760614338645
415,609.8275640515698
416,609.915190763988
417,610.0164427157096
418,610.1237905167909
419,610.229702548988
420,610.3270789035441
421,610.4096372789546
422,610.472257720233
423,610.5112854065333
424,610.5247712610316
425,610.5126177346917
426,610.476605729234
427,610.4203034765412
428,610.3488769073589
429,610.2688167149067
430,610.1875778339808
431,610.1131187071368
432,610.0533504135793
433,610.0155482846473
434,610.005802669538
435,610.0285700018793
436,610.0863554310316
437,610.1795474376637
438,610.3064259996233
439,610.4633481566287
440,610.6450747744007
441,610.8451729960015
442,611.056438623953
443,611.2713182577983
444,611.4823310376631
445,611.6824734344748
446,611.8655595302787
447,612.0264385446081
448,612.1610546428909
449,612.2663627049925
450,612.340167242237
451,612.3809840908291
452,612.3880175498565
453,612.361298730871
454,612.3019597365771
455,612.2125520095683
456,612.0972884275511
457,611.9621093997578
458,611.8145236382607
459,611.6632258479449
460,611.5175342877448
461,611.3867225335728
462,611.2793409569854
463,611.2026251024912
464,611.1620600623319
465,611.161118337853
466,611.2011429378582
467,611.2813358975189
468,611.3988308246851
469,611.5488474740159
470,611.7249325683954
471,611.919295394631
472,612.1232514071663
473,612.3277710537631
474,612.5240868867087
475,612.7042683222842
476,612.8616604873866
477,612.991105636392
478,613.0889164382735
479,613.1526416950751
480,613.1807323466267
481,613.1722465324593
482,613.1267129655425
483,613.0442112267614
484,612.9256471207221
485,612.7731277677896
486,612.5902992937615
487,612.382513332582
488,612.1567360817663
489,611.9211853159827
490,611.684742789945
491,611.456220663193
492,611.2435689620628
493,611.0531175270463
494,610.888956870159
495,610.7525624298462
496,610.6427394722724
497,610.5559160762514
498,610.4867555512506
499,610.4290044164424
500,610.37643991733
501,610.3237455457445
502,610.2671473416829
503,610.2046995943407
504,610.1361984309173
505,610.0627875610952
506,609.9863734683917
507,609.9089857336331
508,609.8322110091445
509,609.756797388066
510,609.6824745973147
511,609.6079877848174
512,609.5313172718343
513,609.4500427075654
514,609.3617857911087
515,609.2646341542272
516,609.1574404680597
517,609.0399300761342
518,608.9126275978049
519,608.7766872769193
520,608.6337421192906
521,608.4858583086416
522,608.3356101697949
523,608.1862155447138
524,608.0416360047985
525,607.9065687992617
526,607.7863096641051
527,607.686500547516
528,607.6127763470189
529,607.5703150474453
530,607.5633099522203
531,607.5944218175922
532,607.664300008593
533,607.7712588207079
534,607.9111658579359
535,608.0775706847979
536,608.2620839744608
537,608.4549936854474
538,608.6460603860976
539,608.825383195882
540,608.9842038552472
541,609.1155342861297
542,609.2145403349186
543,609.2786737208027
544,609.3076005996246
545,609.3030065120194
546,609.2683473250776
547,609.2085779704777
548,609.1298610110297
549,609.0392553916237
550,608.9443982273804
551,608.8531923240268
552,608.7734913824677
553,608.7127516188544
554,608.6776171573816
555,608.673435547353
556,608.7037467401137
557,608.7698304101485
558,608.8704113191295
559,609.0016013927288
560,609.1571103081799
561,609.3287098106506
562,609.5069099000622
563,609.681788204669
564,609.8438878282658
565,609.9850686780701
566,610.0991860324519
567,610.1824896750894
568,610.2336840197855
569,610.2536584311334
570,610.2449774788658
571,610.2112880545428
572,610.1568177774587
573,610.086086736813
574,610.0038513622914
575,609.9151959240743
576,609.8256352429859
577,609.7411076494355
578,609.6677913927248
579,609.6117325956982
580,609.5783188506199
581,609.5716792616162
582,609.5941347167916
583,609.6458375100308
584,609.7247072062207
585,609.8266931271078
586,609.9463021831131
587,610.0772661822114
588,610.2132134411426
589,610.3482495136368
590,610.4774084632702
591,610.5969749735394
592,610.7046828669414
593,610.7997770578197
594,610.8829124255677
595,610.955881415737
596,611.0212115859455
597,611.0817228270298
598,611.1401451173199
599,611.198858882719
600,611.2597514304729
601,611.3241266224665
602,611.3925950245542
603,611.46490581026
604,611.5397320778557
605,611.6144698637871
606,611.6851514242819
607,611.7465858575285
608,611.7928003690986
609,611.8177698576683
610,611.8163317776617
611,611.7851261676541
612,611.7233886116505
613,611.6334491949136
614,611.520841722289
615,611.3939895108327
616,611.2634915733759
617,611.1410829413521
618,611.0383918972154
619,610.9656610486512
620,610.9306185768096
621,610.9376666565098
622,610.9875028488616
623,611.0772206638874
624,611.2008570489074
625,611.3502812292398
626,611.5162657322935
627,611.6895540182619
628,611.8617503899263
629,612.0259161933421
630,612.176843967807
631,612.3110555038091
632,612.4266003996241
633,612.5227231883424
634,612.5994475579677
635,612.6571233345395
636,612.69600333819
637,612.7159426272891
638,612.7163072072318
639,612.6961257993049
640,612.6544395499835
641,612.5907469138746
642,612.5054309809715
643,612.4000805024219
644,612.2776452939628
645,612.1423926498944
646,611.999663957621
647,611.8554730652968
648,611.7160224263749
649,611.5872167480752
650,611.4742276706073
651,611.3811324135402
652,611.3106317123609
653,611.2638426481453
654,611.2401561385855
655,611.2371566685891
656,611.2506255361563
657,611.2746688723512
658,611.3020086454595
659,611.3244553090834
660,611.3335627083721
661,611.3214465611029
662,611.2817095616051
663,611.2103620888378
664,611.1065872557137
665,610.9731951269938
666,610.8166399603849
667,610.646525784375
668,610.4745993313433
669,610.3133246826844
670,610.1742347703109
671,610.0663308253336
672,609.9948172095739
673,609.9603956012153
674,609.9592196369854
675,609.9834821715514
676,610.0225109248355
677,610.0641865956017
678,610.0964643241767
679,610.1087816176831
680,610.0931787290301
681,610.0450274249407
682,609.9633360137819
683,609.8506535500569
684,609.7126307392414
685,609.5573187812477
686,609.3943084961048
687,609.2338223904551
688,609.0858576559978
689,608.9594432396519
690,608.8620388988489
691,608.799079204094
692,608.7736522691679
693,608.7863079381954
694,608.8350143464689
695,608.9153015588746
696,609.0206153942489
697,609.1428584827496
698,609.2730579963973
699,609.402090683363
700,609.5214007895883
701,609.6236503602056
702,609.7032432886284
703,609.7566650628105
704,609.7825892826
705,609.7817372430706
706,609.7565318516079
707,609.7106277237503
708,609.6484043234135
709,609.5744906509849
710,609.4933689690234
711,609.4090869816829
712,609.325089708507
713,609.2441673570881
714,609.1685075357112
715,609.0998295822571
716,609.0395563369284
717,608.9889581034233
718,608.9492093917097
719,608.9213363362264
720,608.9060820607682
721,608.9037528420242
722,608.9141130895339
723,608.9363716942885
724,608.9692617751524
725,609.0111831036965
726,609.0603690179878
727,609.1150561042301
728,609.173651464086
729,609.2348854981753
730,609.2979155370167
731,609.3623390361918
732,609.4280996255723
733,609.4953064889544
734,609.5640109191586
735,609.6339892618901
736,609.7045816789339
737,609.7746324529849
738,609.8425566637432
739,609.9065193721889
740,609.9646764932937
741,610.0154104525002
742,610.0575036385545
743,610.090220226957
744,610.1132973390785
745,610.1268716985079
746,610.131388983295
747,610.1275529519942
748,610.1163529201883
749,610.0991614536038
750,610.0778482823938
751,610.0548408408176
752,610.033079580997
753,610.0158518997652
754,610.006528377999
755,610.0082578862766
756,610.0236890799881
757,610.0547673356447
758,610.1026195908554
759,610.1675062516811
760,610.2488055040325
761,610.3450034892827
762,610.4536834475026
763,610.5715255161067
764,610.6943399811242
765,610.8171599086428
766,610.9344195910044
767,611.0402463598018
768,611.1288813888748
769,611.1952052204153
770,611.2352939806068
771,611.2469097745909
772,611.2298447996747
773,611.1860764743369
774,611.1197309422654
775,611.0368790048572
776,610.9451927256541
777,610.8534784662057
778,610.7710891544675
779,610.7072204394293
780,610.670119478658
781,610.6662754014105
782,610.6996986176118
783,610.7714107602269
784,610.8792438625168
785,611.017991299673
786,611.1798914023742
787,611.3553821425587
788,611.5340386923687
789,611.7055803317947
790,611.8608135630501
791,611.9923836368584
792,612.095246477683
793,612.1668367630932
794,612.2069703784293
795,612.2175550761467
796,612.2021845884574
797,612.1656725716806
798,612.1135626441984
799,612.0516391591636
800,611.9854606763544
801,611.9199426113868
802,611.8590246930944
803,611.8054650831966
804,611.7607946821691
805,611.7254358606909
806,611.6989473271428
807,611.6803219012295
808,611.6682588113079
809,611.6613631982668
810,611.6582726807841
811,611.65774188117
812,611.65871786641
813,611.6604249082984
814,611.6624583424662
815,611.6648662259194
816,611.6681782822199
817,611.6733366903721
818,611.6815017825191
819,611.6937452490057
820,611.7106919303941
821,611.7322101736613
822,611.7572582259148
823,611.7839583169214
824,611.8099031206455
825,611.8326297646594
826,611.850149562312
827,611.8614091348404
828,611.8665766872424
829,611.8670828243573
830,611.8653942096573
831,611.8645621945972
832,611.8676479876945
833,611.8771459157175
834,611.8944991164681
835,611.9197592027975
836,611.9514153339536
837,611.9864112338656
838,612.020362898534
839,612.0479709637626
840,612.0635931760252
841,612.0619162397711
842,612.0386476854645
843,611.9911365741077
844,611.9188302749952
845,611.8234881798851
846,611.7091028371296
847,611.5815239707033
848,611.4478344040982
849,611.3155702729532
850,611.1918964943068
851,611.0828468325872
852,610.9927275719109
853,610.9237672499577
854,610.8760650699616
855,610.8478406452058
856,610.8359266400723
857,610.836401329912
858,610.8452508125407
859,610.858969067176
860,610.8750185642714
861,610.8920767473273
862,610.9100109135328
863,610.9295807559929
864,610.9519473528997
865,610.9781211722477
866,611.0084809771298
867,611.0424589551143
868,611.078448703033
869,611.113958918498
870,611.1459939338299
871,611.1715917785773
872,611.1884069340698
873,611.1952037119726
874,611.1921369699277
875,611.1807436585163
876,611.1636413263329
877,611.1440044792829
878,611.1249435931007
879,611.1089296714947
880,611.0973837200414
881,611.0904945441224
882,611.0872647370672
883,611.0857417001333
884,611.0833809807324
885,611.0774999545891
886,611.0657827869177
887,611.046777448256
888,611.0202964572525
889,610.9876257208881
890,610.9514759853575
891,610.9156647781789
892,610.8845713035417
893,610.8624535767013
894,610.8527497443148
895,610.8574931645755
896,610.8769517985609
897,610.9095652847573
898,610.9522023681656
899,611.0006979844629
900,611.050563154021
901,611.0977169892403
902,611.1390932707448
903,611.1730197101207
904,611.1993239351368
905,611.2191640198463
906,611.2346176876777
907,611.248104130276
908,611.2617526539397
909,611.2768546461197
910,611.2935202491426
911,611.3106071759505
912,611.3259149389495
913,611.3365697037076
914,611.3394878778317
915,611.3318133685669
916,611.3112638031702
917,611.2763685451047
