frame_number,force
0,544.812560005089
1,544.8325942946495
2,544.8524928600946
3,544.8721208330819
4,544.8913450418894
5,544.9100348223939
6,544.9280627847438
7,544.9453055228439
8,544.9616442561909
9,544.9769653964008
10,544.9911610336414
11,545.0041293410629
12,545.0157748982622
13,545.0260089377622
14,545.0347495209799
15,545.0419216515999
16,545.0474573347761
17,545.0512955908621
18,545.0533824325233
19,545.0536708133162
20,545.052120553725
21,545.0486982480417
22,545.0433771533347
23,545.0361370602611
24,545.0269641442029
25,545.0158507939036
26,545.0027954135057
27,544.9878021930497
28,544.9708808426803
29,544.9520462872941
30,544.9313183204479
31,544.9087212177346
32,544.8842833099047
33,544.8580365155213
34,544.8300158330479
35,544.8002587934212
36,544.7688048759502
37,544.7356948922217
38,544.7009703443807
39,544.6646727657743
40,544.6268430534172
41,544.5875208028573
42,544.5467436567478
43,544.5045466788247
44,544.460961764921
45,544.4160171020737
46,544.3697366858702
47,544.3221399051674
48,544.2732412022606
49,544.2230498154047
50,544.1715696090292
51,544.1187989946626
52,544.0647309426454
53,544.0093530817845
54,543.9526478818518
55,543.8945929125939
56,543.8351611726814
57,543.7743214824031
58,543.712038934317
59,543.6482753961925
60,543.5829900605355
61,543.5161400348476
62,543.4476809662361
63,543.3775676927479
64,543.3057549121817
65,543.2321978580499
66,543.1568529725414
67,543.0796785677012
68,543.0006354679197
69,542.9196876285716
70,542.8368027267552
71,542.7519527200712
72,542.6651143682374
73,542.5762697109338
74,542.4854064947752
75,542.3925185431985
76,542.2976060653109
77,542.2006759029779
78,542.1017417188202
79,542.0008241303739
80,541.8979507971789
81,541.7931564681941
82,541.6864829967096
83,541.5779793287359
84,541.4677014689743
85,541.3557124264768
86,541.242082140542
87,541.1268873867552
88,541.0102116634224
89,540.8921450592455
90,540.7727841029364
91,540.6522315942907
92,540.5305964145954
93,540.4079933126873
94,540.28454266155
95,540.1603701789358
96,540.0356066045435
97,539.9103873264669
98,539.784851951115
99,539.6591438130423
100,539.5334094233536
101,539.4077978572088
102,539.2824600824565
103,539.1575482326692
104,539.0332148288276
105,538.9096119546682
106,538.7868903914781
107,538.6651987191082
108,538.5446823912885
109,538.4254827948395
110,538.3077363038504
111,538.1915733411299
112,538.0771174602513
113,537.9644844624293
114,537.8537815629779
115,537.7451066214857
116,537.6385474478582
117,537.5341811937685
118,537.4320738365527
119,537.332279760271
120,537.2348414363865
121,537.1397892046473
122,537.0471411537474
123,536.9569031012226
124,536.8690686724547
125,536.7836194791079
126,536.7005253972987
127,536.6197449452008
128,536.5412257589653
129,536.4649051650382
130,536.390710845893
131,536.3185615946062
132,536.248368151676
133,536.1800341151595
134,536.1134569125321
135,536.0485288199773
136,535.9851380130107
137,535.9231696320109
138,535.8625068469884
139,535.803031906851
140,535.7446271589441
141,535.6871760249755
142,535.6305639203232
143,535.5746791057195
144,535.5194134631181
145,535.4646631904365
146,535.4103294124043
147,535.3563187071604
148,535.3025435507446
149,535.2489226839306
150,535.1953814073856
151,535.1418518116344
152,535.0882729479414
153,535.0345909453156
154,534.9807590774286
155,534.9267377814083
156,534.8724946287138
157,534.8180042471895
158,534.7632481929828
159,534.7082147710772
160,534.6528988038475
161,534.5973013484307
162,534.5414293654048
163,534.4852953424686
164,534.4289168771911
165,534.37231622296
166,534.3155198028991
167,534.2585576981116
168,534.2014631186374
169,534.1442718669614
170,534.0870218039826
171,534.0297523258882
172,533.9725038578453
173,533.9153173676085
174,533.858233899845
175,533.8012941306612
176,533.7445379415618
177,533.6880040126825
178,533.6317294363798
179,533.575749353639
180,533.5200966166313
181,533.4648014809218
182,533.4098913307483
183,533.355390440935
184,533.301319779287
185,533.2476968533201
186,533.1945356047135
187,533.141846354084
188,533.0896357976774
189,533.037907056451
190,532.9866597770491
191,532.9358902836441
192,532.8855917794941
193,532.8357545968142
194,532.786366492556
195,532.7374129858076
196,532.6888777301156
197,532.6407429115225
198,532.5929896610024
199,532.5455984689606
200,532.4985495898993
201,532.451823426627
202,532.4054008846268
203,532.3592636882087
204,532.3133946513202
205,532.2677778978963
206,532.2223990294533
207,532.1772452408037
208,532.1323053873571
209,532.087570008557
210,532.0430313112888
211,531.9986831153483
212,531.9545207615213
213,531.9105409821523
214,531.8667417340987
215,531.8231219943252
216,531.7796815192264
217,531.7364205705738
218,531.6933396137917
219,531.6504389973398
220,531.6077186244156
221,531.5651776295073
222,531.5228140723309
223,531.480624660237
224,531.4386045074965
225,531.3967469366863
226,531.355043324527
227,531.3134829923673
228,531.2720531400264
229,531.230738820765
230,531.1895229546712
231,531.1483863775563
232,531.1073079225112
233,531.0662645315012
234,531.0252313945726
235,530.9841821141727
236,530.9430888917474
237,530.9019227331279
238,530.8606536683014
239,530.8192509802865
240,530.7776834373858
241,530.7359195232677
242,530.6939276601641
243,530.651676421721
244,530.6091347328728
245,530.5662720539707
246,530.5230585460013
247,530.4794652143459
248,530.4354640303065
249,530.3910280315322
250,530.3461314037248
251,530.300749546508
252,530.2548591262241
253,530.2084381178009
254,530.1614658370347
255,530.1139229641218
256,530.0657915591202
257,530.0170550699122
258,529.967698332869
259,529.9177075659405
260,529.867070353712
261,529.8157756242405
262,529.763813618183
263,529.7111758518123
264,529.6578550768273
265,529.6038452410402
266,529.5491414547806
267,529.4937399680797
268,529.4376381631467
269,529.3808345652523
270,529.3233288732245
271,529.2651220088757
272,529.2062161831909
273,529.146614976469
274,529.0863234301717
275,529.0253481498024
276,528.9636974197417
277,528.9013813314925
278,528.8384119257864
279,528.7748033470677
280,528.710572007113
281,528.6457367536207
282,528.5803190394165
283,528.5143430881199
284,528.4478360525952
285,528.3808281631775
286,528.313352863162
287,528.2454469289557
288,528.1771505715509
289,528.108507515033
290,528.0395650473126
291,527.9703740387014
292,527.9009889254158
293,527.8314676569236
294,527.7618716072901
295,527.6922654509735
296,527.6227170033371
297,527.5532970263866
298,527.4840790014022
299,527.4151388719869
300,527.346554762779
301,527.2784066798257
302,527.2107761979184
303,527.1437461383209
304,527.0774002382567
305,527.011822812121
306,526.9470984038275
307,526.883311429855
308,526.8205458133104
309,526.7588846103249
310,526.6984096307706
311,526.6392010553764
312,526.5813370512261
313,526.5248933878914
314,526.4699430571088
315,526.4165558995336
316,526.3647982424194
317,526.3147325521664
318,526.2664171056663
319,526.219905684242
320,526.1752472937894
321,526.1324859145379
322,526.0916602834398
323,526.0528037112683
324,526.0159439352508
325,525.9811030071178
326,525.9482972161121
327,525.9175370464707
328,525.8888271688639
329,525.8621664652686
330,525.8375480868689
331,525.814959544812
332,525.7943828338159
333,525.7757945886328
334,525.7591662733223
335,525.7444644033443
336,525.7316508005614
337,525.7206828810013
338,525.7115139746973
339,525.7040936764388
340,525.6983682259083
341,525.6942809151625
342,525.6917725205781
343,525.690781755338
344,525.6912457373516
345,525.6931004662214
346,525.6962813016776
347,525.7007234350159
348,525.7063623446055
349,525.7131342266613
350,525.7209763935966
351,525.7298276344967
352,525.7396285350761
353,525.7503217569102
354,525.7618522769153
355,525.774167587883
356,525.7872178600676
357,525.8009560633609
358,525.8153380499964
359,525.8303225988199
360,525.845871423353
361,525.8619491466608
362,525.8785232462807
363,525.8955639721853
364,525.9130442399261
365,525.9309394998638
366,525.9492275818902
367,525.9678885133892
368,525.9869043070221
369,526.0062587154891
370,526.0259369533368
371,526.0459253903166
372,526.0662112252634
373,526.0867821528888
374,526.1076260378898
375,526.1287306112268
376,526.1500832021248
377,526.1716705161264
378,526.1934784650043
379,526.2154920500594
380,526.2376952975253
381,526.2600712434318
382,526.2826019645622
383,526.3052686515857
384,526.3280517199966
385,526.3509309541333
386,526.3738856789496
387,526.3968949530334
388,526.4199377749063
389,526.4429932937679
390,526.4660410161692
391,526.4890610012015
392,526.512034037998
393,526.5349418006256
394,526.5577669772088
395,526.5804933722249
396,526.6031059825312
397,526.625591048195
398,526.6479360788949
399,526.6701298565176
400,526.6921624153171
401,526.7140250024863
402,526.7357100234523
403,526.7572109770412
404,526.7785223858222
405,526.7996397264885
406,526.820559364127
407,526.8412784927905
408,526.8617950833253
409,526.8821078384253
410,526.9022161547882
411,526.9221200930541
412,526.9418203574326
413,526.9613182878508
414,526.9806158676041
415,526.9997157490152
416,527.0186212988758
417,527.037336664622
418,527.0558668612628
419,527.074217877974
420,527.0923968018949
421,527.1104119552787
422,527.1282730415058
423,527.145991296079
424,527.1635796402553
425,527.181052836485
426,527.1984276453267
427,527.2157229825455
428,527.2329600730161
429,527.2501625959205
430,527.267356814743
431,527.2845716859722
432,527.3018389414508
433,527.3191931401464
434,527.336671685499
435,527.3543148044383
436,527.3721654836999
437,527.3902693585654
438,527.4086745491036
439,527.4274314396079
440,527.4465923977933
441,527.4662114306817
442,527.4863437737516
443,527.5070454095838
444,527.5283725130396
445,527.5503808225676
446,527.5731249410043
447,527.596657572984
448,527.6210287089917
449,527.6462847683792
450,527.6724677160942
451,527.6996141706393
452,527.7277545230949
453,527.7569120877885
454,527.7871023041307
455,527.818332006916
456,527.8505987797446
457,527.8838904035542
458,527.9181844097849
459,527.9534477455791
460,527.9896365566063
461,528.0266960914881
462,528.064560730247
463,528.1031541375723
464,528.1423895398236
465,528.1821701226254
466,528.2223895438556
467,528.2629325549445
468,528.3036757216712
469,528.3444882340025
470,528.3852327931027
471,528.4257665627358
472,528.4659421720162
473,528.50560875674
474,528.5446130272943
475,528.5828003522519
476,528.6200158478194
477,528.6561054639525
478,528.6909170583024
479,528.7243014495893
480,528.7561134426661
481,528.786212818492
482,528.8144652834527
483,528.8407433737758
484,528.8649273118551
485,528.8869058116787
486,528.9065768300709
487,528.9238482594578
488,528.9386385569975
489,528.9508773045349
490,528.9605056938201
491,528.9674769314796
492,528.9717565584259
493,528.9733226791092
494,528.9721660974701
495,528.9682903583827
496,528.9617116954242
497,528.9524588879519
498,528.9405730327946
499,528.9261072381678
500,528.9091262490942
501,528.8897060141637
502,528.8679332028731
503,528.843904681459
504,528.8177269535043
505,528.7895155700805
506,528.7593945131251
507,528.7274955552658
508,528.6939575991428
509,528.6589259992413
510,528.6225518693876
511,528.5849913795279
512,528.5464050460342
513,528.506957020176
514,528.4668143792467
515,528.4261464241631
516,528.3851239863982
517,528.3439187462048
518,528.3027025635084
519,528.2616468227877
520,528.220921793558
521,528.1806960081493
522,528.1411356578393
523,528.1024040070854
524,528.0646608240637
525,528.0280618245387
526,527.9927581257809
527,527.9588957081002
528,527.9266148832578
529,527.8960497707814
530,527.8673277844034
531,527.8405691315712
532,527.8158863296605
533,527.7933837434917
534,527.7731571499571
535,527.7552933367048
536,527.7398697425419
537,527.7269541473554
538,527.7166044188477
539,527.70886832228
540,527.7037833980355
541,527.7013769106925
542,527.7016658724531
543,527.7046571427935
544,527.7103476048496
545,527.7187244175167
546,527.7297653406057
547,527.7434391285982
548,527.7597059867203
549,527.7785180815938
550,527.7998200978552
551,527.8235498318248
552,527.8496388135477
553,527.878012949287
554,527.9085931774495
555,527.9412961313981
556,527.9760348026065
557,528.0127191976767
558,528.0512569832774
559,528.0915541135947
560,528.1335154345481
561,528.177045257801
562,528.2220478968094
563,528.2684281582275
564,528.3160917849322
565,528.3649458504524
566,528.4148991073081
567,528.4658622931987
568,528.5177483993666
569,528.5704729052338
570,528.6239539830365
571,528.6781126760325
572,528.7328730540639
573,528.7881623506537
574,528.8439110859002
575,528.9000531785356
576,528.9565260485072
577,529.0132707090906
578,529.0702318457031
579,529.1273578776023
580,529.1846009986323
581,529.2419171942304
582,529.2992662337739
583,529.3566116392711
584,529.4139206328202
585,529.4711640661126
586,529.5283163358159
587,529.5853552892169
588,529.6422621250512
589,529.6990212945836
590,529.7556204070506
591,529.8120501413545
592,529.8683041631358
593,529.9243790442503
594,529.9802741808962
595,530.0359917069605
596,530.0915363999018
597,530.1469155772643
598,530.2021389828499
599,530.2572186630376
600,530.3121688355582
601,530.3670057544292
602,530.4217475751612
603,530.4764142238428
604,530.5310272727774
605,530.585609824403
606,530.6401864045959
607,530.6947828663044
608,530.7494263046193
609,530.8041449842926
610,530.8589682797792
611,530.9139266260717
612,530.9690514766966
613,531.0243752640567
614,531.0799313569462
615,531.1357540100205
616,531.1918783000328
617,531.2483400441586
618,531.3051756971328
619,531.3624222258404
620,531.4201169616032
621,531.4782974313538
622,531.5370011696824
623,531.596265515187
624,531.6561273968317
625,531.716623118347
626,531.7777881500174
627,531.8396569368814
628,531.9022627306349
629,531.9656374502051
630,532.0298115738017
631,532.0948140633815
632,532.160672320647
633,532.2274121719673
634,532.2950578783896
635,532.3636321664453
636,532.4331562753044
637,532.503650015128
638,532.5751318300939
639,532.6476188584828
640,532.7211269823432
641,532.7956708604693
642,532.8712639400577
643,532.947918444322
644,533.0256453357873
645,533.1044542578189
646,533.1843534592991
647,533.2653497084157
648,533.3474482010676
649,533.4306524678727
650,533.5149642818554
651,533.600383567272
652,533.6869083091108
653,533.7745344625611
654,533.8632558619563
655,533.9530641290552
656,534.0439485806224
657,534.1358961347931
658,534.2288912149413
659,534.32291564949
660,534.4179485668536
661,534.5139662865074
662,534.6109422096013
663,534.7088467148202
664,534.8076470664328
665,534.9073073413127
666,535.0077883808722
667,535.1090477732962
668,535.2110398713983
669,535.3137158510474
670,535.4170238135624
671,535.5209089327138
672,535.6253136440986
673,535.7301778728554
674,535.8354392951843
675,535.9410336292904
676,536.0468949516735
677,536.1529560351929
678,536.2591487062853
679,536.3654042199362
680,536.4716536519499
681,536.5778283082484
682,536.6838601500998
683,536.7896822323302
684,536.895229149243
685,537.0004374811831
686,537.1052462342741
687,537.2095972666542
688,537.3134356955205
689,537.4167102796486
690,537.5193737716651
691,537.621383233657
692,537.7227003092823
693,537.8232914460104
694,537.9231280626894
695,538.0221866597952
696,538.1204488716115
697,538.2179014609989
698,538.3145362587043
699,538.410350050571
700,538.5053444171612
701,538.5995255307897
702,538.6929039149998
703,538.7854941715809
704,538.8773146801665
705,538.9683872744379
706,539.0587368968085
707,539.1483912310974
708,539.2373803113669
709,539.3257361052816
710,539.4134920716496
711,539.5006826934286
712,539.5873429887954
713,539.6735080036962
714,539.759212289871
715,539.8444893730542
716,539.9293712170506
717,540.0138876902296
718,540.098066041229
719,540.1819303905561
720,540.2655012448688
721,540.3487950409726
722,540.4318237265068
723,540.514594383888
724,540.5971089036107
725,540.6793637124618
726,540.7613495615848
727,540.8430513790205
728,540.9244481915073
729,541.0055131201393
730,541.0862134531518
731,541.1665107966808
732,541.2463613017052
733,541.3257159633773
734,541.4045209879006
735,541.4827182218759
736,541.5602456392401
737,541.6370378811255
738,541.7130268438215
739,541.7881423094825
740,541.862312613394
741,541.9354653405154
742,542.007528042774
743,542.0784289673098
744,542.1480977847723
745,542.2164663061625
746,542.2834691769311
747,542.3490445378521
748,542.4131346429461
749,542.4756864252723
750,542.5366520023837
751,542.5959891152668
752,542.6536614976417
753,542.7096391760464
754,542.7638987041686
755,542.8164233361482
756,542.8672031425284
757,542.9162350700439
758,542.963522944047
759,543.0090774111976
760,543.0529158202226
761,543.095062039465
762,543.1355462107715
763,543.1744044397182
764,543.211678422734
765,543.2474150128803
766,543.2816657278704
767,543.3144862060484
768,543.345935618227
769,543.3760760450559
770,543.4049718302157
771,543.4326889189487
772,543.4592941898406
773,543.484854786162
774,543.5094374517494
775,543.5331078752411
776,543.5559300455774
777,543.5779656213717
778,543.5992733171062
779,543.6199083096457
780,543.6399216688066
781,543.6593598155357
782,543.6782640109842
783,543.6966698798738
784,543.7146069722774
785,543.7320983689644
786,543.7491603362706
787,543.7658020368382
788,543.782025302754
789,543.7978244778044
790,543.813186335482
791,543.8280900783703
792,543.8425074222927
793,543.8564027656314
794,543.8697334412157
795,543.8824500453675
796,543.8944968359522
797,543.9058121887672
798,543.9163291000295
799,543.9259757226373
800,543.9346759252444
801,543.9423498655784
802,543.9489145722835
803,543.9542845320418
804,543.9583722801038
805,543.9610889928151
806,543.9623450810323
807,543.9620507839278
808,543.9601167635623
809,543.9564547016607
810,543.950977901046
811,543.9436018943705
812,543.9342450612461
813,543.9228292516585
814,543.9092804098931
815,543.8935291905364
816,543.8755115571939
817,543.8551693553195
818,543.8324508525295
819,543.8073112422259
820,543.7797131084186
821,543.7496268507919
822,543.7170310693062
823,543.6819129072851
824,543.6442683512184
825,543.6041024848264
826,543.561429694775
827,543.516273826063
828,543.4686682861335
829,543.4186560974988
830,543.3662898984654
831,543.3116318902767
832,543.2547537270808
833,543.1957363434346
834,543.1346697133855
835,543.071652535844
836,543.0067918425841
837,542.9402025272688
838,542.872006796219
839,542.8023335442297
840,542.7313176614111
841,542.6590992793008
842,542.5858229656918
843,542.5116368776886
844,542.4366918821195
845,542.3611406523454
846,542.2851367508296
847,542.2088337074081
848,542.1323841037706
849,542.0559386747317
850,541.9796454358956
851,541.9036488452475
852,541.8280890036432
853,541.7531008970527
854,541.678813682368
855,541.6053500185529
856,541.5328254455354
857,541.4613478142201
858,541.3910167720006
859,541.3219233085547
860,541.254149366074
861,541.1877675166957
862,541.1228407086135
863,541.0594220818108
864,540.9975548544007
865,540.9372722804012
866,540.8785976786603
867,540.8215445306292
868,540.7661166425672
869,540.7123083662415
870,540.6601048712683
871,540.6094824617211
872,540.5604089296853
873,540.51284393944
874,540.4667394380094
875,540.4220400905851
876,540.3786837417825
877,540.3366019047805
878,540.2957202798486
879,540.255959302403
880,540.217234719632
881,540.1794581944529
882,540.1425379359015
883,540.1063793551964
884,540.0708857458078
885,540.0359589838597
886,540.0015002427348
887,539.9674107135053
888,539.9335923213144
889,539.8999484276392
890,539.8663845096467
891,539.8328088100066
892,539.7991329524237
893,539.7652725191348
894,539.7311475869179
895,539.6966832183712
896,539.6618099055933
897,539.6264639641323
898,539.5905878762267
899,539.554130583514
900,539.5170477299397
901,539.4793018555334
902,539.4408625415076
903,539.4017065070528
904,539.3618176583896
905,539.3211870911214
906,539.2798130475222
907,539.2377008307134
908,539.1948626775142
909,539.151317591027
910,539.1070911329663
911,539.06221517501
912,539.0167276087695
913,538.970672015485
914,538.9240972985663
915,538.8770572836678
916,538.8296102918847
917,538.7818186923457
