frame_number,force
0,711.4353700069845
1,711.5026016677527
2,711.5696275631162
3,711.6362438124903
4,711.7022502716222
5,711.7674523198319
6,711.8316625556204
7,711.8947023773092
8,711.9564034295163
9,712.0166089007093
10,712.0751746618727
11,712.1319702411334
12,712.1868796332825
13,712.2398019458442
14,712.2906518846175
15,712.3393600819414
16,712.3858732709666
17,712.4301543092272
18,712.4721820547497
19,712.5119510980754
20,712.5494713545264
21,712.5847675231901
22,712.6178784219546
23,712.6488562105786
24,712.677765515442
25,712.7046824701671
26,712.7296936860771
27,712.7528951660969
28,712.7743911755884
29,712.7942930836396
30,712.8127181879634
31,712.8297885353228
32,712.8456297473323
33,712.8603698592674
34,712.8741381778659
35,712.8870641633821
36,712.8992763414368
37,712.9109012513361
38,712.9220624389832
39,712.9328795035518
40,712.9434672074237
41,712.9539346590143
42,712.9643845785592
43,712.9749126572632
44,712.9856070193767
45,712.9965477944618
46,713.0078068040963
47,713.0194473643955
48,713.0315242030837
49,713.0440834872246
50,713.0571629551617
51,713.0707921439855
52,713.084992702272
53,713.0997787771312
54,713.1151574648379
55,713.1311293153914
56,713.1476888828622
57,713.1648253144791
58,713.1825229713818
59,713.2007620729916
60,713.2195193558514
61,713.2387687372998
62,713.2584819744858
63,713.2786293093716
64,713.2991800900892
65,713.3201033589237
66,713.3413683981372
67,713.3629452268058
68,713.3848050439929
69,713.4069206153846
70,713.4292666022494
71,713.4518198337753
72,713.4745595261296
73,713.4974674528701
74,713.5205280710103
75,713.5437286058213
76,713.567059096476
77,713.590512404243
78,713.6140841847118
79,713.6377728252496
80,713.661579348774
81,713.6855072851106
82,713.7095625116825
83,713.7337530661013
84,713.758088934358
85,713.7825818193437
86,713.8072448947784
87,713.8320925492972
88,713.8571401249926
89,713.8824036545672
90,713.9078996013401
91,713.9336446065627
92,713.9596552486943
93,713.9859478190714
94,714.0125381172793
95,714.0394412674666
96,714.0666715543125
97,714.0942422752153
98,714.1221656042969
99,714.1504524640901
100,714.1791124016254
101,714.2081534665405
102,714.2375820897528
103,714.2674029620852
104,714.2976189125407
105,714.3282307853592
106,714.359237313895
107,714.3906349885594
108,714.4224179161669
109,714.4545776690137
110,714.4871031237141
111,714.5199802921469
112,714.5531921494941
113,714.5867184665663
114,714.6205356548302
115,714.654616632619
116,714.688930720167
117,714.7234435698236
118,714.7581171363843
119,714.7929096909858
120,714.8277758805879
121,714.8626668340996
122,714.8975303159227
123,714.9323109277427
124,714.9669503592346
125,715.0013876877072
126,715.0355597258086
127,715.0694014154873
128,715.1028462653626
129,715.1358268273689
130,715.1682752070736
131,715.200123600592
132,715.2313048495193
133,715.2617530038457
134,715.2914038818283
135,715.3201956159965
136,715.348069176087
137,715.3749688620287
138,715.4008427620308
139,715.4256431721209
140,715.449326974449
141,715.4718559724954
142,715.4931971817714
143,715.5133230745898
144,715.5322117771386
145,715.5498472167246
146,715.5662192170719
147,715.581323540391
148,715.5951618767369
149,715.6077417834007
150,715.6190765788773
151,715.6291851970637
152,715.6380920082473
153,715.6458266142599
154,715.6524236252604
155,715.657922424484
156,715.6623669253834
157,715.6658053237527
158,715.6682898462777
159,715.6698764967846
160,715.6706248021553
161,715.6705975606291
162,715.6698605950922
163,715.6684825128928
164,715.6665344723211
165,715.6640899545733
166,715.6612245387744
167,715.6580156767142
168,715.654542463625
169,715.6508854016425
170,715.6471261532561
171,715.6433472828701
172,715.6396319853911
173,715.636063801394
174,715.6327263187428
175,715.6297028605492
176,715.6270761592544
177,715.6249280166729
178,715.6233389500924
179,715.6223878250182
180,715.6221514759135
181,715.6227043173224
182,715.6241179489683
183,715.6264607596424
184,715.6297975356397
185,715.6341890795493
186,715.6396918438141
187,715.6463575809996
188,715.6542330105485
189,715.6633595012019
190,715.6737727693392
191,715.6855025954825
192,715.6985725632393
193,715.712999826453
194,715.7287949109835
195,715.7459615572093
196,715.7644966080559
197,715.784389945499
198,715.8056244767051
199,715.8281761697679
200,715.852014138544
201,715.8771007761823
202,715.903391937198
203,715.9308371681177
204,715.9593799865813
205,715.9889582079766
206,716.0195043173522
207,716.0509458836026
208,716.0832060137163
209,716.1162038466742
210,716.1498550878058
211,716.1840725843513
212,716.2187669420955
213,716.2538471817766
214,716.2892214324182
215,716.3247976566244
216,716.3604844003942
217,716.3961915575543
218,716.4318311367105
219,716.4673180169439
220,716.502570677744
221,716.5375118892616
222,716.5720693508064
223,716.6061762679992
224,716.6397718613182
225,716.6728018003761
226,716.7052185588637
227,716.7369816847554
228,716.7680579795798
229,716.7984215802111
230,716.8280539375121
231,716.8569436885095
232,716.8850864222055
233,716.9124843428538
234,716.9391458379207
235,716.965084960755
236,716.9903208401752
237,717.0148770307432
238,717.0387808183981
239,717.0620624963076
240,717.0847546250668
241,717.1068912898578
242,717.1285073655495
243,717.1496377996438
244,717.1703169222642
245,717.1905777912355
246,717.2104515786273
247,717.229967003876
248,717.2491498185009
249,717.2680223479186
250,717.2866030958362
251,717.304906415774
252,717.3229422529581
253,717.3407159585976
254,717.3582281775259
255,717.3754748091665
256,717.3924470406511
257,717.4091314497016
258,717.425510173792
259,717.4415611413438
260,717.4572583603444
261,717.472572259788
262,717.4874700794828
263,717.5019163034916
264,717.515873131427
265,717.5293009804703
266,717.5421590100306
267,717.5544056606448
268,717.565999198689
269,717.5768982583322
270,717.5870623718816
271,717.59645247949
272,717.6050314095556
273,717.6127643223462
274,717.6196191111288
275,717.6255667567375
276,717.6305816328494
277,717.6346417607426
278,717.6377290143948
279,717.6398292790866
280,717.6409325683252
281,717.6410331044643
282,717.6401293682513
283,717.6382241220956
284,717.6353244110871
285,717.6314415448857
286,717.6265910633334
287,717.6207926893767
288,717.6140702735947
289,717.6064517339377
290,717.5979689920739
291,717.5886579052964
292,717.5785581912536
293,717.5677133417265
294,717.5561705208181
295,717.543980442466
296,717.5311972225967
297,717.517878202463
298,717.5040837412033
299,717.4898769769412
300,717.4753235567692
301,717.460491336966
302,717.4454500556282
303,717.4302709801967
304,717.4150265321881
305,717.3997898912296
306,717.3846345802423
307,717.3696340330562
308,717.3548611451472
309,717.3403878080981
310,717.3262844290418
311,717.3126194377094
312,717.2994587856
313,717.286865443501
314,717.2748989043399
315,717.2636146982765
316,717.2530639267659
317,717.2432928224346
318,717.2343423417559
319,717.2262477971601
320,717.219038533807
321,717.2127376537723
322,717.2073617877659
323,717.2029209131464
324,717.1994182175131
325,717.1968500086762
326,717.1952056730041
327,717.1944676845695
328,717.1946116675048
329,717.1956065140041
330,717.1974145605836
331,717.1999918252367
332,717.2032883073584
333,717.2072483504048
334,717.2118110648222
335,717.2169108068626
336,717.2224777080004
337,717.2284382497663
338,717.2347158796493
339,717.2412316644369
340,717.2479049766258
341,717.2546542068942
342,717.2613974925872
343,717.268053450682
344,717.2745419040849
345,717.2807845911099
346,717.286705848581
347,717.2922332592233
348,717.2972982543124
349,717.3018366631362
350,717.3057892016955
351,717.3091018943716
352,717.3117264240228
353,717.3136204076401
354,717.3147475955424
355,717.3150779920495
356,717.314587895556
357,717.3132598567846
358,717.3110825555589
359,717.3080505980688
360,717.3041642382065
361,717.2994290282566
362,717.2938554059879
363,717.2874582268664
364,717.2802562515752
365,717.2722715998698
366,717.2635291816523
367,717.2540561154497
368,717.2438811440104
369,717.2330340566217
370,717.2215451274622
371,717.20944457884
372,717.1967620782721
373,717.1835262793456
374,717.1697644170036
375,717.1555019666414
376,717.1407623727634
377,717.1255668480793
378,717.1099342395555
379,717.0938809551837
380,717.077420944171
381,717.0605657234729
382,717.0433244444417
383,717.025703994086
384,717.0077091256359
385,716.9893426130749
386,716.9706054243375
387,716.9514969077542
388,716.9320149858431
389,716.9121563500331
390,716.8919166500136
391,716.8712906726115
392,716.850272507369
393,716.8288556987206
394,716.807033386877
395,716.7847984406201
396,716.7621435854663
397,716.7390615307904
398,716.7155450997452
399,716.6915873658235
400,716.6671817993064
401,716.6423224256197
402,716.6170039960288
403,716.5912221694142
404,716.5649737022077
405,716.538256642011
406,716.5110705190608
407,716.4834165286197
408,716.4552976966291
409,716.4267190207108
410,716.3976875791788
411,716.3682126023035
412,716.338305502451
413,716.3079798624835
414,716.2772513845794
415,716.2461378041203
416,716.2146587752878
417,716.1828357361964
418,716.1506917614123
419,716.1182514084929
420,716.0855405631553
421,716.0525862855865
422,716.0194166590533
423,715.9860606418094
424,715.9525479239287
425,715.9189087914011
426,715.8851740004765
427,715.8513746660426
428,715.8175421685073
429,715.78370808356
430,715.7499041380306
431,715.7161621930634
432,715.6825142534328
433,715.6489924994858
434,715.6156293362707
435,715.5824574533563
436,715.549509888823
437,715.5168200916253
438,715.4844219773718
439,715.4523499733607
440,715.4206390496438
441,715.3893247339074
442,715.3584431085775
443,715.3280307886391
444,715.2981248788552
445,715.2687629100723
446,715.2399827562069
447,715.2118225356598
448,715.1843205023836
449,715.1575149320602
450,715.1314440079665
451,715.106145709707
452,715.0816577064426
453,715.0580172544699
454,715.0352610971465
455,715.0134253637583
456,714.9925454634548
457,714.9726559709777
458,714.9537905024454
459,714.9359815813306
460,714.9192604960598
461,714.903657150857
462,714.8891999108059
463,714.8759154412455
464,714.8638285412588
465,714.8529619715971
466,714.8433362785503
467,714.8349696160642
468,714.8278775681453
469,714.8220729723299
470,714.8175657433255
471,714.8143626946918
472,714.8124673562187
473,714.8118797853475
474,714.8125963719765
475,714.8146096370072
476,714.8179080262591
477,714.8224757031121
478,714.8282923452367
479,714.8353329526292
480,714.8435676753982
481,714.852961669859
482,714.8634749903675
483,714.8750625223903
484,714.8876739601096
485,714.9012538298533
486,714.9157415592713
487,714.9310715916142
488,714.9471735444492
489,714.9639724124686
490,714.981388814727
491,714.9993392876465
492,715.0177366260078
493,715.03649027435
494,715.0555067704598
495,715.0746902411831
496,715.0939429491142
497,715.1131658874014
498,715.1322594192409
499,715.1511239583821
500,715.1696606865818
501,715.1877723032477
502,715.2053638017036
503,715.2223432655525
504,715.2386226772588
505,715.2541187295847
506,715.268753629761
507,715.2824558866106
508,715.2951610716311
509,715.3068125453893
510,715.3173621401247
511,715.326770788431
512,715.3350090867731
513,715.3420577820547
514,715.3479081699567
515,715.352562395329
516,715.3560336471033
517,715.358346242724
518,715.3595355999231
519,715.3596480964853
520,715.3587408206757
521,715.3568812157832
522,715.3541466222365
523,715.3506237208971
524,715.3464078817626
525,715.3416024232315
526,715.3363177883052
527,715.330670645734
528,715.3247829258815
529,715.3187808025368
530,715.3127936330562
531,715.3069528704867
532,715.3013909627756
533,715.2962402551093
534,715.2916319109702
535,715.2876948656517
536,715.2845548235039
537,715.2823333076243
538,715.2811467682831
539,715.2811057545242
540,715.2823141525673
541,715.2848684946105
542,715.2888573417682
543,715.2943607450046
544,715.3014497883166
545,715.3101862188821
546,715.3206221687328
547,715.332799971432
548,715.3467520754818
549,715.362501053939
550,715.3800597069745
551,715.3994312511385
552,715.4206095866049
553,715.4435796324566
554,715.4683177202973
555,715.4947920374254
556,715.5229631114602
557,715.5527843283144
558,715.5842024752537
559,715.617158301067
560,715.6515870862102
561,715.687419216862
562,715.7245807579195
563,715.7629940210309
564,715.8025781247084
565,715.8432495442537
566,715.884922649731
567,715.927510230647
568,715.9709240062633
569,716.0150751203979
570,716.0598746191756
571,716.1052339096838
572,716.1510651972333
573,716.1972818992198
574,716.2437990342789
575,716.2905335860096
576,716.3374048406928
577,716.3843346983256
578,716.431247956326
579,716.478072565686
580,716.5247398598847
581,716.5711847569572
582,716.6173459345936
583,716.663165977506
584,716.7085914960663
585,716.7535732153799
586,716.7980660343218
587,716.8420290545532
588,716.8854255801022
589,716.9282230885359
590,716.9703931748475
591,717.0119114689423
592,717.0527575272304
593,717.0929146983716
594,717.132369962578
595,717.171113742983
596,717.2091396867479
597,717.2464444133402
598,717.2830272281627
599,717.3188898011833
600,717.3540358119491
601,717.388470564016
602,717.4222005732502
603,717.4552331355551
604,717.487575880421
605,717.519236317526
606,717.5502213847359
607,717.5805370072482
608,717.6101876787761
609,717.6391760759772
610,717.667502716533
611,717.695165669533
612,717.7221603243721
613,717.7484792216876
614,717.7741119474623
615,717.7990450897826
616,717.823262256963
617,717.8467441554
618,717.8694687252478
619,717.8914113320079
620,717.9125450125174
621,717.9328407737793
622,717.9522679416386
623,717.970794553462
624,717.988387785813
625,718.0050144058923
626,718.0206412348382
627,718.0352356114544
628,718.0487658456217
629,718.0612016510852
630,718.0725145477869
631,718.0826782248397
632,718.0916688567718
633,718.0994653677292
634,718.1060496404504
635,718.1114066684431
636,718.1155246508268
637,718.1183950305013
638,718.1200124784359
639,718.1203748297328
640,718.1194829797008
641,718.1173407497864
642,718.1139547341086
643,718.1093341378643
644,718.1034906186918
645,718.0964381406584
646,718.0881928478519
647,718.0787729611305
648,718.068198698179
649,718.0564922144141
650,718.0436775609522
651,718.0297806558124
652,718.0148292651116
653,717.9988529912429
654,717.981883264378
655,717.9639533326456
656,717.9450982461234
657,717.9253548309352
658,717.9047616515593
659,717.883358960806
660,717.861188637195
661,717.8382941087082
662,717.8147202606929
663,717.790513324874
664,717.7657207467081
665,717.7403910297952
666,717.7145735582028
667,717.6883183995552
668,717.6616760929951
669,717.6346974264757
670,717.6074332076984
671,717.5799340330295
672,717.5522500590981
673,717.524430781964
674,717.4965248281986
675,717.468579761073
676,717.4406419038597
677,717.4127561813858
678,717.3849659805451
679,717.3573130305743
680,717.3298373043833
681,717.3025769425901
682,717.275568201687
683,717.2488454271562
684,717.2224410519682
685,717.19638562073
686,717.1707078390519
687,717.1454346459934
688,717.1205913054789
689,717.0962015115589
690,717.0722875027178
691,717.0488701814805
692,717.0259692364679
693,717.0036032642192
694,716.981789887371
695,716.9605458645187
696,716.9398871860448
697,716.9198291499015
698,716.9003864117299
699,716.8815730043874
700,716.8634023229922
701,716.8458870732863
702,716.8290391834903
703,716.8128696823037
704,716.7973885477661
705,716.7826045331512
706,716.768524976842
707,716.7551556031784
708,716.7425003209498
709,716.7305610261275
710,716.7193374155823
711,716.7088268182205
712,716.6990240488927
713,716.6899212891716
714,716.6815079984231
715,716.6737708585918
716,716.6666937560886
717,716.6602578035054
718,716.6544414024545
719,716.6492203468848
720,716.6445679642603
721,716.6404552907485
722,716.6368512764084
723,716.6337230169358
724,716.6310360092334
725,716.6287544285569
726,716.6268414251405
727,716.6252594381057
728,716.6239705242004
729,716.6229366982692
730,716.6221202811142
731,716.6214842488314
732,716.6209925764007
733,716.6206105678634
734,716.6203051661136
735,716.6200452369851
736,716.6198018242129
737,716.6195483731344
738,716.6192609214258
739,716.6189182552101
740,716.618502029135
741,716.6179968496087
742,716.6173903210347
743,716.6166730554324
744,716.6158386462075
745,716.6148836070378
746,716.6138072770894
747,716.6126116944498
748,716.6113014408411
749,716.6098834619178
750,716.608366868203
751,716.6067627217112
752,716.6050838126712
753,716.6033444298816
754,716.6015601274715
755,716.5997474901536
756,716.5979238979853
757,716.5961072899278
758,716.5943159236651
759,716.5925681282624
760,716.5908820469671
761,716.5892753696153
762,716.5877650568622
763,716.5863670609799
764,716.5850960497639
765,716.583965140927
766,716.5829856542415
767,716.5821668878006
768,716.5815159235106
769,716.5810374656495
770,716.5807337150967
771,716.5806042805167
772,716.5806461263898
773,716.5808535565151
774,716.5812182304626
775,716.5817292092457
776,716.5823730254232
777,716.5831337724486
778,716.5839932083929
779,716.5849308694977
780,716.5859241891502
781,716.5869486183182
782,716.5879777446163
783,716.5889834088277
784,716.5899358195268
785,716.5908036679913
786,716.5915542465327
787,716.5921535736346
788,716.5925665288241
789,716.5927569990822
790,716.5926880371122
791,716.5923220302011
792,716.5916208766556
793,716.5905461650192
794,716.5890593502062
795,716.587121921091
796,716.584695555793
797,716.5817422627196
798,716.5782245063842
799,716.5741053174457
800,716.5693483873885
801,716.5639181499195
802,716.5577798523722
803,716.5508996203495
804,716.5432445177951
805,716.5347826034862
806,716.52548298422
807,716.5153158649618
808,716.5042525968081
809,716.4922657243922
810,716.4793290348455
811,716.4654176103579
812,716.450507886005
813,716.434577714359
814,716.4176064386331
815,716.3995749763947
816,716.3804659159454
817,716.360263627319
818,716.3389543895111
819,716.3165265349255
820,716.2929706111565
821,716.2682795594272
822,716.2424489082993
823,716.2154769801942
824,716.1873651065133
825,716.1581178451341
826,716.1277431927771
827,716.0962527849168
828,716.063662077479
829,716.0299905066504
830,715.9952616248478
831,715.9595032118795
832,715.9227473606137
833,715.8850305360668
834,715.8463936059109
835,715.8068818395869
836,715.7665448730504
837,715.725436636533
838,715.6836152431459
839,715.6411428366666
840,715.598085397705
841,715.5545125087377
842,715.5104970800054
843,715.4661150394523
844,715.42144499019
845,715.3765678383917
846,715.3315663938446
847,715.2865249452875
848,715.2415288130302
849,715.1966638817822
850,715.1520161173137
851,715.1076710718683
852,715.0637133847188
853,715.0202262850999
854,714.977291104806
855,714.9349868073168
856,714.8933895396849
857,714.852572212721
858,714.8126041142091
859,714.7735505587779
860,714.7354725764175
861,714.6984266396165
862,714.6624644272629
863,714.6276326222372
864,714.5939727389248
865,714.5615209764122
866,714.530308093125
867,714.5003592993298
868,714.4716941648569
869,714.4443265400586
870,714.418264488551
871,714.3935102311165
872,714.3700601011849
873,714.3479045131246
874,714.3270279451392
875,714.3074089393182
876,714.2890201223889
877,714.2718282515133
878,714.2557942896901
879,714.2408735150993
880,714.2270156684058
881,714.214165141665
882,714.2022612115447
883,714.1912383176988
884,714.1810263848878
885,714.1715511860059
886,714.1627347429128
887,714.1544957620756
888,714.1467501017984
889,714.1394112673187
890,714.1323909295592
891,714.1255994629879
892,714.1189464982727
893,714.1123414865726
894,714.1056942738791
895,714.0989156845724
896,714.0919181126374
897,714.0846161175293
898,714.0769270206604
899,714.0687714982183
900,714.060074166078
901,714.0507641524646
902,714.0407756536825
903,714.0300484677277
904,714.0185284999523
905,714.0061682340947
906,713.992927161206
907,713.9787721588677
908,713.9636778139037
909,713.9476266832907
910,713.9306094896978
911,713.9126252496259
912,713.8936813334656
913,713.8737934581316
914,713.8529856142899
915,713.8312899314482
916,713.8087464851365
917,713.7854030508624
