acceleration,velocity,displacement
-0.057207819187662046,0.0,0.0
-0.05628616636705922,-2.8373496388680317e-05,-7.093374097170079e-09
-0.05536733430476447,-5.628687155663624e-05,-2.825846608349922e-08
-0.054454117920816364,-8.374223461303145e-05,-6.326574262591614e-08
-0.053549260915325275,-0.00011074307932206685,-1.1188707110969071e-07
-0.052655431267881324,-0.0001372942523678685,-1.7389640403217457e-07
-0.05177519799311536,-0.00016340190968311768,-2.490704445449211e-07
-0.05091100947232226,-0.00018907346154947707,-3.371892873530698e-07
-0.050065173624284996,-0.00021431750732362888,-4.3803702957134627e-07
-0.04923984011761943,-0.000239143760759105,-5.514023465920297e-07
-0.04843698476122723,-0.0002635629669788167,-6.770790285265102e-07
-0.04765839614352357,-0.00028758681220500436,-8.148664733224655e-07
-0.04690566453503014,-0.0003112278273746428,-9.645701332173773e-07
-0.04618017303165282,-0.00033449928676631353,-1.1260019117526162e-06
-0.04548309089858614,-0.0003574151027488733,-1.298980509131413e-06
-0.04481536907025304,-0.0003799897177410831,-1.4833317142539023e-06
-0.04417773776127702,-0.0004022379944489656,-1.6788886423014144e-06
-0.043570706143349756,-0.0004241751054251223,-1.8854919172699363e-06
-0.04299456404360367,-0.00044581642297186064,-2.102989799369182e-06
-0.04244938561821644,-0.00046717741038731565,-2.331238257708976e-06
-0.041935034941873645,-0.00048827351552733816,-2.5701009891876392e-06
-0.041451173424344526,-0.0005091200676188927,-2.819449384974197e-06
-0.04099726892622051,-0.000529732178206534,-3.079162446430554e-06
-0.04057260640955644,-0.0005501246470404783,-3.349126652742307e-06
-0.040176299936317834,-0.0005703118736269468,-3.629235782909163e-06
-0.03980730582013964,-0.0005903077750660612,-3.919390695082415e-06
-0.039464436739906274,-0.0006101257107060728,-4.219499066525449e-06
-0.03914637662867215,-0.0006297784140482174,-4.529475097714022e-06
-0.03885169615293777,-0.0006492779322436198,-4.8492391842869815e-06
-0.0385788685969755,-0.0006686355734310982,-5.178717560705661e-06
-0.03832628597182712,-0.0006878618620732988,-5.51784191958176e-06
-0.03809227518564816,-0.0007069665023626676,-5.866549010690751e-06
-0.03787511414033882,-0.0007259583496941643,-6.224780223704959e-06
-0.03767304764985263,-0.0007448453901417122,-6.592481158663929e-06
-0.0374843030981595,-0.0007636347278287152,-6.969601188156536e-06
-0.0373071057647317,-0.000782332580044438,-7.356093015124824e-06
-0.037139693741568586,-0.0008009442799210131,-7.751912230116187e-06
-0.03698033235029084,-0.000819474286443978,-8.157016871707436e-06
-0.03682732794792058,-0.0008379262015185308,-8.571366993698063e-06
-0.03667904099566609,-0.0008563027937544275,-8.994924242516304e-06
-0.03653389826044644,-0.0008746060285684556,-9.427651448097025e-06
-0.03639040401721755,-0.0008928371041378717,-9.869512231273607e-06
-0.0362471501140174,-0.0009109964926706804,-1.0320470630475745e-05
-0.0361028247571522,-0.0009290839863884728,-1.0780490750240535e-05
-0.0359562198853719,-0.0009470987475491038,-1.1249536433724928e-05
-0.035806237033520885,-0.0009650393617788271,-1.1727570961056911e-05
-0.03565189162737954,-0.000982903893944052,-1.2214556774987631e-05
-0.03549231569082485,-0.0010006899457736032,-1.2710455234917044e-05
-0.035326758982665435,-0.0010183947144419758,-1.321522639997094e-05
-0.035154588616487126,-0.001036015051341764,-1.3728828841416875e-05
-0.034975287251944064,-0.0010535475203088717,-1.4251219484329533e-05
-0.03478844997649367,-0.001070988454615981,-1.4782353478060746e-05
-0.03459378001818388,-0.0010883340121146505,-1.5322184094743403e-05
-0.034391083439757573,-0.0011055802279791359,-1.587066265476685e-05
-0.03418026296112996,-0.0011227230645793579,-1.6427738477906474e-05
-0.03396131104257506,-0.001139758458080284,-1.6993358858571383e-05
-0.03373430234023066,-0.0011566823614259855,-1.756746906344795e-05
-0.033499385630538905,-0.001173490783418678,-1.8150012349659118e-05
-0.03325677530058391,-0.0011901798236514586,-1.874093000142665e-05
-0.03300674251466406,-0.0012067457031052706,-1.9340161383115833e-05
-0.03274960618250937,-0.001223184790279564,-1.994764400646204e-05
-0.03248572386123332,-0.0012394936227904997,-2.0563313609729558e-05
-0.03221548272115009,-0.0012556689244360955,-2.1187104246536207e-05
-0.03193929070368485,-0.0012717076177923043,-2.1818948382093307e-05
-0.0316575680034342,-0.001287606832469084,-2.2458776994658654e-05
-0.03137073900773186,-0.0013033639092218756,-2.3106519680081393e-05
-0.03107922481415975,-0.0013189764001773484,-2.37621047574312e-05
-0.03078343641960255,-0.001334442065485789,-2.4425459373846983e-05
-0.030483768644954196,-0.0013497588667519282,-2.5096509606906412e-05
-0.030180594834884264,-0.0013649249576218878,-2.5775180562999865e-05
-0.029874262348258504,-0.0013799386719176735,-2.6461396470384754e-05
-0.02956508882477252,-0.0013947985097109313,-2.7155080765791905e-05
-0.02925335918194478,-0.0014095031217126106,-2.785615617364779e-05
-0.02893932327901972,-0.0014240512923278518,-2.8564544777157907e-05
-0.02862319418878284,-0.0014384419216948025,-2.928016808066357e-05
-0.02830514703504956,-0.0014526740070007606,-3.0002947062837463e-05
-0.027985318366945962,-0.0014667466233512594,-3.073280222042547e-05
-0.027663806046576044,-0.0014806589044546398,-3.146965360237694e-05
-0.027340669629782356,-0.0014944100233737294,-3.221342083433403e-05
-0.027015931223525285,-0.0015079991735870563,-3.296402313357423e-05
-0.026689576805022295,-0.0015214255505941931,-3.372137931461954e-05
-0.026361557985260707,-0.001534688334291764,-3.448540778584103e-05
-0.02603179419292058,-0.0015477866723363092,-3.5256026537498045e-05
-0.025700175243496878,-0.0015607196646954136,-3.6033153121755976e-05
-0.0253665642428998,-0.0015734863495670127,-3.6816704625321586e-05
-0.02503080076072823,-0.0015860856908179197,-3.760659763541782e-05
-0.02469270420355035,-0.0015985165670589893,-3.8402748199887045e-05
-0.024352077323135275,-0.0016107777624406606,-3.920507178226196e-05
-0.02400870980067358,-0.0016228679592216128,-4.001348321267753e-05
-0.023662381850051834,-0.001634785732134294,-4.0827896635516506e-05
-0.023312867781996646,-0.0016465295445423063,-4.1648225454685654e-05
-0.02295993946803436,-0.001658097746354814,-4.2474382277409936e-05
-0.022603369640480552,-0.0016694885736319427,-4.330627885740662e-05
-0.022242934967707944,-0.00168070014978399,-4.414382603826061e-05
-0.0218784188593157,-0.0016917304882407458,-4.4986933697766794e-05
-0.02150961398420325,-0.0017025774964516255,-4.5835510693939886e-05
-0.021136324519231295,-0.0017132389810774842,-4.668946481332216e-05
-0.0207583681755129,-0.0017237126542511702,-4.7548702722154324e-05
-0.020375578062719966,-0.0017339961408107285,-4.84131299209198e-05
-0.01998780444807948,-0.0017440869864384285,-4.928265070273209e-05
-0.01959491645504378,-0.0017539826666642094,-5.015716811600775e-05
-0.019196803734244636,-0.0017636805967115314,-5.103658393185169e-05
-0.018793378126723485,-0.0017731781421767734,-5.192079861657376e-05
-0.018384575327805318,-0.0017824726305404057,-5.280971130975306e-05
-0.01797035655578206,-0.0017915613635113025,-5.370321980826599e-05
-0.017550710237295136,-0.0018004416302095719,-5.4601220556696206e-05
-0.017125653736301222,-0.0018091107212029709,-5.550360864454934e-05
-0.016695235164394192,-0.0018175659434281448,-5.641027781070712e-05
-0.01625953530897379,-0.0018258046360464868,-5.732112045557578e-05
-0.01581866970216763,-0.0018338241872992722,-5.823602766141222e-05
-0.015372790830168412,-0.0018416220524323562,-5.915488922134513e-05
-0.014922090450714638,-0.0018491957727525769,-6.007759367764136e-05
-0.014466801950449963,-0.001856542995852868,-6.1004028369792715e-05
-0.014007202643502583,-0.001863661497001356,-6.193407949300627e-05
-0.013543615895947112,-0.0018705492016362186,-6.286763216766566e-05
-0.013076412959874809,-0.001877204208850174,-6.380457052028726e-05
-0.012606014412319845,-0.0018836248156932228,-6.474477777642312e-05
-0.012132891111934583,-0.0018898095420742864,-6.5688136365865e-05
-0.011657564605705292,-0.0018957571560036964,-6.663452804038449e-05
-0.011180606938468963,-0.00190146669888974,-6.758383400410785e-05
-0.010702639837504151,-0.0019069375105837333,-6.853593505647621e-05
-0.010224333257684726,-0.0019121692538575305,-6.949071174758653e-05
-0.009746403276614437,-0.0019171619379911053,-7.044804454554869e-05
-0.009269609328348125,-0.0019219159411423459,-7.140781401533204e-05
-0.00879475076656689,-0.0019264320311660746,-7.236990100840916e-05
-0.008322662756868996,-0.0019307113845469335,-7.333418686233741e-05
-0.007854211510208034,-0.0019347556031137027,-7.430055360925257e-05
-0.007390288882239645,-0.0019385667282118145,-7.526888419208396e-05
-0.006931806377568625,-0.0019421472520267666,-7.62390626871436e-05
-0.006479688615626939,-0.0019455001257750655,-7.721097453159405e-05
-0.006034866334916449,-0.0019486287645127014,-7.8184506754166e-05
-0.00559826903265718,-0.0019515370483545948,-7.915954820738281e-05
-0.005170817357427585,-0.001954229319952116,-8.01359897994595e-05
-0.004753415392395757,-0.0019567103781395717,-8.111372472398241e-05
-0.004346942980235557,-0.0019589854677327296,-8.209264868545049e-05
-0.003952248238161233,-0.001961060265537329,-8.3072660118768e-05
-0.0035701403892074855,-0.001962940862694171,-8.405366040082588e-05
-0.003201383004098099,-0.0019646337435424975,-8.503555405238504e-05
-0.0028466877214818175,-0.0019661457612238924,-8.601824892857663e-05
-0.0025067084966580357,-0.0019674841102784273,-8.700165639645221e-05
-0.0021820364155445745,-0.001968656296506478,-8.798569149814843e-05
-0.001873195099451445,-0.0019696701043852268,-8.897027309837136e-05
-0.0015806367199687188,-0.0019705335623400816,-8.995532401505269e-05
-0.0013047386435072728,-0.0019712549061809506,-9.094077113218295e-05
-0.001045800729692629,-0.0019718425410242507,-9.192654549398425e-05
-0.0008040433128553737,-0.0019723050020348876,-9.291258237974903e-05
-0.0005796058956247504,-0.0019726509143370074,-9.389882135884201e-05
-0.00037254657221453,-0.001972888952453967,-9.488520632553975e-05
-0.00018284217431782955,-0.0019730277996406003,-9.58716855135634e-05
-1.0389101954668891e-05,-0.0019730761074596686,-9.685821149033847e-05
0.00014499522296910274,-0.001973042455929415,-9.784474113118574e-05
0.0002835703579200985,-0.0019729353145341924,-9.883123557380164e-05
0.00040567038573615234,-0.0019727630043482785,-9.981766015352226e-05
0.0005117011064756263,-0.0019725336614752256,-0.00010080398431997814
0.0006021369774133591,-0.0019722552019542532,-0.0001017901815358355
0.0006775178880799186,-0.00197193528823788,-0.00010277622915838353
0.0007384458310052221,-0.0019715812973081087,-0.00010376210830477003
0.0007855815036813662,-0.0019712002904744372,-0.00010474780370171567
0.0008196408615328024,-0.0019707989848831335,-0.00010573330352055507
0.0008413916393395794,-0.0019703837267579156,-0.00010671859919846533
0.0008516498680926555,-0.0019699604663810577,-0.00010770368524675007
0.0008512764245509828,-0.0019695347348078966,-0.00010868855904704732
0.0008411736491928751,-0.001969111622289461,-0.00010967322063632165
0.000822282053601259,-0.0019686957583637623,-0.00011065767248148496
0.0007955771192449464,-0.0019682912935705507,-0.00011164191924446855
0.000762066171404006,-0.0019679018827478884,-0.00011262596753854815
0.0007227852950558889,-0.0019675306698812736,-0.00011360982567670545
0.0006787962468170186,-0.0019671802744958052,-0.00011459350341279972
0.0006311833126193578,-0.001966852779605946,-0.00011557701167632516
0.0005810500650873071,-0.0019665497212615194,-0.00011656036230154202
0.0005295159836865422,-0.001966272079749326,-0.00011754356775179474
0.00047771291188764383,-0.0019660202725254325,-0.00011852664083986343
0.00042678133647030343,-0.001965794148963343,-0.00011950959444523563
0.0003778664828463598,-0.0019655929870085135,-0.0001204924412292286
0.00033211422469823826,-0.0019654154918316274,-0.00012147519334893862
0.00029066680631975687,-0.001965259796573873,-0.00012245786217104
0.00025465837473401536,-0.0019651234652786095,-0.0001234404579865031
0.00022521031935817014,-0.0019650034981050866,-0.00012442298972734902
0.0002034264205320177,-0.001964896338920114,-0.0001254054646866053
0.0001903878149506307,-0.0019647978853612434,-0.00012638788824267564
0.00018714779653459653,-0.001964703501458372,-0.00012737026358938054
0.00019472648547391673,-0.00196460803288787,-0.0001283525914729671
0.000214105414670438,-0.001964505824912834,-0.0001293348699374173
0.0002462220995964034,-0.0019643907430342672,-0.00013031709407940406
0.0002919646704987916,-0.0019642561963417434,-0.00013129925581424807
0.00035216664654458903,-0.0019640951635124825,-0.00013228134365421163
0.0004276019124277904,-0.0019639002213727393,-0.00013326334250043294
0.0005189799240399768,-0.0019636635759136224,-0.00013424523344975452
0.0006269411401435979,-0.0019633770956475763,-0.00013522699361764482
0.000752052668800343,-0.00196303234719534,-0.00013620859597835556
0.000894804132036268,-0.001962620632995131,-0.00013719000922340316
0.00105560377950357,-0.001962133031017246,-0.00013817119763940625
0.0012347749097506608,-0.0019615604363449326,-0.0001391521210062468
0.0014325526781798208,-0.00196089360444795,-0.00014013273451644501
0.0016490813797299146,-0.001960123195933473,-0.00014111298871654038
0.0018844122898020216,-0.0019592398225160897,-0.00014209282947115275
0.0021385021292850527,-0.001958234093911318,-0.00014307219795025962
0.0024112121940991988,-0.001957096665330472,-0.00014405103064007006
0.0027023081652036694,-0.001955818285240646,-0.00014502925937771285
0.0030114605984936415,-0.0019543898430497216,-0.00014600681140978546
0.003338246087783613,-0.0019528024163781522,-0.0001469836094746424
0.0036821490953040025,-0.0019510473175823803,-0.00014795957190813256
0.004042564447686524,-0.0019491161391966326,-0.0001489346127723273
0.004418800497788993,-0.0019470007979602638,-0.00014990864200661652
0.004810082950793274,-0.0019446935770981182,-0.00015088156560038113
0.005215559341913676,-0.0019421871665249414,-0.00015185328578628689
0.005634304134810917,-0.0019394747006557602,-0.00015282370125308206
0.0060653243994849984,-0.0019365497935221862,-0.00015379270737662655
0.0065075660393998,-0.001933406570912465,-0.00015476019646773522
0.006959920562133795,-0.0019300396992620815,-0.00015572605803527886
0.007421232404668892,-0.001926444411020381,-0.00015669017906284947
0.007890306823547332,-0.0019226165262133269,-0.0001576524442971579
0.00836591834806698,-0.0019185524699204233,-0.00015861273654619134
0.008846819778732641,-0.0019142492853887235,-0.00015957093698501862
0.009331751691882748,-0.0019097046425210697,-0.00016052692546699606
0.0098194523824696,-0.0019049168415024816,-0.00016148058083800194
0.010308668142986954,-0.0018998848113711175,-0.00016243178125122034
0.010798163742772524,-0.0018946081033996776,-0.00016338040447991305
0.011286732941852836,-0.0018890868792285213,-0.0001643263282255701
0.011773208850491447,-0.0018833218937804352,-0.00016526943041882233
0.012256473935555522,-0.0018773144730839233,-0.00016620958951053843
0.012735469482929302,-0.001871066487229302,-0.00016714668475061674
0.013209204350425496,-0.0018645803187709634,-0.0001680805964521168
0.013676762879750115,-0.0018578588269634196,-0.0001690112062385504
0.014137311867956678,-0.001850905308276493,-0.0001699383972723604
0.014590106520791084,-0.0018437234536793062,-0.00017086205446284933
0.015034495318473059,-0.0018363173032194902,-0.00017178206465207402
0.015469923719834574,-0.0018286911984599133,-0.00017269831677749388
0.015895936619880674,-0.0018208497333749845,-0.0001736107020104526
0.016312179471027147,-0.0018127977043522576,-0.0001745191138698844
0.016718397990330598,-0.001804540059986918,-0.0001754234483109692
0.01711443640718747,-0.0017960818513875385,-0.00017632360378881282
0.017500234252934257,-0.001787428183722508,-0.00017721948129759032
0.017875821744832585,-0.0017785841697230665,-0.00017811098438595173
0.018241313863414106,-0.0017695548858210049,-0.00017899801914983776
0.018596903260597195,-0.001760345331540002,-0.000179880494204178
0.01894285216595243,-0.0017509603926833645,-0.00018075832063523385
0.019279483479854576,-0.0017414048087719127,-0.00018163141193559766
0.01960717125468457,-0.001731683145088278,-0.0001824996839240627
0.019926330767754158,-0.0017217997695826682,-0.00018336305465273045
0.020237408379662477,-0.001711758834795814,-0.00018422144430382508
0.02054087135098021,-0.0017015642648631534,-0.00018507477507873982
0.020837197767789476,-0.001691219747583461,-0.00018592297108185147
0.021126866711870692,-0.0016807287314635458,-0.00018676595820161322
0.021410348801602423,-0.0016700944275851776,-0.0001876036639913754
0.021688097213910712,-0.0016593198160812994,-0.000188436017552292
0.021960539274636662,-0.0016484076569591626,-0.00018926294942055212
0.022228068687420034,-0.0016373605049686483,-0.00019008439146103408
0.022491038469871848,-0.0016261807281793253,-0.0001909002767693211
0.022749754672491775,-0.0016148705298937344,-0.00019171053958383935
0.02300447095543703,-0.0016034319734867521,-0.00019251511520968447
0.02325538408556492,-0.0015918670097265016,-0.0001933139399554878
0.023502630398131663,-0.0015801775061055775,-0.0001941069510844458
0.02374628325079043,-0.001568365277693347,-0.00019489408678039554
0.023986351483315006,-0.0015564321190098206,-0.00019567528612957134
0.024222778882486373,-0.0015443798364183703,-0.00019645048911842838
0.02445544463610547,-0.0015322102805387225,-0.00019721963664766766
0.02468416474335548,-0.0015199253781938572,-0.0001979826705623508
0.02490869433377872,-0.0015075271634245736,-0.0001987395336977554
0.025128730836647625,-0.0014950178071319671,-0.00019949016994039452
0.025343917937520725,-0.001482399644938425,-0.0002002345243034121
0.025553850258919233,-0.001469675202889315,-0.00020097254301536905
0.025758078704054985,-0.0014568472206485715,-0.00020170417362125353
0.025956116398686106,-0.0014439186718728863,-0.00020242936509438388
0.026147445151930796,-0.001430892781485232,-0.0002031480679577234
0.026331522338244016,-0.0014177730396126883,-0.0002038602344129979
0.02650778808976877,-0.001404563212005685,-0.00020456581847590248
0.026675672683909985,-0.0013912673468122654,-0.00020526477611560698
0.02683460401056739,-0.001377889777638646,-0.00020595706539671972
0.02698401500156881,-0.0013644351228856118,-0.00020664264662185078
0.027123350900975552,-0.0013509082814099757,-0.00020732148247292468
0.027252076252456542,-0.0013373144246216176,-0.00020799353814943258
0.027369681484907468,-0.0013236589851872767,-0.0002086587815018848
0.02747568899392056,-0.0013099476425675698,-0.0002093171831588235
0.02756965864072086,-0.0012961863056589094,-0.0002099687166458801
0.027651192612789078,-0.0012823810928455318,-0.00021061335849550621
0.027719939608782915,-0.001268538309790139,-0.00021125108834616513
0.027775598330909566,-0.0012546644253052157,-0.00021188188902993897
0.02781792029654247,-0.0012407660456483526,-0.00021250574664767735
0.027846712012455126,-0.0012268498875711033,-0.00021312265063098222
0.027861836577683232,-0.0012129227504235687,-0.00021373259379048088
0.02786321478870993,-0.0011989914875819704,-0.00021433557234998226
0.027850825818687985,-0.001185062977430121,-0.00021493158596623527
0.027824707536418806,-0.0011711440940913444,-0.00021552063773411565
0.027784956520314957,-0.0011572416780771609,-0.0002161027341771578
0.02773172781012508,-0.001143362506994551,-0.0002166778852234257
0.027665234435533106,-0.0011295132664331364,-0.00021724610416678264
0.0275857467707771,-0.0011157005211315588,-0.0002178074076136738
0.02749359177421889,-0.0011019306864953097,-0.00021836181541558052
0.02738915216223279,-0.0010882100005111968,-0.00021890935058733216
0.027272865536618573,-0.001074544496086484,-0.00021945003921148158
0.027145223451128974,-0.001060939973839547,-0.00021998391032896307
0.027006770379637876,-0.0010474019753818555,-0.00022051099581626844
0.026858102534140255,-0.0010339357571534109,-0.00022103133024940227
0.026699866469072412,-0.0010205462649026077,-0.00022154495075491626
