frame_number,force
0,688.7579960032919
1,688.7075315084853
2,688.6572394082499
3,688.6072912999582
4,688.5578571912346
5,688.5091047165364
6,688.4611983670811
7,688.4142987381734
8,688.3685617979702
9,688.32413818175
10,688.2811725157385
11,688.2398027744604
12,688.2001596753503
13,688.1623661137958
14,688.1265366409966
15,688.0927769864774
16,688.0611836270124
17,688.0318434037255
18,688.0048331887639
19,687.980219602373
20,687.9580587808597
21,687.9383961958873
22,687.9212665254673
23,687.9066935766886
24,687.8946902598038
25,687.8852586130579
26,687.878389877753
27,687.8740646234571
28,687.8722529236975
29,687.8729145826561
30,687.8759994131183
31,687.8814475652235
32,687.8891899046536
33,687.8991484380336
34,687.9112367826084
35,687.9253606765426
36,687.9414185253083
37,687.9593019785647
38,687.9788965309442
39,688.0000821395786
40,688.0227338512461
41,688.0467224327388
42,688.0719149993582
43,688.0981756381594
44,688.1253660241986
45,688.1533460291502
46,688.181974322087
47,688.2111089620687
48,688.2406079816409
49,688.2703299597518
50,688.3001345823441
51,688.3298831888945
52,688.3594393030287
53,688.3886691448505
54,688.4174421221232
55,688.445631297175
56,688.473113826435
57,688.4997713698885
58,688.525490468531
59,688.5501628889351
60,688.573685935019
61,688.5959627276703
62,688.6169024528276
63,688.6364205780197
64,688.6544390367424
65,688.6708863798814
66,688.6856978938288
67,688.6988156857918
68,688.7101887376436
69,688.7197729299793
70,688.7275310376185
71,688.7334326970648
72,688.7374543460359
73,688.73957913536
74,688.7397968140908
75,688.7381035893553
76,688.7345019630881
77,688.7290005484066
78,688.7216138690063
79,688.7123621454928
80,688.7012710726906
81,688.6883715913432
82,688.6736996563452
83,688.6572960023387
84,688.6392059067206
85,688.6194789499839
86,688.598168773706
87,688.575332837178
88,688.5510321742976
89,688.5253311524873
90,688.4982972349801
91,688.4700007471761
92,688.4405146473588
93,688.4099143019865
94,688.3782772658836
95,688.3456830677426
96,688.3122130013132
97,688.2779499224469
98,688.2429780517281
99,688.2073827817577
100,688.1712504873705
101,688.1346683365415
102,688.0977240997985
103,688.0605059565718
104,688.023102297721
105,687.9856015242011
106,687.9480918424318
107,687.9106610574961
108,687.8733963659819
109,687.8363841511207
110,687.7997097835124
111,687.7634574308028
112,687.7277098792085
113,687.6925483690534
114,687.6580524458037
115,687.6242998276779
116,687.5913662905921
117,687.5593255706522
118,687.5282492835565
119,687.4982068595724
120,687.4692654925484
121,687.4414901015732
122,687.4149433040178
123,687.3896853987693
124,687.3657743587189
125,687.3432658320827
126,687.3222131526853
127,687.3026673595808
128,687.2846772260575
129,687.2682892971774
130,687.2535479338222
131,687.2404953600527
132,687.229171709569
133,687.2196150663699
134,687.2118614946105
135,687.2059450531931
136,687.2018977915432
137,687.1997497241084
138,687.1995287823546
139,687.2012607443927
140,687.204969143732
141,687.2106751597892
142,687.2183974934619
143,687.2281522313143
144,687.2399527020602
145,687.2538093292042
146,687.2697294836181
147,687.287717339241
148,687.3077737341782
149,687.3298960386257
150,687.3540780304421
151,687.3803097788704
152,687.4085775368048
153,687.438863641914
154,687.4711464266601
155,687.505400136825
156,687.5415948577261
157,687.579696446974
158,687.6196664725081
159,687.6614621549387
160,687.7050363138725
161,687.7503373184813
162,687.7973090428414
163,687.8458908267369
164,687.8960174430297
165,687.9476190733199
166,688.0006212941463
167,688.0549450762398
168,688.1105067994567
169,688.1672182861063
170,688.2249868552992
171,688.2837154004515
172,688.3433024912199
173,688.4036425002677
174,688.4646257547101
175,688.5261387119805
176,688.5880641599973
177,688.6502814416897
178,688.7126667040209
179,688.775093171689
180,688.8374314457676
181,688.8995498276918
182,688.9613146690828
183,689.0225907478508
184,689.0832416708408
185,689.1431303029643
186,689.2021192223239
187,689.2600712004082
188,689.3168497060522
189,689.3723194313815
190,689.4263468373452
191,689.4788007157722
192,689.529552764293
193,689.5784781699394
194,689.6254561966982
195,689.6703707717741
196,689.7131110649475
197,689.753572055324
198,689.7916550799466
199,689.827268359094
200,689.8603274934005
201,689.8907559280306
202,689.9184853790767
203,689.943456217469
204,689.9656178060627
205,689.9849287860442
206,690.0013573092953
207,690.0148812140038
208,690.0254881415963
209,690.0331755938656
210,690.0379509298222
211,690.0398313021311
212,690.0388435330046
213,690.0350239294086
214,690.0284180379417
215,690.0190803408996
216,690.007073896463
217,689.9924699271551
218,689.9753473615068
219,689.9557923343887
220,689.9338976518902
221,689.9097622270616
222,689.8834904931567
223,689.8551918009989
224,689.8249798065805
225,689.7929718541446
226,689.7592883590755
227,689.724052194125
228,689.6873880818492
229,689.6494219956098
230,689.610280571174
231,689.5700905308809
232,689.5289781224383
233,689.4870685745135
234,689.4444855712298
235,689.4013507474933
236,689.3577832068032
237,689.3138990628886
238,689.2698110061846
239,689.2256278958859
240,689.1814543782156
241,689.1373905317263
242,689.0935315408715
243,689.0499673995628
244,689.006782646799
245,688.9640561366401
246,688.9218608446726
247,688.8802637125638
248,688.8393255315209
249,688.7991008648139
250,688.7596380091983
251,688.7209789950844
252,688.6831596255672
253,688.646209554657
254,688.6101524048889
255,688.5750059240244
256,688.5407821801685
257,688.5074877944608
258,688.4751242103961
259,688.4436879986755
260,688.4131711961769
261,688.3835616770525
262,688.3548435529682
263,688.3269975981817
264,688.300001693796
265,688.2738312844931
266,688.2484598405421
267,688.2238593177543
268,688.2000006080766
269,688.1768539736275
270,688.1543894573168
271,688.1325772638609
272,688.1113881060896
273,688.0907935127663
274,688.0707660953437
275,688.0512797719795
276,688.0323099479804
277,688.013833652969
278,687.9958296363101
279,687.9782784233448
280,687.9611623354875
281,687.9444654772989
282,687.9281736935291
283,687.9122744991748
284,687.8967569859951
285,687.881611709578
286,687.8668305616964
287,687.8524066330582
288,687.8383340714611
289,687.8246079397915
290,687.8112240775046
291,687.7981789684296
292,687.7854696169994
293,687.7730934341658
294,687.7610481332875
295,687.7493316353401
296,687.7379419821308
297,687.7268772559447
298,687.7161355043368
299,687.7057146696901
300,687.695612524416
301,687.685826613701
302,687.6763542081632
303,687.6671922688232
304,687.6583374267012
305,687.6497859789932
306,687.6415339029098
307,687.6335768869492
308,687.6259103780702
309,687.6185296423298
310,687.6114298361723
311,687.6046060855748
312,687.5980535704063
313,687.5917676115082
314,687.5857437582088
315,687.5799778742905
316,687.5744662207632
317,687.5692055340137
318,687.5641930979888
319,687.5594268090206
320,687.5549052317773
321,687.5506276446804
322,687.5465940730937
323,687.5428053086406
324,687.5392629131171
325,687.5359692058408
326,687.5329272341215
327,687.530140727725
328,687.5276140392297
329,687.5253520726105
330,687.5233602021292
331,687.5216441829517
332,687.5202100543013
333,687.5190640356185
334,687.5182124160649
335,687.5176614376918
336,687.5174171728305
337,687.5174853967933
338,687.5178714575101
339,687.5185801439048
340,687.519615554657
341,687.5209809687243
342,687.5226787186155
343,687.5247100668362
344,687.5270750855786
345,687.5297725400545
346,687.5327997767705
347,687.5361526189082
348,687.5398252714587
349,687.5438102390247
350,687.548098259432
351,687.5526782563855
352,687.5575373141692
353,687.5626606768135
354,687.5680317734709
355,687.5736322712091
356,687.5794421561661
357,687.5854398438968
358,687.5916023195844
359,687.5979053084195
360,687.6043234758391
361,687.6108306565067
362,687.6174001099732
363,687.6240048000263
364,687.6306176940229
365,687.6372120780733
366,687.6437618835758
367,687.6502420201159
368,687.6566287092679
369,687.6628998137127
370,687.6690351564355
371,687.6750168254675
372,687.6808294603542
373,687.6864605169769
374,687.6919005074991
375,687.6971432122997
376,687.7021858610185
377,687.7070292802379
378,687.7116780058144
379,687.7161403585062
380,687.7204284824159
381,687.724558346828
382,687.7285497130079
383,687.7324260681751
384,687.7362145291131
385,687.7399457178315
386,687.7436536115097
387,687.74737536869
388,687.7511511333533
389,687.7550238181343
390,687.7590388676175
391,687.7632440025635
392,687.7676889460431
393,687.772425132661
394,687.7775054022499
395,687.7829836797141
396,687.7889146430782
397,687.7953533819777
398,687.8023550486205
399,687.8099745027253
400,687.818265951509
401,687.8272825859103
402,687.8370762151965
403,687.8476969037163
404,687.8591926151298
405,687.8716088701834
406,687.8849884237412
407,687.8993709657085
408,687.9147928492431
409,687.9312868485542
410,687.9488819476443
411,687.9676031604126
412,687.9874713815343
413,688.0085032665007
414,688.0307111383148
415,688.054102917766
416,688.0786820741922
417,688.1044475942789
418,688.1313939676148
419,688.159511188945
420,688.1887847778344
421,688.2191958165894
422,688.2507210070328
423,688.2833327464426
424,688.3169992227988
425,688.3516845293146
426,688.3873487978796
427,688.4239483504949
428,688.4614358673972
429,688.4997605706988
430,688.538868422968
431,688.5787023407396
432,688.6192024231107
433,688.660306195293
434,688.7019488663765
435,688.7440635998564
436,688.786581794965
437,688.8294333766636
438,688.8725470920854
439,688.9158508110221
440,688.9592718278082
441,689.0027371619341
442,689.0461738549992
443,689.0895092620493
444,689.1326713358278
445,689.1755889029566
446,689.218191931411
447,689.2604117887121
448,689.3021814900394
449,689.3434359352256
450,689.3841121337119
451,689.4241494170712
452,689.4634896393045
453,689.502077365405
454,689.5398600485619
455,689.5767881959913
456,689.6128155228188
457,689.6478990927188
458,689.6819994432683
459,689.7150806935156
460,689.7471106313327
461,689.7780607785708
462,689.8079064326238
463,689.8366266835501
464,689.8642044062955
465,689.8906262277399
466,689.9158824683791
467,689.9399670586824
468,689.9628774306517
469,689.9846143857523
470,690.005181940982
471,690.0245871552835
472,690.0428399387931
473,690.0599528474781
474,690.0759408654153
475,690.0908211764167
476,690.1046129262152
477,690.117336976191
478,690.1290156497753
479,690.1396724732671
480,690.1493319137505
481,690.158019117696
482,690.1657596542999
483,690.1725792674957
484,690.1785036400693
485,690.1835581727959
486,690.18776778113
487,690.1911567115818
488,690.1937483793728
489,690.1955652282603
490,690.1966286126178
491,690.1969587010282
492,690.1965743999182
493,690.1954932952258
494,690.1937316098374
495,690.191304174624
496,690.1882244112795
497,690.1845043256817
498,690.1801545110703
499,690.175184160915
500,690.1696010917578
501,690.1634117762618
502,690.1566213860373
503,690.1492338429131
504,690.1412518768267
505,690.1326770887122
506,690.1235100172793
507,690.1137502088526
508,690.1033962894152
509,690.0924460381075
510,690.0808964619587
511,690.0687438723226
512,690.0559839638681
513,690.0426118967418
514,690.0286223817276
515,690.0140097672764
516,689.9987681267961
517,689.9828913449563
518,689.9663732027117
519,689.9492074616417
520,689.9313879487349
521,689.9129086429518
522,689.8937637649196
523,689.8739478710044
524,689.8534559527607
525,689.8322835423498
526,689.8104268239246
527,689.7878827503209
528,689.7646491638606
529,689.7407249197845
530,689.716110010885
531,689.6908056922438
532,689.6648146055229
533,689.6381409027288
534,689.6107903695314
535,689.5827705480601
536,689.554090858883
537,689.5247627219422
538,689.4947996765891
539,689.4642175011898
540,689.4330343325994
541,689.4012707850162
542,689.3689500666743
543,689.3360980919667
544,689.3027435861674
545,689.2689181799263
546,689.2346564909818
547,689.1999961908676
548,689.16497805473
549,689.1296459926266
550,689.0940470607964
551,689.0582314514187
552,689.0222524595213
553,688.9861664260303
554,688.9500326563484
555,688.9139133141787
556,688.8778732906934
557,688.841980049631
558,688.8063034493397
559,688.7709155429579
560,688.7358903578029
561,688.7013036547796
562,688.6672326684185
563,688.633755828148
564,688.6009524618404
565,688.5689024836132
566,688.5376860691559
567,688.5073833231033
568,688.4780739438855
569,688.4498368919279
570,688.4227500669739
571,688.3968899996642
572,688.3723315615166
573,688.3491476964658
574,688.3274091763982
575,688.3071843825402
576,688.2885391137842
577,688.271536421883
578,688.256236472143
579,688.2426964272368
580,688.2309703512908
581,688.2211091314008
582,688.2131604139956
583,688.2071685538594
584,688.2031745740201
585,688.2012161350918
586,688.2013275130291
587,688.203539584456
588,688.2078798185057
589,688.2143722734128
590,688.2230375953562
591,688.2338930166859
592,688.2469523507318
593,688.2622259807052
594,688.279720840758
595,688.2994403882669
596,688.3213845677623
597,688.3455497680535
598,688.3719287744618
599,688.4005107178102
600,688.4312810216755
601,688.464221349834
602,688.4993095565898
603,688.5365196432003
604,688.5758217236303
605,688.6171820025195
606,688.6605627678057
607,688.7059224000162
608,688.7532153997989
609,688.8023924348037
610,688.8534004067211
611,688.9061825392772
612,688.9606784880117
613,689.0168244722053
614,689.0745534282121
615,689.1337951822436
616,689.1944766399528
617,689.2565219901628
618,689.319852920615
619,689.3843888445339
620,689.4500471378464
621,689.5167433875583
622,689.5843916518
623,689.6529047316106
624,689.7221944540696
625,689.7921719660799
626,689.8627480378473
627,689.9338333747373
628,690.0053389357118
629,690.0771762560132
630,690.1492577712554
631,690.2214971396222
632,690.2938095585054
633,690.3661120717344
634,690.4383238637203
635,690.5103665373915
636,690.5821643735702
637,690.6536445701671
638,690.7247374601257
639,690.7953767073802
640,690.8654994802685
641,690.935046601933
642,691.003962677268
643,691.0721961957261
644,691.1396996087069
645,691.2064293796128
646,691.272346004403
647,691.3374140006887
648,691.4016018639336
649,691.4648819900586
650,691.5272305645927
651,691.5886274192725
652,691.649055857546
653,691.7085024508556
654,691.7669568079808
655,691.8244113200599
656,691.8808608839522
657,691.9363026063186
658,691.9907354903864
659,692.0441601071896
660,692.0965782533541
661,692.147992598229
662,692.198406324118
663,692.2478227642421
664,692.2962450434959
665,692.3436757268228
666,692.3901164792602
667,692.4355677408254
668,692.4800284188376
669,692.5234956000849
670,692.565964285217
671,692.6074271477376
672,692.6478743199831
673,692.6872932084786
674,692.7256683407729
675,692.76298124506
676,692.7992103627047
677,692.8343309926711
678,692.8683152662612
679,692.9011321505269
680,692.9327474789269
681,692.963124008052
682,692.992221499548
683,693.0199968266363
684,693.0464041046349
685,693.0713948446761
686,693.0949181296703
687,693.1169208115962
688,693.1373477292705
689,693.156141945773
690,693.1732450046276
691,693.1885972035523
692,693.2021378839726
693,693.2138057335794
694,693.2235390982951
695,693.2312762994474
696,693.2369559520195
697,693.2405172805243
698,693.241900429997
699,693.2410467702948
700,693.237899192094
701,693.2324023928741
702,693.2245031511176
703,693.2141505871542
704,693.2012964095213
705,693.1858951463325
706,693.1679043619545
707,693.1472848602341
708,693.1240008761824
709,693.0980202579002
710,693.0693146397726
711,693.0378596072986
712,693.0036348538308
713,692.9666243299047
714,692.9268163864259
715,692.8842039135411
716,692.838784477286
717,692.790560455931
718,692.7395391773753
719,692.6857330581543
720,692.6291597437305
721,692.5698422487744
722,692.5078090952047
723,692.4430944450567
724,692.3757382249206
725,692.3057862386713
726,692.233290265264
727,692.1583081384299
728,692.0809038053894
729,692.0011473624937
730,691.9191150669398
731,691.8348893249168
732,691.7485586571973
733,691.6602176431136
734,691.5699668432916
735,691.4779127006343
736,691.3841674178312
737,691.2888488082724
738,691.1920801162601
739,691.0939898024582
740,690.9947112915808
741,690.8943826808172
742,690.7931464088364
743,690.6911488861733
744,690.5885400885609
745,690.4854731156395
746,690.3821037185274
747,690.2785898006395
748,690.1750908966037
749,690.0717676341391
750,689.9687811834885
751,689.8662926986449
752,689.7644627542545
753,689.6634507818152
754,689.563414508715
755,689.4645094039047
756,689.366888134435
757,689.2707000372725
758,689.1760906102988
759,689.083201025319
760,688.9921676648555
761,688.9031216840125
762,688.8161885986625
763,688.7314879012785
764,688.649132705738
765,688.5692294224151
766,688.4918774648212
767,688.4171689888155
768,688.3451886650013
769,688.2760134846034
770,688.2097125990734
771,688.1463471938499
772,688.0859703970184
773,688.0286272240047
774,687.974354559785
775,687.9231811802348
776,687.8751278140594
777,687.8302072463141
778,687.7884244640202
779,687.7497768438686
780,687.7142543813613
781,687.6818399598974
782,687.6525096574136
783,687.6262330874356
784,687.6029737707979
785,687.582689533781
786,687.5653329280462
787,687.5508516676744
788,687.5391890788796
789,687.530284558471
790,687.5240740376803
791,687.5204904484322
792,687.5194641893315
793,687.5209235884797
794,687.5247953596792
795,687.5310050479053
796,687.5394774593989
797,687.550137071569
798,687.5629084181417
799,687.5777164456412
800,687.5944868382692
801,687.6131463092577
802,687.6336228574055
803,687.6558459876643
804,687.6797468946959
805,687.7052586087136
806,687.7323161037368
807,687.760856369345
808,687.790818447776
809,687.8221434386746
810,687.854774474177
811,687.8886566675502
812,687.923737039288
813,687.9599644251367
814,687.9972893706741
815,688.0356640167179
816,688.0750419791754
817,688.1153782262156
818,688.1566289549918
819,688.1987514697001
820,688.2417040627499
821,688.2854459012937
822,688.3299369219129
823,688.375137736288
824,688.4210095500864
825,688.4675140965128
826,688.5146135853392
827,688.5622706677126
828,688.6104484164092
829,688.6591103205544
830,688.708220293416
831,688.7577426917964
832,688.8076423455353
833,688.8578845955248
834,688.9084353385338
835,688.9592610772487
836,689.0103289741062
837,689.0616069075036
838,689.113063528813
839,689.1646683185555
840,689.2163916402967
841,689.2682047912538
842,689.3200800490229
843,689.3719907139424
844,689.4239111463534
845,689.4758167977
846,689.5276842344115
847,689.5794911538225
848,689.6312163917296
849,689.682839921267
850,689.7343428426541
851,689.7857073632358
852,689.836916767225
853,689.8879553746042
854,689.938808488659
855,689.9894623315353
856,690.0399039670588
857,690.0901212100183
858,690.1401025214449
859,690.1898368901713
860,690.2393137019012
861,690.2885225979533
862,690.3374533267684
863,690.3860955921365
864,690.4344389026434
865,690.4824724267994
866,690.5301848576836
867,690.5775642899681
868,690.6245981111322
869,690.6712729076008
870,690.7175743854233
871,690.7634873039448
872,690.8089954199369
873,690.8540814391404
874,690.8987269722818
875,690.9429124931644
876,690.9866172971549
877,691.0298194591904
878,691.0724957912586
879,691.114621800022
880,691.1561716457551
881,691.1971181040317
882,691.2374325316617
883,691.277084838249
884,691.3160434645855
885,691.3542753691939
886,691.391746024811
887,691.42841942716
888,691.4642581184686
889,691.4992232276817
890,691.5332745285829
891,691.5663705165616
892,691.5984685045553
893,691.6295247384401
894,691.6594945316366
895,691.6883324180584
896,691.7159923219502
897,691.7424277427368
898,691.7675919528098
899,691.7914382062337
900,691.8139199564764
901,691.8349910812526
902,691.8546061124152
903,691.8727204686239
904,691.8892906882504
905,691.9042746595634
906,691.917631844816
907,691.9293234948717
908,691.9393128517094
909,691.9475653372244
910,691.9540487275548
911,691.9587333123985
912,691.9615920386125
913,691.9626006372363
914,691.9617377334248
915,691.958984939676
916,691.9543269337905
917,691.9477515236724
