frame_number,force
0,688.7579960152609
1,688.7181030616359
2,688.6783295040655
3,688.6387942526983
4,688.5996152482315
5,688.5609089830629
6,688.5227900293561
7,688.4853705761808
8,688.4487599778671
9,688.4130643157047
10,688.3783859750915
11,688.3448232401839
12,688.3124699079951
13,688.2814149236788
14,688.2517420384438
15,688.2235294913357
16,688.1968497160527
17,688.1717690739237
18,688.1483476140145
19,688.1266388610976
20,688.1066896320611
21,688.0885398812718
22,688.072222575328
23,688.0577635974834
24,688.0451816818312
25,688.034488377213
26,688.025688040794
27,688.018777861327
28,688.0137479122133
29,688.0105812344698
30,688.009253949575
31,688.0097354018882
32,688.0119883299919
33,688.0159690659843
34,688.0216277614676
35,688.0289086387065
36,688.0377502651014
37,688.0480858487377
38,688.0598435524174
39,688.0729468233525
40,688.0873147356835
41,688.1028623431827
42,688.1195010398941
43,688.1371389269873
44,688.1556811846012
45,688.1750304477937
46,688.195087185831
47,688.2157500839907
48,688.2369164268646
49,688.258482481953
50,688.2803438822514
51,688.3023960065381
52,688.324534356025
53,688.3466549258786
54,688.3686545699674
55,688.3904313571138
56,688.411884917156
57,688.4329167752572
58,688.453430673177
59,688.473332876568
60,688.4925324676958
61,688.510941623189
62,688.528475876431
63,688.5450543640438
64,688.5606000557391
65,688.5750399667911
66,688.5883053525567
67,688.6003318847745
68,688.6110598096818
69,688.6204340881235
70,688.6284045177262
71,688.6349258370109
72,688.6399578112271
73,688.6434652997832
74,688.645418305364
75,688.6457920050736
76,688.6445667641814
77,688.6417281332788
78,688.6372668298854
79,688.6311787057527
80,688.6234647011814
81,688.6141307875038
82,688.6031878984984
83,688.5906518511168
84,688.5765432556757
85,688.5608874156568
86,688.5437142174047
87,688.525058010258
88,688.5049574778718
89,688.4834555015567
90,688.4605990163436
91,688.4364388602967
92,688.4110296174795
93,688.3844294549723
94,688.3566999543857
95,688.3279059383572
96,688.2981152925146
97,688.2673987833348
98,688.235829872193
99,688.2034845256891
100,688.1704410220932
101,688.136779753585
102,688.1025830239845
103,688.0679348418738
104,688.0329207092635
105,687.9976274061942
106,687.9621427718522
107,687.9265554829581
108,687.8909548304016
109,687.8554304953667
110,687.820072326384
111,687.7849701187715
112,687.7502133977653
113,687.7158912063978
114,687.6820918989625
115,687.6489029407568
116,687.6164107146916
117,687.5847003351682
118,687.5538554693425
119,687.5239581656633
120,687.4950886894989
121,687.4673253657006
122,687.4407444279897
123,687.4154198750614
124,687.3914233333771
125,687.36882392677
126,687.3476881531564
127,687.3280797687161
128,687.3100596797907
129,687.2936858424498
130,687.279013169289
131,687.2660934426394
132,687.2549752330324
133,687.2457038215312
134,687.2383211245022
135,687.2328656195605
136,687.229372271708
137,687.227872459026
138,687.2283938976656
139,687.2309605663131
140,687.2355926307298
141,687.2423063693218
142,687.2511141009036
143,687.2620241158846
144,687.2750406121411
145,687.29016363688
146,687.307389035765
147,687.3267084103699
148,687.3481090847237
149,687.3715740814204
150,687.3970821075628
151,687.4246075506915
152,687.4541204848002
153,687.4855866864993
154,687.5189676612839
155,687.5542206797116
156,687.5912988231391
157,687.6301510385439
158,687.6707222019056
159,687.7129531896946
160,687.7567809582073
161,687.802138630657
162,687.8489555919974
163,687.8971575914877
164,687.9466668531255
165,687.9974021942514
166,688.0492791527809
167,688.1022101235835
168,688.1561045045526
169,688.2108688529122
170,688.2664070522693
171,688.3226204907381
172,688.3794082501765
173,688.4366673062727
174,688.494292739033
175,688.5521779531683
176,688.6102149079153
177,688.6682943558653
178,688.7263060903971
179,688.7841392013072
180,688.8416823382559
181,688.8988239816813
182,688.9554527208621
183,689.011457538784
184,689.0667281034122
185,689.1211550648654
186,689.174630357853
187,689.2270475085973
188,689.2783019453525
189,689.3282913114814
190,689.3769157798663
191,689.4240783672276
192,689.4696852467456
193,689.513646057227
194,689.5558742069039
195,689.5962871698046
196,689.6348067725385
197,689.6713594693334
198,689.7058766032411
199,689.7382946515697
200,689.7685554537304
201,689.796606419743
202,689.8224007176588
203,689.8458974382283
204,689.8670617352946
205,689.8858649405788
206,689.9022846517236
207,689.9163047926961
208,689.9279156459476
209,689.9371138560132
210,689.9439024044847
211,689.9482905564298
212,689.950293778369
213,689.9499336279523
214,689.947237615673
215,689.9422390393574
216,689.9349767926623
217,689.9254951492245
218,689.913843524399
219,689.9000762167076
220,689.8842521312886
221,689.8664344877975
222,689.846690515337
223,689.8250911370058
224,689.8017106465146
225,689.7766263790513
226,689.7499183782961
227,689.7216690612431
228,689.6919628822798
229,689.6608859978179
230,689.6285259326694
231,689.594971249338
232,689.5603112214299
233,689.5246355124117
234,689.4880338609233
235,689.4505957737828
236,689.4124102277217
237,689.3735653807779
238,689.3341482941489
239,689.2942446652056
240,689.2539385723123
241,689.2133122321361
242,689.1724457702406
243,689.1314170058894
244,689.0903012520741
245,689.0491711318198
246,689.0080964117454
247,688.967143853659
248,688.9263770846784
249,688.8858564861337
250,688.8456391013673
251,688.8057785625249
252,688.7663250364814
253,688.7273251900895
254,688.6888221748561
255,688.6508556309695
256,688.6134617104484
257,688.576673119099
258,688.5405191769089
259,688.5050258964236
260,688.4702160785328
261,688.4361094248753
262,688.4027226657332
263,688.3700697018386
264,688.3381617580607
265,688.3070075465881
266,688.2766134370426
267,688.2469836309033
268,688.2181203376168
269,688.190023949788
270,688.1626932149472
271,688.1361254015966
272,688.1103164575799
273,688.0852611592406
274,688.0609532502178
275,688.0373855690125
276,688.0145501647361
277,687.9924384008098
278,687.9710410467899
279,687.9503483588228
280,687.9303501494023
281,687.9110358471286
282,687.8923945471379
283,687.8744150529002
284,687.8570859102185
285,687.8403954344867
286,687.8243317324806
287,687.8088827200903
288,687.7940361373837
289,687.7797795622236
290,687.766100423418
291,687.7529860141456
292,687.7404235061693
293,687.7283999651075
294,687.7169023667252
295,687.7059176139297
296,687.6954325539547
297,687.6854339951501
298,687.6759087229045
299,687.6668435145318
300,687.6582251533738
301,687.650040442716
302,687.6422762202737
303,687.6349193740356
304,687.6279568602313
305,687.6213757240935
306,687.6151631238109
307,687.6093063576636
308,687.603792893921
309,687.5986104028057
310,687.5937467897128
311,687.5891902288887
312,687.5849291968319
313,687.5809525047322
314,687.577249329337
315,687.5738092417392
316,687.5706222336903
317,687.5676787411185
318,687.5649696645618
319,687.5624863862123
320,687.5602207832285
321,687.5581652369286
322,687.5563126374664
323,687.5546563836035
324,687.5531903772307
325,687.5519090124025
326,687.5508071589201
327,687.5498801408767
328,687.5491237108993
329,687.5485340209594
330,687.5481075905345
331,687.5478412726841
332,687.5477322184
333,687.547777839474
334,687.5479757700716
335,687.5483238271926
336,687.5488199702553
337,687.5494622602116
338,687.5502488187551
339,687.5511777882335
340,687.5522472928141
341,687.5534554013532
342,687.554800092285
343,687.5562792206493
344,687.5578904872573
345,687.5596314100829
346,687.5614992982513
347,687.563491229254
348,687.5656040301745
349,687.5678342637749
350,687.570178220362
351,687.5726319163689
352,687.5751911005043
353,687.577851268128
354,687.5806076842832
355,687.58345541564
356,687.5863893715109
357,687.5894043540596
358,687.5924951177657
359,687.5956564380896
360,687.5988831890812
361,687.6021704294142
362,687.6055134960245
363,687.6089081042351
364,687.6123504530192
365,687.615837333923
366,687.6193662420518
367,687.6229354873753
368,687.6265443044613
369,687.6301929587123
370,687.6338828473056
371,687.6376165932659
372,687.6413981313465
373,687.645232784547
374,687.6491273301546
375,687.6530900542375
376,687.657130793622
377,687.6612609645209
378,687.6654935771612
379,687.6698432359705
380,687.6743261251833
381,687.6789599800834
382,687.6837640444315
383,687.6887590148538
384,687.6939669730599
385,687.6994113067657
386,687.7051166201451
387,687.7111086345737
388,687.7174140803313
389,687.7240605798225
390,687.7310765227916
391,687.7384909339853
392,687.7463333337779
393,687.7546335923407
394,687.7634217780203
395,687.7727280006886
396,687.7825822509596
397,687.7930142362313
398,687.8040532144489
399,687.8157278263232
400,687.8280659265972
401,687.8410944149966
402,687.8548390678029
403,687.8693243715079
404,687.8845733605073
405,687.9006074610229
406,687.9174463433234
407,687.9351077839576
408,687.9536075393099
409,687.972959231423
410,687.9931742467187
411,688.0142616479338
412,688.0362280992517
413,688.0590778042646
414,688.0828124560992
415,688.10743119884
416,688.1329305993588
417,688.1593046288515
418,688.1865446537361
419,688.2146394359411
420,688.2435751428425
421,688.2733353671298
422,688.3039011567822
423,688.3352510552243
424,688.3673611516559
425,688.400205141481
426,688.4337543966254
427,688.4679780453426
428,688.5028430609625
429,688.5383143590642
430,688.5743549027289
431,688.6109258156946
432,688.6479865032728
433,688.6854947807824
434,688.7234070090445
435,688.7616782362466
436,688.8002623453069
437,688.8391122058056
438,688.8781798295149
439,688.9174165284977
440,688.9567730746553
441,688.9961998595992
442,689.0356470538086
443,689.0750647641713
444,689.1144031891668
445,689.153612771105
446,689.1926443449529
447,689.2314492833013
448,689.2699796369658
449,689.3081882706405
450,689.3460289930734
451,689.3834566814102
452,689.4204273995584
453,689.4568985105303
454,689.4928287826928
455,689.5281784897496
456,689.5629095041115
457,689.5969853830959
458,689.6303714471752
459,689.6630348493634
460,689.6949446348688
461,689.726071790306
462,689.7563892819659
463,689.7858720828333
464,689.8144971881935
465,689.842243619738
466,689.8690924181316
467,689.8950266240918
468,689.920031248208
469,689.9440932299497
470,689.9672013865209
471,689.9893463523796
472,690.0105205103424
473,690.0307179152329
474,690.0499342109473
475,690.0681665416487
476,690.0854134576548
477,690.1016748165185
478,690.1169516798615
479,690.1312462067212
480,690.1445615444842
481,690.1569017187712
482,690.1682715237976
483,690.1786764146927
484,690.1881224031085
485,690.1966159572751
486,690.2041639075431
487,690.2107733583196
488,690.2164516071252
489,690.2212060712756
490,690.2250442224178
491,690.2279735288885
492,690.2300014056102
493,690.2311351710657
494,690.2313820107958
495,690.2307489468856
496,690.2292428130128
497,690.2268702347831
498,690.2236376152508
499,690.2195511256939
500,690.2146167018288
501,690.2088400456206
502,690.2022266326143
503,690.1947817244082
504,690.1865103857157
505,690.1774175055083
506,690.1675078218877
507,690.1567859504008
508,690.1452564154904
509,690.1329236847936
510,690.1197922061506
511,690.1058664473954
512,690.0911509391078
513,690.0756503204135
514,690.0593693876549
515,690.0423131454329
516,690.024486859353
517,690.0058961099153
518,689.9865468472804
519,689.9664454469221
520,689.9455987663366
521,689.9240142030371
522,689.9016997540631
523,689.8786640771892
524,689.854916553939
525,689.830467354369
526,689.8053275034001
527,689.7795089482552
528,689.7530246263927
529,689.7258885332353
530,689.6981157890057
531,689.6697227041009
532,689.6407268426068
533,689.6111470837164
534,689.5810036808726
535,689.5503183184111
536,689.5191141654204
537,689.4874159265661
538,689.4552498897549
539,689.422643970635
540,689.3896277538807
541,689.3562325309739
542,689.3224913338697
543,689.2884389636704
544,689.2541120133096
545,689.2195488832706
546,689.1847897894601
547,689.14987676249
548,689.1148536377387
549,689.0797660356695
550,689.044661331934
551,689.0095886168203
552,688.974598643667
553,688.9397437659874
554,688.9050778631953
555,688.8706562549462
556,688.8365356042469
557,688.8027738096597
558,688.7694298870825
559,688.7365638416579
560,688.7042365303379
561,688.672509515567
562,688.6414449104883
563,688.6111052160935
564,688.5815531508848
565,688.5528514739322
566,688.5250628026306
567,688.4982494268737
568,688.4724731216581
569,688.447794960281
570,688.4242751302656
571,688.4019727539479
572,688.3809457153407
573,688.3612504945775
574,688.3429420110039
575,688.3260734757976
576,688.3106962547456
577,688.2968597414349
578,688.2846112406851
579,688.2739958617258
580,688.2650564204597
581,688.257833350145
582,688.2523646199053
583,688.248685660589
584,688.2468292976176
585,688.2468256905686
586,688.2487022793446
587,688.2524837368334
588,688.2581919278704
589,688.2658458740807
590,688.2754617239183
591,688.287052727087
592,688.3006292125315
593,688.3161985692645
594,688.3337652294621
595,688.3533306535545
596,688.374893317463
597,688.3984487024695
598,688.4239892883077
599,688.4515045499595
600,688.4809809585743
601,688.5124019870455
602,688.545748121007
603,688.5809968761599
604,688.6181228228268
605,688.6570976185056
606,688.6978900490337
607,688.740466078819
608,688.7847889104394
609,688.830819053748
610,688.878514404512
611,688.9278303325968
612,688.9787197797067
613,689.0311333665315
614,689.0850195087893
615,689.14032454125
616,689.196992848604
617,689.254967002025
618,689.3141879004486
619,689.3745949158805
620,689.436126042379
621,689.4987180485743
622,689.5623066335911
623,689.626826586101
624,689.6922119460894
625,689.7583961688305
626,689.8253122904861
627,689.8928930946415
628,689.9610712789428
629,690.0297796208446
630,690.0989511413266
631,690.1685192653011
632,690.2384179773372
633,690.3085819712804
634,690.3789467924238
635,690.449448971082
636,690.5200261466872
637,690.5906171817811
638,690.661162265476
639,690.7316030060861
640,690.8018825127101
641,690.8719454656
642,690.9417381751766
643,691.0112086295024
644,691.0803065298511
645,691.1489833138339
646,691.2171921654818
647,691.2848880117716
648,691.3520275052753
649,691.4185689928673
650,691.4844724707146
651,691.549699526037
652,691.614213266322
653,691.6779782368295
654,691.7409603273658
655,691.8031266694314
656,691.8644455248714
657,691.924886167076
658,691.9844187556603
659,692.0430142054969
660,692.1006440510776
661,692.1572803074135
662,692.2128953289957
663,692.267461668617
664,692.3209519379957
665,692.3733386720604
666,692.4245941985022
667,692.4746905139101
668,692.5235991676128
669,692.5712911542776
670,692.6177368162985
671,692.662905756987
672,692.7067667655689
673,692.749287754973
674,692.7904357132895
675,692.8301766694972
676,692.8684756736563
677,692.9052967913855
678,692.9406031122222
679,692.9743567714333
680,693.006518984881
681,693.0370500966067
682,693.0659096388671
683,693.0930564044179
684,693.118448530814
685,693.1420435964036
686,693.1637987276184
687,693.1836707171491
688,693.2016161525883
689,693.2175915551094
690,693.2315535276977
691,693.2434589123361
692,693.2532649553256
693,693.2609294796032
694,693.2664110626077
695,693.269669218041
696,693.2706645798758
697,693.2693590871639
698,693.2657161684874
699,693.259700925101
700,693.2512803118732
701,693.2404233150846
702,693.2271011261182
703,693.2112873101305
704,693.1929579689337
705,693.1720918975122
706,693.1486707338573
707,693.1226791021054
708,693.094104749185
709,693.0629386751407
710,693.0291752570675
711,692.9928123663838
712,692.9538514791536
713,692.9122977793124
714,692.8681602548515
715,692.8214517872145
716,692.7721892342604
717,692.7203935071132
718,692.666089641056
719,692.6093068603975
720,692.5500786369741
721,692.4884427416686
722,692.4244412880488
723,692.358120767036
724,692.289532071431
725,692.2187305091538
726,692.1457758040947
727,692.0707320835287
728,691.9936678511646
729,691.9146559451851
730,691.833773481066
731,691.7511017793779
732,691.6667262790218
733,691.580736436353
734,691.4932256104987
735,691.4042909349176
736,691.3140331748957
737,691.2225565702449
738,691.129968662186
739,691.0363801034374
740,690.9419044508985
741,690.846657940819
742,690.750759246801
743,690.6543292213104
744,690.5574906216352
745,690.4603678215269
746,690.3630865101121
747,690.265773379967
748,690.1685558064047
749,690.0715615200409
750,689.9749182746209
751,689.8787535119855
752,689.7831940259367
753,689.6883656266846
754,689.5943928075242
755,689.5013984154747
756,689.4095033277397
757,689.3188261359004
758,689.2294828395802
759,689.1415865509571
760,689.0552472111476
761,688.9705713193135
762,688.8876616753106
763,688.8066171367014
764,688.727532390933
765,688.6504977434514
766,688.5755989224843
767,688.5029169011156
768,688.4325277371198
769,688.3645024308937
770,688.2989068017716
771,688.2358013830448
772,688.1752413360698
773,688.1172763839489
774,688.0619507653422
775,688.0093032089873
776,687.9593669294095
777,687.912169644136
778,687.8677336125342
779,687.8260756961984
780,687.7872074405741
781,687.7511351772058
782,687.71786014568
783,687.6873786340656
784,687.6596821364357
785,687.6347575258642
786,687.6125872411516
787,687.5931494854868
788,687.5764184353185
789,687.562364457848
790,687.5509543357206
791,687.5421514976158
792,687.5359162534965
793,687.5322060332041
794,687.5309756269081
795,687.5321774256835
796,687.5357616603234
797,687.5416766364311
798,687.5498689639153
799,687.5602837792203
800,687.5728649589394
801,687.5875553237859
802,687.6042968321053
803,687.6230307621697
804,687.6436978825175
805,687.6662386097407
806,687.6905931533923
807,687.7167016480046
808,687.7445042724684
809,687.7739413571841
810,687.8049534795307
811,687.8374815483884
812,687.8714668786854
813,687.9068512571405
814,687.9435770004379
815,687.9815870069801
816,688.0208248031676
817,688.0612345849393
818,688.1027612551177
819,688.1453504569782
820,688.1889486044806
821,688.2335029097703
822,688.2789614087534
823,688.3252729855768
824,688.372387396677
825,688.4202552948203
826,688.4688282533796
827,688.5180587909402
828,688.5679003961455
829,688.6183075524972
830,688.6692357627152
831,688.7206415722461
832,688.772482591524
833,688.8247175165621
834,688.8773061474417
835,688.9302094043032
836,688.9833893405226
837,689.0368091527605
838,689.0904331875388
839,689.144226943985
840,689.1981570724597
841,689.2521913689301
842,689.3062987650941
843,689.3604493143029
844,689.414614173253
845,689.4687655793238
846,689.5228768234382
847,689.5769222184342
848,689.6308770630435
849,689.6847176016062
850,689.7384209796086
851,689.7919651950912
852,689.8453290459689
853,689.8984920733224
854,689.9514345007196
855,690.0041371696025
856,690.0565814707168
857,690.1087492715526
858,690.1606228398605
859,690.2121847635467
860,690.2634178675479
861,690.3143051285797
862,690.3648295889429
863,690.4149742708423
864,690.4647220928367
865,690.514055790022
866,690.5629578393324
867,690.6114103910261
868,690.6593952070715
869,690.7068936067939
870,690.7538864197684
871,690.8003539455643
872,690.846275919612
873,690.8916314842884
874,690.9363991643379
875,690.9805568459069
876,691.0240817586857
877,691.0669504608986
878,691.1091388271343
879,691.1506220392266
880,691.191374580541
881,691.2313702340958
882,691.2705820849545
883,691.3089825272712
884,691.3465432763076
885,691.38323538576
886,691.4190292708762
887,691.4538947380089
888,691.4878010212793
889,691.5207168268463
890,691.5526103850345
891,691.5834495104109
892,691.6132016698236
893,691.641834058329
894,691.6693136827605
895,691.6956074524835
896,691.7206822766871
897,691.7445051674238
898,691.7670433475421
899,691.7882643626712
900,691.8081361964544
901,691.826627388225
902,691.8437071522648
903,691.8593454977234
904,691.8735133481925
905,691.8861826597937
906,691.8973265365146
907,691.9069193415313
908,691.9149368034891
909,691.9213561170659
910,691.9261560374113
911,691.929316968137
912,691.9308210424875
913,691.9306521972824
914,691.9287962393392
915,691.9252409043909
916,691.9199759088522
917,691.9129929950259
918,691.9042859703665
