frame_number,force
0,627.4926700000407
1,627.5728819946796
2,627.6537625556319
3,627.7357076490185
4,627.81863010546
5,627.9018578696554
6,627.9841620917438
7,628.0639094494173
8,628.1393128305295
9,628.2087392293677
10,628.2710177196809
11,628.32567631449
12,628.3730381735949
13,628.4141369461444
14,628.4504634873455
15,628.4836108008423
16,628.5149176125395
17,628.5452102919235
18,628.5747073974177
19,628.6030937411915
20,628.6297169111468
21,628.6538313623166
22,628.6748149747863
23,628.6922994117837
24,628.7061858151163
25,628.7165602939803
26,628.7235632535454
27,628.7272792550554
28,628.7276925471837
29,628.7247160675272
30,628.7182729697175
31,628.7083976299795
32,628.6953247412173
33,628.6795479325812
34,628.6618425949952
35,628.643242880198
36,628.6249420232137
37,628.6080816707408
38,628.5934379018152
39,628.5810791383077
40,628.5701090280677
41,628.558585734515
42,628.5436527561806
43,628.5218635560246
44,628.4896405239857
45,628.4437755998055
46,628.3818734144477
47,628.3026720237041
48,628.2062274725764
49,628.0939766667315
50,627.9686870250475
51,627.8342850934375
52,627.6955567837334
53,627.5577313325607
54,627.4259816737007
55,627.3048836895915
56,627.1978818122305
57,627.1068206277782
58,627.0316229482903
59,626.9702086955856
60,626.9187291468083
61,626.8721228563815
62,626.8249052908217
63,626.7720324644306
64,626.7096599224335
65,626.6356463880647
66,626.5497117468523
67,626.4532431516683
68,626.3488290294217
69,626.2396525422263
70,626.1288763320796
71,626.0191188078571
72,625.9120893897772
73,625.8084240408788
74,625.7077308282005
75,625.6088106398861
76,625.5099717342282
77,625.4093338061492
78,625.305038423615
79,625.1953420307474
80,625.0786307821018
81,624.9534267981625
82,624.8184410816524
83,624.6726835051248
84,624.5155924087527
85,624.3471243713661
86,624.1677656932457
87,623.9784798596302
88,623.7806482791912
89,623.5760537961115
90,623.3669000129333
91,623.1558035490332
92,622.9456889547599
93,622.7395576290862
94,622.5401557545734
95,622.3496021834023
96,622.1690498704255
97,621.9984471139106
98,621.8364441953455
99,621.680469779762
100,621.5269842759637
101,621.3718932682546
102,621.2110675608678
103,621.0408841380602
104,620.8586974683961
105,620.6631740640361
106,620.4544542377192
107,620.2341286349925
108,620.0050341864719
109,619.7708881690832
110,619.5357958408695
111,619.3036962971257
112,619.0778485337103
113,618.8604801163746
114,618.6527003196813
115,618.4547154222973
116,618.2662960976634
117,618.0873684727434
118,617.9185605681415
119,617.761548556123
120,617.6191117555217
121,617.4949003527063
122,617.3930022420502
123,617.317427773266
124,617.2716122910521
125,617.2579933326716
126,617.2776808198176
127,617.3302215060652
128,617.4134674410524
129,617.5235801083006
130,617.6552094258402
131,617.8018578166661
132,617.9563856511373
133,618.1115759320371
134,618.2606796671979
135,618.3978928098234
136,618.5187359049286
137,618.6203069839216
138,618.7013747279402
139,618.7622949234647
140,618.8047729728806
141,618.8315363627286
142,618.845991689261
143,618.8519162564005
144,618.8532027800121
145,618.853659999721
146,618.8568655936746
147,618.8660574058249
148,618.8840365716138
149,618.9130532729084
150,618.9546618960856
151,619.0095674964963
152,619.077521750549
153,619.1573304291226
154,619.2469901780921
155,619.3439122345901
156,619.4451652848944
157,619.5476907727923
158,619.6484820384611
159,619.7447462857956
160,619.8340761067241
161,619.9146400670793
162,619.9853629358761
163,620.0460299715061
164,620.0972473028653
165,620.1402305032442
166,620.1764563893788
167,620.207268801774
168,620.2335527950622
169,620.25557103609
170,620.2729973714708
171,620.2851097855097
172,620.2910498362921
173,620.2900421716752
174,620.2815021591423
175,620.2650261558792
176,620.2403236948783
177,620.207178524176
178,620.1655002255999
179,620.1154671798683
180,620.0577097551788
181,619.9934764125219
182,619.9247531925618
183,619.8543235266309
184,619.7857398085096
185,619.7231565266186
186,619.6709850084703
187,619.6333839268707
188,619.6136764803106
189,619.6138423858341
190,619.6342275797285
191,619.6735377740442
192,619.7290798439955
193,619.7971527454336
194,619.8734914586013
195,619.9537056586552
196,620.033688515639
197,620.1099796695833
198,620.1800565516494
199,620.2425215485758
200,620.2971648481263
201,620.3449084440061
202,620.3876547208439
203,620.42806156433
204,620.4692568957387
205,620.5145091537806
206,620.5668886445944
207,620.6289670644087
208,620.7025886399515
209,620.7887095599335
210,620.8872692770858
211,620.997059136812
212,621.1155993295333
213,621.2390938130811
214,621.3625567597963
215,621.4801725416131
216,621.5858843671061
217,621.6741367331598
218,621.7406428406757
219,621.7830220448526
220,621.8011696989099
221,621.7972865089083
222,621.7755817235279
223,621.7417353097024
224,621.7022385519596
225,621.6637330546872
226,621.6324419388117
227,621.6137419620746
228,621.6118777012775
229,621.629788065095
230,621.6690113303697
231,621.72965252567
232,621.81041812803
233,621.9087311561402
234,622.0209351523696
235,622.1425880259005
236,622.2688375998912
237,622.3948535989396
238,622.5162672048855
239,622.6295530014891
240,622.7322918103168
241,622.8232765390756
242,622.902457824296
243,622.9707610884429
244,623.0298300820547
245,623.081756567932
246,623.1288427861997
247,623.1734180941846
248,623.217701535026
249,623.2636822811071
250,623.3129919003313
251,623.3667639358777
252,623.4255065638205
253,623.4890381911376
254,623.5565297488585
255,623.6266488934934
256,623.6977409669488
257,623.7679606755889
258,623.8353049723069
259,623.8975645637332
260,623.9522673473618
261,623.9967038914184
262,624.0280979640092
263,624.0439270057261
264,624.0423314204218
265,624.0225075543498
266,623.9849781432952
267,623.931669762808
268,623.8657779286104
269,623.7914507654051
270,623.7133606003979
271,623.6362516345841
272,623.5645503841338
273,623.5021051712116
274,623.452082038516
275,623.4169962667422
276,623.3988210089852
277,623.3991024746983
278,623.4190211176272
279,623.4593590275076
280,623.520367388122
281,623.601578016271
282,623.7016434842113
283,623.8182850356329
284,623.9483826177793
285,624.0881971444504
286,624.2336875990816
287,624.3808588524635
288,624.5260501150386
289,624.6660782796129
290,624.7982043756663
291,624.9199752969497
292,625.0290603700804
293,625.1232107351835
294,625.2004083026734
295,625.2591729163598
296,625.2989191175338
297,625.3202388155081
298,625.3250280432817
299,625.3164350043106
300,625.2986470287972
301,625.2765481240349
302,625.2552806370122
303,625.2397506763451
304,625.2341300447964
305,625.241416469472
306,625.2631124256536
307,625.2990751889655
308,625.3475732619188
309,625.4055424453851
310,625.4689750588558
311,625.5333398700367
312,625.5939525700688
313,625.646277750844
314,625.6861893847916
315,625.7102184294821
316,625.7157895352296
317,625.7014261618658
318,625.6669024450862
319,625.6133366672439
320,625.5432330767204
321,625.4604623547448
322,625.3701323975156
323,625.2782840182683
324,625.1913847669022
325,625.1156672719675
326,625.0564156405418
327,625.0173197896402
328,625.00000230515
329,625.0037914089343
330,625.0257769479705
331,625.061149726296
332,625.1037902470966
333,625.1470437188077
334,625.1845978527741
335,625.2113660093156
336,625.2242639458175
337,625.2227601132316
338,625.209096504519
339,625.1881245487414
340,625.1667610262152
341,625.1531279706278
342,625.155494208436
343,625.1811738019233
344,625.2355441870878
345,625.3213259330697
346,625.4382273023632
347,625.5829995501655
348,625.7498706818025
349,625.9312489920266
350,626.1185539519133
351,626.303055880116
352,626.476656540925
353,626.6325776678704
354,626.7659294030365
355,626.8741174365164
356,626.9570301415835
357,627.0169403624981
358,627.0580809907023
359,627.0859170997359
360,627.1062217713812
361,627.1241315591105
362,627.1433747495652
363,627.1658162626969
364,627.1913695151967
365,627.2182355346038
366,627.2433792023993
367,627.2631426292709
368,627.2739015246425
369,627.2726711581353
370,627.2575711142141
371,627.228084586346
372,627.1850947679567
373,627.1307165324131
374,627.0679549049445
375,627.0002348570026
376,626.9308709640541
377,626.8625625932398
378,626.7969933517805
379,626.7345861076656
380,626.6744333810616
381,626.6144011219648
382,626.5513915621235
383,626.4817364644
384,626.4016694798403
385,626.3078057676543
386,626.1975574614451
387,626.0694400976714
388,625.9232589561484
389,625.760182572042
390,625.5827111538097
391,625.3945461200323
392,625.2003736338273
393,625.0055806605312
394,624.8159155896554
395,624.6370974635122
396,624.4743870876079
397,624.3321533511655
398,624.2134737040095
399,624.1197958350206
400,624.05068552275
401,624.0037087120354
402,623.9745172405796
403,623.9571869651535
404,623.9447892489795
405,623.9300992972579
406,623.9063039411913
407,623.8675876948477
408,623.8095312083101
409,623.7293115164214
410,623.6257264328424
411,623.4990828337029
412,623.3509978443532
413,623.1841581932464
414,623.0020693754133
415,622.8088143136368
416,622.6088317975455
417,622.4067157006492
418,622.2070338095375
419,622.014171474457
420,621.8322064789922
421,621.6648086588785
422,621.515143142254
423,621.3857582384626
424,621.2784592492396
425,621.194192694073
426,621.132978641793
427,621.0939278106023
428,621.0753637054788
429,621.0750407376406
430,621.0904168495481
431,621.1189168819806
432,621.1581221327685
433,621.2058476610995
434,621.2601110902827
435,621.3190284196193
436,621.3806769849583
437,621.4429543836801
438,621.5034564856587
439,621.5594039880058
440,621.6076557902212
441,621.6448476201818
442,621.6676780088222
443,621.6733250971436
444,621.6599225597017
445,621.626978278006
446,621.5756189862765
447,621.5085960988362
448,621.4300633251927
449,621.3451931305824
450,621.2597145121308
451,621.1794398850631
452,621.1098298070563
453,621.0556300774994
454,621.0205950725289
455,621.0072825499191
456,621.0168924256407
457,621.0491440423365
458,621.1022259174287
459,621.1728733243172
460,621.2566165851533
461,621.3482025727433
462,621.4421350335655
463,621.533229936533
464,621.6170745121394
465,621.6903214535607
466,621.7508104603479
467,621.7975473786388
468,621.8305737919077
469,621.8507502214679
470,621.8594886183397
471,621.8585042078943
472,621.8496689079806
473,621.8350075020586
474,621.8168097225416
475,621.7977857940043
476,621.7811864571346
477,621.7708232965169
478,621.7709455360334
479,621.7859563154275
480,621.8199852315902
481,621.8763620929489
482,621.9570489804261
483,622.0620934793542
484,622.1891811793312
485,622.3333841935919
486,622.4872008605099
487,622.6409473035906
488,622.7835016978994
489,622.9033317003383
490,622.9896695163983
491,623.0336581611236
492,623.0292979496168
493,622.9740719278781
494,622.8691929378776
495,622.7194696271674
496,622.5328341967067
497,622.3196123836304
498,622.091637093122
499,621.8613074798475
500,621.6406801183965
501,621.4406525667292
502,621.2702699202291
503,621.1361670344021
504,621.0421623868643
505,620.989038243443
506,620.9745585270219
507,620.9937676399123
508,621.0395676816402
509,621.1035060966115
510,621.1766607630383
511,621.2505078724122
512,621.3176852890579
513,621.372592476272
514,621.4117895371908
515,621.4341829198452
516,621.4410129560705
517,621.4356686891165
518,621.4233412970951
519,621.4105145589429
520,621.4043085902639
521,621.4117372848862
522,621.4389771226403
523,621.4907470957342
524,621.5698667367155
525,621.6770146799118
526,621.8106789448242
527,621.9672812791831
528,622.1414618126802
529,622.3265146546076
530,622.5149658843958
531,622.6992758461605
532,622.8726154587438
533,623.0296148413921
534,623.1669420793195
535,623.2835786074916
536,623.3807292529021
537,623.4614083402339
538,623.5298227948065
539,623.5906964590243
540,623.6486539246598
541,623.7077310062155
542,623.771029352331
543,623.8405079370544
544,623.9169036302369
545,623.9997738911335
546,624.0876476125194
547,624.1782659539584
548,624.2688926545093
549,624.3566600908192
550,624.4389012717018
551,624.5134227483943
552,624.5786996756588
553,624.6339978010332
554,624.679434058189
555,624.7159818715263
556,624.7454121727736
557,624.7701414001679
558,624.7929556420994
559,624.8166166540755
560,624.8434153660784
561,624.8747781722493
562,624.9110273462321
563,624.9513641234553
564,624.9941020144485
565,625.0371296727154
566,625.0785233438288
567,625.1171738060951
568,625.153269039047
569,625.1884958442317
570,625.2258851018854
571,625.2693085942939
572,625.3227191620759
573,625.3892914773446
574,625.4706522394624
575,625.5663711342613
576,625.6738116054964
577,625.7883353692513
578,625.9037674191628
579,626.0130024247271
580,626.1086632805334
581,626.1837617469569
582,626.2323257916938
583,626.2499554367996
584,626.2342705976758
585,626.1852254105246
586,626.1052733697295
587,625.9993697091136
588,625.8747945454694
589,625.7407744078783
590,625.6078739721777
591,625.4871409646532
592,625.3890373098417
593,625.3222757508992
594,625.2927607696328
595,625.3028495769137
596,625.3510843310333
597,625.4324369953548
598,625.5390055961974
599,625.6610295639671
600,625.7880516136842
601,625.9100446228772
602,626.01835001525
603,626.1063342345763
604,626.1697418743516
605,626.2067830299259
606,626.2180189424073
607,626.2061029688583
608,626.1754140982097
609,626.1316065159898
610,626.0810915753772
611,626.0304673477231
612,625.985925268322
613,625.9526935757965
614,625.9346022569168
615,625.9338502874401
616,625.9510163545024
617,625.9852889023982
618,626.0348243219206
619,626.0971103228975
620,626.1692407940933
621,626.2480812238606
622,626.3303683142843
623,626.4128062519054
624,626.4922002598444
625,626.5656346443334
626,626.6306787902543
627,626.6855930589936
628,626.7295013638941
629,626.7624957922518
630,626.7856428254383
631,626.8008720434705
632,626.8107467410073
633,626.8181399026464
634,626.8258628152224
635,626.8363070854871
636,626.8511535453579
637,626.871172911356
638,626.8961112375125
639,626.9246442064065
640,626.954404442778
641,626.9821116898406
642,627.0038366426847
643,627.0153974382652
644,627.0128419082713
645,626.9929362396329
646,626.9535773584878
647,626.8940680066192
648,626.8152247587332
649,626.7193186474045
650,626.6098718265961
651,626.4913465573875
652,626.3687592122508
653,626.2472427745874
654,626.1315885202088
655,626.025820773137
656,625.932868595183
657,625.8543774645879
658,625.7906704938739
659,625.7408458924676
660,625.7029838454852
661,625.6744222600477
662,625.6520520351673
663,625.6325873776651
664,625.6127835544548
665,625.5895994508002
666,625.5603302802033
667,625.5227478823793
668,625.4752638687218
669,625.4170882449635
670,625.3483309238248
671,625.2700061157628
672,625.1839354513646
673,625.0925753256306
674,624.9987986433165
675,624.9056433708647
676,624.8160196643382
677,624.7323649803665
678,624.6562580808112
679,624.5880407312544
680,624.5265402280107
681,624.4690140379513
682,624.4114117154613
683,624.3489562491872
684,624.2769326611492
685,624.1915017473569
686,624.0903555230119
687,623.973078820961
688,623.8411560129256
689,623.6976506573089
690,623.546669481122
691,623.3927675376754
692,623.2404338482655
693,623.093728793489
694,622.956074641529
695,622.8301703403082
696,622.7180067349761
697,622.6209647920216
698,622.5399684345804
699,622.4756454315848
700,622.4284446746075
701,622.3986759514308
702,622.386467665195
703,622.3916569753884
704,622.4136316558695
705,622.4511507959312
706,622.5021898816285
707,622.563867472655
708,622.6324943207787
709,622.7037441721732
710,622.7729089362934
711,622.8351970132052
712,622.8860551555681
713,622.9215082662573
714,622.9385004174055
715,622.9351997322836
716,622.9112202110593
717,622.867715191017
718,622.8073047867808
719,622.7338200765818
720,622.6518836759452
721,622.5663880311603
722,622.4819636250411
723,622.4025369880939
724,622.331052742398
725,622.2693799489923
726,622.2183717158013
727,622.1780279376651
728,622.1477185264707
729,622.1264331963137
730,622.1130252044654
731,622.1064160566522
732,622.1057268716062
733,622.1103034581533
734,622.1196189363862
735,622.133072711273
736,622.1497440241387
737,622.1681867541946
738,622.1863545328277
739,622.2017100442051
740,622.2115134859513
741,622.2132375968611
742,622.2050377661662
743,622.1862009716153
744,622.1574888388263
745,622.1212842256526
746,622.0814706708459
747,622.0430298631026
748,622.0114141893622
749,621.9918059345046
750,621.9883927048155
751,622.0037743831962
752,622.0385845194958
753,622.0913678760937
754,622.1587126423138
755,622.2356028639243
756,622.3159421688102
757,622.3931939501194
758,622.4610701190342
759,622.5141821856639
760,622.5485620093569
761,622.5619783162934
762,622.5540174941581
763,622.525947958152
764,622.4804244254595
765,622.4210959337593
766,622.3521647779422
767,622.2779285942761
768,622.2023451914114
769,622.1286803501147
770,622.0593055248797
771,621.9956895443959
772,621.9385795067464
773,621.8883084720695
774,621.8451300904499
775,621.8094843451976
776,621.7821351190172
777,621.7641623096271
778,621.7568252854111
779,621.7613433426483
780,621.778658544882
781,621.8092417283967
782,621.8529717335324
783,621.9090849553704
784,621.9761810906956
785,622.0522781715952
786,622.1349142830016
787,622.221283473034
788,622.3083788754851
789,622.3931146891557
790,622.4724169622964
791,622.5433005209136
792,622.6029698520549
793,622.6489859263507
794,622.6795240576594
795,622.693706633915
796,622.6919358911849
797,622.6761015528111
798,622.6495345325411
799,622.6166454192369
800,622.5823009687601
801,622.5510897467858
802,622.5266638927601
803,622.5113151298679
804,622.5058648120933
805,622.5098457863693
806,622.5218726125701
807,622.5400724686591
808,622.562475464749
809,622.5873032618522
810,622.6131244144892
811,622.6388686771234
812,622.6637221421234
813,622.6869552220716
814,622.7077487118218
815,622.7250705802335
816,622.7376289561336
817,622.7439043703515
818,622.7422520506168
819,622.7310541745419
820,622.7088923420768
821,622.6747147039144
822,622.6279907036408
823,622.5688602790132
824,622.4982796617592
825,622.4181483695243
826,622.3313860570144
827,622.2419244312274
828,622.1545908972904
829,622.0748786902858
830,622.0086109782097
831,621.9615125477299
832,621.9387123861214
833,621.9442203208384
834,621.9804446924279
835,622.0478311584152
836,622.1446919188598
837,622.2672585112418
838,622.4099443749755
839,622.5657667388001
840,622.7268634786989
841,622.8850487965323
842,623.0323734398141
843,623.1616752870217
844,623.2671045933747
845,623.3445801249992
846,623.3921047359873
847,623.409877169808
848,623.4001798053198
849,623.3670632298015
850,623.3158661803516
851,623.2526174471262
852,623.1833848473341
853,623.1136646084537
854,623.0479190997438
855,622.9893438369675
856,622.9398752405496
857,622.9003749147338
858,622.870886078003
859,622.8508687216219
860,622.8393672910831
861,622.8351165636524
862,622.8366210498654
863,622.8422453416699
864,622.8503394668189
865,622.8594066178325
866,622.8683034323006
867,622.8764426126978
868,622.8839438804188
869,622.8916622313577
870,622.9010331934804
871,622.9137264752825
872,622.9311747626045
873,622.9541025136239
874,622.9821899419928
875,623.0139700309807
876,623.0469886998643
877,623.0781794720984
878,623.104340325515
879,623.1225820683243
880,623.1306538607195
881,623.1271174192824
882,623.1113969804139
883,623.0837506303412
884,623.0451914864316
885,622.997361366166
886,622.9423551544481
887,622.882513384946
888,622.8202161455865
889,622.757702116281
890,622.6969141663698
891,622.6393658610826
892,622.5860419920344
893,622.5373711529782
894,622.493307995335
895,622.4535272768599
896,622.417688411626
897,622.3857130522832
898,622.3580311405566
899,622.3357663370582
900,622.3208327257541
901,622.3159099088933
902,622.32427103251
903,622.3494625784678
904,622.3948647403249
905,622.4631843978584
906,622.5559433213627
907,622.6730228604121
908,622.8123212555432
909,622.9695806411073
910,623.1384459257636
911,623.3108109673406
912,623.477470675009
913,623.6290289101707
914,623.7569354111159
915,623.8544773937643
916,623.9175567911566
