frame_number,force
0,615.4287454317582
1,615.4146864278936
2,615.4010516318308
3,615.3878719450743
4,615.3751771910757
5,615.3629959405162
6,615.3513553123269
7,615.3402807507922
8,615.3297957811726
9,615.3199217481636
10,615.3106775430891
11,615.302079326487
12,615.2941402522495
13,615.286870198071
14,615.2802755055059
15,615.2743587323155
16,615.2691184205429
17,615.2645488859395
18,615.2606400372142
19,615.2573772355989
20,615.2547412054524
21,615.2527080053036
22,615.2512490668443
23,615.2503313075756
24,615.2499173210483
25,615.2499656465828
26,615.250431117911
27,615.2512652875732
28,615.2524169213654
29,615.2538325547256
30,615.2554571009674
31,615.2572345003151
32,615.259108399102
33,615.261022849759
34,615.262923023246
35,615.264755925455
36,615.2664711077709
37,615.26802136038
38,615.2693633763508
39,615.270458375449
40,615.2712726784101
41,615.271778224087
42,615.2719530231078
43,615.2717815425844
44,615.2712550172704
45,615.2703716834169
46,615.2691369319184
47,615.2675633768056
48,615.2656708344397
49,615.2634862090541
50,615.2610432817744
51,615.2583824021777
52,615.2555500834267
53,615.2525985044202
54,615.2495849254988
55,615.2465710273237
56,615.2436221846423
57,615.2408066875487
58,615.2381949233479
59,615.2358585328546
60,615.2338695556272
61,615.2322995785656
62,615.231218901385
63,615.2306957312145
64,615.2307954173957
65,615.2315797365104
66,615.2331062364952
67,615.2354276469097
68,615.2385913596929
69,615.2426389814257
70,615.2476059551911
71,615.2535212485532
72,615.260407104263
73,615.2682788515718
74,615.2771447773016
75,615.2870060560122
76,615.2978567376913
77,615.3096837905638
78,615.3224671969529
79,615.3361801014097
80,615.3507890113352
81,615.3662540501504
82,615.3825292618471
83,615.3995629640851
84,615.4172981454097
85,615.4356729010264
86,615.4546209011461
87,615.4740718860876
88,615.4939521825355
89,615.5141852353086
90,615.534692148998
91,615.5553922343904
92,615.576203555688
93,615.5970434757833
94,615.617829198032
95,615.6384783042085
96,615.658909289368
97,615.6790420945766
98,615.6987986377309
99,615.7181033416186
100,615.7368836576629
101,615.7550705835041
102,615.7725991723763
103,615.789409031687
104,615.8054448070284
105,615.820656646258
106,615.8350006369878
107,615.848439210256
108,615.8609415030502
109,615.8724836723588
110,615.8830491536329
111,615.8926288570524
112,615.9012212955879
113,615.908832639519
114,615.9154766930884
115,615.9211747903221
116,615.9259556083498
117,615.9298548975452
118,615.9329151284586
119,615.9351850558373
120,615.936719200313
121,615.9375772494741
122,615.9378233826661
123,615.9375255274406
124,615.9367545586712
125,615.9355834527611
126,615.934086409026
127,615.9323379494705
128,615.9304120082523
129,615.9283810235165
130,615.9263150460813
131,615.9242808806591
132,615.9223412754673
133,615.920554175279
134,615.9189720513358
135,615.9176413191727
136,615.9166018524535
137,615.9158865978704
138,615.9155212937028
139,615.9155242929637
140,615.9159064908542
141,615.9166713550488
142,615.9178150558461
143,615.9193266911874
144,615.9211885990898
145,615.9233767477929
146,615.9258611924175
147,615.9286065861673
148,615.9315727338193
149,615.9347151753973
150,615.9379857885768
151,615.9413333993631
152,615.9447043915907
153,615.9480433065714
154,615.9512934246608
155,615.9543973209489
156,615.9572973884192
157,615.9599363240318
158,615.9622575753978
159,615.9642057467688
160,615.9657269630623
161,615.9667691909117
162,615.9672825172754
163,615.9672193885876
164,615.9665348156952
165,615.9651865509882
166,615.9631352440913
167,615.9603445818019
168,615.9567814173388
169,615.9524158936072
170,615.947221564697
171,615.9411755189685
172,615.9342585060188
173,615.9264550685649
174,615.9177536784563
175,615.9081468736291
176,615.8976313907682
177,615.8862082875185
178,615.8738830479107
179,615.8606656642472
180,615.8465706880517
181,615.8316172429686
182,615.8158289946282
183,615.799234076071
184,615.7818649709241
185,615.7637583587858
186,615.7449549279141
187,615.7254991598426
188,615.7054390896699
189,615.6848260450923
190,615.6637143669656
191,615.6421611137861
192,615.6202257516421
193,615.5979698306187
194,615.5754566491842
195,615.552750909254
196,615.5299183653378
197,615.5070254712514
198,615.4841390277069
199,615.4613258336027
200,615.4386523427434
201,615.4161843263421
202,615.3939865407873
203,615.3721224002859
204,615.3506536548163
205,615.3296400745887
206,615.3091391425991
207,615.2892057570939
208,615.2698919460192
209,615.2512465955301
210,615.2333151938724
211,615.2161395903738
212,615.1997577678048
213,615.1842036261614
214,615.1695067772596
215,615.1556923518073
216,615.1427808231058
217,615.1307878536181
218,615.1197241715898
219,615.1095954843634
220,615.1004024335575
221,615.0921405958615
222,615.0848005322063
223,615.0783678873938
224,615.072823541741
225,615.0681438159762
226,615.0643007305432
227,615.0612623205111
228,615.0589930069821
229,615.0574540244852
230,615.0566039012567
231,615.0563989864103
232,615.056794015844
233,615.0577427076884
234,615.059198377952
235,615.0611145674089
236,615.0634456712477
237,615.066147563146
238,615.0691782049975
239,615.0724982327133
240,615.0760715078119
241,615.0798656244978
242,615.083852363159
243,615.0880080836085
244,615.0923140542483
245,615.0967567157904
246,615.1013278798804
247,615.1060248640283
248,615.1108505647168
249,615.1158134703988
250,615.1209276158113
251,615.1262124793942
252,615.131692826829
253,615.1373985050866
254,615.1433641922235
255,615.149629108462
256,615.156236694121
257,615.1632342596234
258,615.1706726117175
259,615.1786056580839
260,615.1870899901713
261,615.1961844424527
262,615.2059496262224
263,615.2164474374971
264,615.22774054042
265,615.2398918284201
266,615.2529638650431
267,615.2670183059233
268,615.2821153039097
269,615.2983129007973
270,615.3156664106727
271,615.3342278009839
272,615.354045078145
273,615.3751616850486
274,615.3976159186062
275,615.4214403765556
276,615.4466614439868
277,615.4732988307267
278,615.5013651702843
279,615.5308656893726
280,615.561797954411
281,615.5941516983264
282,615.6279087276832
283,615.6630429073
284,615.6995202181781
285,615.7372988854594
286,615.7763295755534
287,615.816555663817
288,615.8579135748448
289,615.9003331960823
290,615.9437383624254
291,615.9880474057953
292,616.0331737607723
293,616.0790266158875
294,616.125511599675
295,616.1725314903396
296,616.2199869376968
297,616.2677771861479
298,616.3158007880714
299,616.3639562980045
300,616.4121429391981
301,616.4602612356776
302,616.5082136046989
303,616.5559049060347
304,616.6032429457184
305,616.6501389330735
306,616.696507891182
307,616.742269022053
308,616.7873460287186
309,616.8316673976857
310,616.8751666464689
311,616.9177825415926
312,616.9594592921261
313,617.0001467228119
314,617.0398004296292
315,617.0783819192718
316,617.1158587323121
317,617.1522045476806
318,617.1873992638135
319,617.2214290497552
320,617.2542863578515
321,617.2859698886717
322,617.3164844989766
323,617.3458410451572
324,617.3740561571104
325,617.4011519400424
326,617.4271556038035
327,617.4520990213143
328,617.4760182198125
329,617.4989528112401
330,617.5209453708916
331,617.5420407757242
332,617.5622855147507
333,617.5817269837913
334,617.6004127763249
335,617.6183899816812
336,617.6357045012309
337,617.652400392455
338,617.668519249832
339,617.6840996301993
340,617.6991765284781
341,617.713780907588
342,617.7279392843866
343,617.7416733717461
344,617.7549997755688
345,617.7679297448245
346,617.7804689726878
347,617.792617447541
348,617.8043693538402
349,617.8157130242639
350,617.8266309456538
351,617.837099821469
352,617.8470906925323
353,617.8565691159951
354,617.8654954004644
355,617.873824893974
356,617.8815083211543
357,617.8884921660155
358,617.8947190964623
359,617.9001284259421
360,617.9046566070954
361,617.9082377525265
362,617.9108041786283
363,617.9122869690995
364,617.9126165550173
365,617.9117233083342
366,617.9095381456175
367,617.9059931384348
368,617.9010221258079
369,617.8945613229447
370,617.8865499195108
371,617.8769306601407
372,617.8656503998261
373,617.8526606275614
374,617.8379179533162
375,617.8213845554476
376,617.8030285870947
377,617.782824540474
378,617.7607535676234
379,617.7368037554163
380,617.7109703519633
381,617.683255941269
382,617.6536705634298
383,617.6222317781744
384,617.5889646695088
385,617.5539017887609
386,617.5170830331612
387,617.4785554578235
388,617.4383730205153
389,617.3965962602182
390,617.353291911409
391,617.3085324561208
392,617.2623956159111
393,617.2149637868052
394,617.1663234224488
395,617.116564373665
396,617.0657791954752
397,617.014062434678
398,616.96150991195
399,616.9082180121885
400,616.8542829959391
401,616.7998003439977
402,616.7448641468916
403,616.6895665501853
404,616.6339972645128
405,616.5782431461287
406,616.522387850934
407,616.4665115633185
408,616.4106908003533
409,616.3549982908843
410,616.2995029277654
411,616.2442697905007
412,616.1893602351809
413,616.1348320482678
414,616.0807396598581
415,616.0271344105261
416,615.9740648641404
417,615.9215771576881
418,615.8697153783515
419,615.8185219574614
420,615.768038069895
421,615.7183040263614
422,615.66935964608
423,615.6212445992467
424,615.5739987116262
425,615.5276622264298
426,615.4822760206644
427,615.4378817745712
428,615.394522093921
429,615.35224058572
430,615.3110818880695
431,615.2710916548249
432,615.232316495975
433,615.1948038754681
434,615.1586019691797
435,615.1237594865314
436,615.0903254599632
437,615.0583490070637
438,615.0278790702812
439,614.9989641384051
440,614.9716519526502
441,614.9459891988843
442,614.9220211869209
443,614.8997915179847
444,614.8793417421915
445,614.8607110087742
446,614.8439357127027
447,614.8290491424125
448,614.8160811346937
449,614.8050577444358
450,614.7960009387099
451,614.7889283259229
452,614.7838529304603
453,614.7807830209701
454,614.7797219969914
455,614.7806683351324
456,614.7836155932865
457,614.7885524696608
458,614.7954629122331
459,614.8043262727942
460,614.8151174977331
461,614.8278073459697
462,614.8423626239432
463,614.8587464286478
464,614.8769183918009
465,614.8968349205405
466,614.9184494322088
467,614.9417125827212
468,614.9665724894115
469,614.9929749497983
470,615.0208636577108
471,615.0501804181933
472,615.0808653624962
473,615.1128571637697
474,615.1460932526602
475,615.1805100304689
476,615.2160430765317
477,615.2526273462365
478,615.290197356531
479,615.3286873566122
480,615.3680314821181
481,615.4081638911216
482,615.4490188798445
483,615.4905309761346
484,615.5326350098455
485,615.5752661610471
486,615.6183599889024
487,615.6618524457521
488,615.7056798822794
489,615.749779050338
490,615.7940871098428
491,615.8385416452368
492,615.8830806961017
493,615.9276428057673
494,615.9721670909342
495,616.0165933340346
496,616.0608620983165
497,616.1049148636797
498,616.1486941794741
499,616.1921438294107
500,616.2352090036757
501,616.2778364739576
502,616.3199747679644
503,616.3615743408617
504,616.4025877417746
505,616.4429697741745
506,616.4826776499183
507,616.5216711379653
508,616.5599127099057
509,616.5973676846455
510,616.6340043737863
511,616.6697942281493
512,616.7047119851534
513,616.7387358162239
514,616.771847472817
515,616.8040324290832
516,616.8352800187984
517,616.8655835638571
518,616.8949404911817
519,616.9233524343326
520,616.9508253157695
521,616.9773694059561
522,617.0029993561907
523,617.0277342026377
524,617.0515973392106
525,617.0746164568617
526,617.0968234466724
527,617.1182542639949
528,617.1389487506608
529,617.1589504117757
530,617.1783061429385
531,617.1970659034347
532,617.2152823317332
533,617.2330103019032
534,617.2503064234418
535,617.2672284919046
536,617.2838349022609
537,617.3001840398181
538,617.3163336648099
539,617.3323403069356
540,617.3482586854598
541,617.3641411687673
542,617.3800372846025
543,617.39599328914
544,617.4120518002169
545,617.4282514978815
546,617.4446268936487
547,617.4612081678466
548,617.4780210720463
549,617.4950868913314
550,617.5124224598104
551,617.530040222412
552,617.5479483364182
553,617.566150807172
554,617.5846476536715
555,617.6034351007021
556,617.6225057942179
557,617.6418490360178
558,617.6614510331665
559,617.68129515792
560,617.7013622152989
561,617.7216307172723
562,617.7420771638959
563,617.7626763321651
564,617.7834015726473
565,617.8042251122395
566,617.8251183591346
567,617.8460522042452
568,617.8669973128748
569,617.8879244014757
570,617.9088044960346
571,617.9296091701206
572,617.9503107617278
573,617.970882568873
574,617.9912990244748
575,618.011535851254
576,618.031570197362
577,618.0513807533039
578,618.0709478505016
579,618.0902535414469
580,618.1092816610555
581,618.1280178689565
582,618.1464496731417
583,618.1645664362695
584,618.1823593664354
585,618.1998214942553
586,618.2169476380063
587,618.2337343588028
588,618.2501799083731
589,618.2662841722284
590,618.2820486098689
591,618.2974761909774
592,618.3125713236245
593,618.3273397690475
594,618.34178853801
595,618.3559257651507
596,618.3697605592203
597,618.3833028284997
598,618.3965630819745
599,618.4095522077948
600,618.4222812311901
601,618.4347610547487
602,618.4470021851117
603,618.4590144512528
604,618.4708067200613
605,618.4823866149054
606,618.4937602424371
607,618.5049319320098
608,618.5159039906965
609,618.526676475746
610,618.5372469861082
611,618.5476104752936
612,618.5577590883099
613,618.56768202496
614,618.577365430314
615,618.586792311446
616,618.5959424784505
617,618.6047925076942
618,618.6133157257906
619,618.6214822132087
620,618.6292588263955
621,618.6366092369079
622,618.6434939856136
623,618.6498705498233
624,618.6556934214914
625,618.6609141955204
626,618.6654816686437
627,618.6693419508736
628,618.6724385925477
629,618.6747127304692
630,618.6761032567455
631,618.6765470138907
632,618.6759790197474
633,618.6743327259409
634,618.6715403137667
635,618.6675330311832
636,618.6622415738207
637,618.655596511853
638,618.64752876326
639,618.6379701122257
640,618.6268537692683
641,618.6141149677351
642,618.599691589812
643,618.5835248139759
644,618.5655597748823
645,618.5457462265324
646,618.5240392002835
647,618.5003996500699
648,618.4747950773984
649,618.4472001283469
650,618.4175971544743
651,618.3859767298125
652,618.3523381173467
653,618.3166896805361
654,618.2790492378276
655,618.2394443598719
656,618.1979126098303
657,618.154501727053
658,618.1092697540319
659,618.0622851061115
660,618.0136265830222
661,617.9633833209216
662,617.9116546833557
663,617.8585500893607
664,617.8041887769676
665,617.7486995008363
666,617.6922201637957
667,617.6348973835334
668,617.5768859969862
669,617.5183485054886
670,617.4594544634809
671,617.4003798133317
672,617.3413061693045
673,617.282420054987
674,617.2239121001379
675,617.1659762045211
676,617.108808677704
677,617.0526073647999
678,616.9975707684295
679,616.943897176711
680,616.8917838061175
681,616.8414259667358
682,616.7930162557898
683,616.746743783271
684,616.7027934314361
685,616.6613451483197
686,616.6225732746298
687,616.5866459033252
688,616.553724271367
689,616.5239621833117
690,616.497505466439
691,616.4744914568
692,616.4550485149857
693,616.4392955699269
694,616.4273416892313
695,616.4192856756872
696,616.4152156913456
697,616.4152089123928
698,616.4193312195654
699,616.4276369301409
700,616.4401685783255
701,616.4569567507016
702,616.4780199823392
703,616.5033647178633
704,616.532985340713
705,616.5668642728507
706,616.6049721457987
707,616.6472680420193
708,616.6936998036148
709,616.744204403374
710,616.7987083713625
711,616.8571282686811
712,616.9193711991168
713,616.9853353494864
714,617.0549105505071
715,617.1279788518785
716,617.2044151076658
717,617.2840875704763
718,617.36685849474
719,617.4525847503857
720,617.5411184483431
721,617.6323075785654
722,617.7259966599121
723,617.8220273998212
724,617.9202393606934
725,618.0204706293761
726,618.1225584858241
727,618.2263400666483
728,618.3316530185323
729,618.4383361352249
730,618.5462299702642
731,618.6551774163887
732,618.7650242422411
733,618.8756195776357
734,618.9868163401104
735,619.098471597257
736,619.2104468608892
737,619.3226083102767
738,619.4348269426587
739,619.5469786506692
740,619.6589442287709
741,619.7706093142166
742,619.8818642715488
743,619.9926040321835
744,620.1027279017326
745,620.2121393474985
746,620.3207457773316
747,620.4284583190794
748,620.535191607509
749,620.6408635832785
750,620.7453953068359
751,620.8487107894571
752,620.950736843727
753,621.0514029558129
754,621.1506411813031
755,621.2483860651798
756,621.3445745848088
757,621.4391461129734
758,621.532042396686
759,621.6232075473447
760,621.7125880385822
761,621.8001327092707
762,621.8857927702404
763,621.9695218142796
764,622.0512758297322
765,622.1310132182864
766,622.2086948174542
767,622.2842839282997
768,622.3577463493828
769,622.429050417936
770,622.4981670579575
771,622.5650698322094
772,622.6297349924229
773,622.6921415207091
774,622.7522711554195
775,622.8101083955919
776,622.8656404788043
777,622.9188573277745
778,622.9697514618853
779,623.0183178711397
780,623.0645538515789
781,623.108458802743
782,623.1500339894664
783,623.1892822722682
784,623.2262078124685
785,623.2608157592699
786,623.2931119262138
787,623.3231024641359
788,623.3507935376086
789,623.3761910118387
790,623.3993001566497
791,623.4201253733247
792,623.4386699491859
793,623.454935844468
794,623.4689235163363
795,623.4806317850346
796,623.4900577462048
797,623.4971967312791
798,623.5020423151518
799,623.5045863675225
800,623.5048191414758
801,623.5027293906918
802,623.4983045061499
803,623.4915306642949
804,623.4823929801054
805,623.4708756590983
806,623.4569621420592
807,623.4406352363252
808,623.4218772285817
809,623.4006699761402
810,623.3769949759193
811,623.3508334125037
812,623.3221661884809
813,623.290973941423
814,623.2572370522204
815,623.2209356491906
816,623.1820496118302
817,623.1405585776315
818,623.0964419552988
819,623.0496789478651
820,623.0002485892392
821,622.948129797355
822,622.8933014465838
823,622.8357424618214
824,622.7754319367128
825,622.712349278298
826,622.6464743796163
827,622.5777878207625
828,622.5062710978257
829,622.4319068779982
830,622.3546792780302
831,622.2745741625782
832,622.191579458978
833,622.1056854849382
834,622.0168852851995
835,621.9251749725498
836,621.8305540681846
837,621.7330258362932
838,621.6325976078364
839,621.5292810888401
840,621.4230926495576
841,621.3140535925331
842,621.2021903994016
843,621.0875349574351
844,620.9701247669932
845,620.8500031302831
846,620.7272193208264
847,620.6018287326096
848,620.473893008388
849,620.3434801474376
850,620.2106645932878
851,620.075527301255
852,619.9381557842415
853,619.7986441337961
854,619.6570930121933
855,619.5136096103832
856,619.3683075661548
857,619.2213068369589
858,619.0727335226611
859,618.9227196349012
860,618.7714028115736
861,618.6189259772824
862,618.4654369533753
863,618.3110880237105
864,618.1560354637937
865,618.000439041056
866,617.8444614932338
867,617.6882679904263
868,617.5320255845422
869,617.3759026479852
870,617.2200683023631
871,617.0646918380997
872,616.9099421266413
873,616.7559870277686
874,616.6029927949285
875,616.4511234814603
876,616.3005403504582
877,616.1514012910926
878,616.0038602444512
879,615.8580666421653
880,615.7141648613609
881,615.5722936999819
882,615.4325858771479
883,615.295167563528
884,615.1601579464266
885,615.0276688333585
886,614.8978042967371
887,614.7706603616116
888,614.6463247385153
889,614.5248766038922
890,614.4063864304901
891,614.2909158696104
892,614.1785176868021
893,614.0692357526418
894,613.9631050902769
895,613.8601519812347
896,613.7603941306636
897,613.6638408927028
898,613.5704935561529
899,613.4803456901897
900,613.393383549326
901,613.3095865355432
902,613.2289277130695
903,613.1513743682616
904,613.0768886045456
905,613.0054279608862
906,612.9369460413486
907,612.8713931427897
908,612.808716868065
909,612.7488627138539
910,612.6917746247896
911,612.6373955080232
912,612.5856677041669
913,612.5365334119083
914,612.4899350648953
915,612.4458156609467
916,612.4041190451132
917,612.3647901492478
