frame_number,force
0,615.6054162337504
1,615.5930291009482
2,615.5770883158651
3,615.5574134027706
4,615.5339090900328
5,615.5065760397833
6,615.4755185696622
7,615.4409489890405
8,615.4031884400646
9,615.3626643725851
10,615.3199049833031
11,615.2755310306046
12,615.2302453337466
13,615.1848200300225
14,615.1400814359678
15,615.0968922727056
16,615.0561311569455
17,615.0186696386395
18,614.9853475599971
19,614.9569478920095
20,614.934172319233
21,614.9176187294975
22,614.907761573387
23,614.9049358890251
24,614.9093256321424
25,614.9209567561276
26,614.9396952338205
27,614.9652499351854
28,614.9971800056721
29,615.0349061381378
30,615.0777249377006
31,615.1248255361921
32,615.1753077702369
33,615.2282015143331
34,615.2824869854354
35,615.3371158645072
36,615.3910329029593
37,615.4431974452993
38,615.4926042038762
39,615.538302740279
40,615.5794153362032
41,615.6151531332073
42,615.6448305290404
43,615.6678778583955
44,615.6838524055371
45,615.6924478014986
46,615.6935017729376
47,615.6870019805957
48,615.6730894231308
49,615.6520587705251
50,615.6243550654212
51,615.590566375391
52,615.5514121345074
53,615.5077271435813
54,615.4604415438313
55,615.4105574356402
56,615.3591230285892
57,615.3072052543215
58,615.2558617722032
59,615.2061133496496
60,615.1589176592329
61,615.1151454984033
62,615.0755602881852
63,615.0408015213176
64,615.011372674775
65,614.9876339821207
66,614.9698003354512
67,614.9579443788086
68,614.9520045109548
69,614.9517970891023
70,614.9570317687435
71,614.9673287723
72,614.9822369997349
73,615.0012521991996
74,615.0238347218532
75,615.0494265202261
76,615.0774670117092
77,615.1074073991422
78,615.1387231874494
79,615.1709249239055
80,615.2035674287765
81,615.236257833284
82,615.2686626203657
83,615.3005136675345
84,615.3316130996675
85,615.3618366313176
86,615.3911350566086
87,615.4195336090261
88,615.4471289796774
89,615.4740838035799
90,615.5006184491541
91,615.5270000530664
92,615.5535289317605
93,615.5805227091347
94,615.608298697801
95,615.637155274493
96,615.6673531609397
97,615.6990975632415
98,615.7325220112815
99,615.7676745740109
100,615.8045070113485
101,615.8428673709866
102,615.8824964939133
103,615.9230287878178
104,615.9639974179081
105,616.0048437834168
106,616.0449309044322
107,616.0835602049511
108,616.1199911017071
109,616.1534627400155
110,616.1832171715079
111,616.2085232589511
112,616.2287005901732
113,616.2431426825882
114,616.2513388053059
115,616.2528938392481
116,616.2475456764726
117,616.2351796887637
118,616.215839773159
119,616.1897354090064
120,616.1572440868867
121,616.1189085335127
122,616.0754284605423
123,616.0276470278144
124,615.976532611617
125,615.9231566203439
126,615.8686679968437
127,615.8142648790857
128,615.7611638885379
129,615.7105677359285
130,615.6636321389972
131,615.6214332767357
132,615.5849370946278
133,615.5549717310363
134,615.5322041784408
135,615.5171220373314
136,615.5100208860124
137,615.5109974516014
138,615.5199485280161
139,615.5365754763208
140,615.5603941045357
141,615.590749688329
142,615.6268368087057
143,615.6677235068996
144,615.7123790070294
145,615.7597040283375
146,615.8085625835104
147,615.8578141339152
148,615.9063450056931
149,615.9530980556312
150,615.9970997211897
151,616.0374837700327
152,616.0735112320552
153,616.1045861111519
154,616.1302665224883
155,616.1502709342116
156,616.1644793221838
157,616.1729293185056
158,616.1758077119774
159,616.1734377519377
160,616.1662626297169
161,616.1548254763115
162,616.1397463751913
163,616.1216971938067
164,616.1013753138334
165,616.0794774517001
166,616.0566746905744
167,616.0335896813137
168,616.010776823183
169,615.9887061359412
170,615.9677514239021
171,615.9481831702243
172,615.9301664138428
173,615.9137636523154
174,615.8989425204459
175,615.8855876196784
176,615.8735155543244
177,615.862492091686
178,615.8522503415069
179,615.8425087927368
180,615.8329879541201
181,615.8234243978543
182,615.8135813433526
183,615.8032554814387
184,615.7922803029786
185,615.780526551168
186,615.7679005165874
187,615.7543408194311
188,615.7398141824239
189,615.7243105870435
190,615.7078381529234
191,615.6904180079965
192,615.6720792735506
193,615.6528541859288
194,615.6327734442674
195,615.6118620374249
196,615.5901358944869
197,615.5675996942156
198,615.5442461215167
199,615.5200567605757
200,615.4950046221629
201,615.4690580659388
202,615.4421857208479
203,615.4143620055837
204,615.3855729575506
205,615.355822178161
206,615.3251367450665
207,615.2935729625614
208,615.2612218482622
209,615.2282142456422
210,615.1947253274332
211,615.160978008976
212,615.1272445652497
213,615.0938457214826
214,615.0611467105097
215,615.029550164717
216,614.9994861244519
217,614.9713998028036
218,614.9457379351928
219,614.9229345044255
220,614.9033964575403
221,614.8874898687084
222,614.8755269143318
223,614.8677539893247
224,614.8643412861909
225,614.8653741843858
226,614.8708468618884
227,614.8806586267033
228,614.894613494641
229,614.9124233971037
230,614.9337150716839
231,614.9580403050161
232,614.9848889228222
233,615.0137038135597
234,615.0438972949714
235,615.0748682283918
236,615.1060193875987
237,615.1367746262565
238,615.1665953266695
239,615.194995482253
240,615.2215546395416
241,615.2459278985267
242,615.2678523239816
243,615.287149448225
244,615.3037239349878
245,615.3175587941843
246,615.3287077350693
247,615.3372853364701
248,615.3434557055666
249,615.3474201910791
250,615.3494045865551
251,615.3496462306169
252,615.3483815140368
253,615.3458344312529
254,615.342206860083
255,615.337671216815
256,615.3323660566324
257,615.3263950587757
258,615.3198295924345
259,615.3127146828521
260,615.3050777693909
261,615.2969393301415
262,615.2883243794911
263,615.2792740204592
264,615.2698564741216
265,615.2601771040223
266,615.2503868702205
267,615.2406885556964
268,615.2313401755533
269,615.2226551973409
270,615.214999442694
271,615.2087847231071
272,615.2044593901372
273,615.2024960962862
274,615.2033772175047
275,615.2075786081068
276,615.2155526040793
277,615.2277113620123
278,615.2444116257578
279,615.2659418295284
280,615.2925121272469
281,615.3242475487971
282,615.3611840687742
283,615.4032670255392
284,615.4503512205146
285,615.5022022673306
286,615.5584992358484
287,615.6188390812522
288,615.6827435461769
289,615.7496691014563
290,615.8190200987289
291,615.8901648105201
292,615.9624536465539
293,616.0352386612316
294,616.1078934361694
295,616.179832420236
296,616.2505288052147
297,616.3195300488205
298,616.3864702599183
299,616.4510788123763
300,616.5131847324762
301,616.5727166255007
302,616.629698155604
303,616.6842393010264
304,616.7365237547028
305,616.7867929861733
306,616.8353276406446
307,616.882427076757
308,616.928387944292
309,616.973482839275
310,617.0179402231661
311,617.0619268434699
312,617.1055337892981
313,617.148767106461
314,617.1915436525488
315,617.2336926069132
316,617.2749627293417
317,617.3150350722133
318,617.3535404391835
319,617.3900805046671
320,617.4242511909941
321,617.4556666843398
322,617.4839824354714
323,617.5089156792333
324,617.5302623369809
325,617.5479094961042
326,617.5618429271784
327,617.572149342037
328,617.5790133760972
329,617.582709626152
330,617.5835904605296
331,617.5820706288259
332,617.5786098187239
333,617.5736942542144
334,617.5678183231091
335,617.5614671296489
336,617.5551007709678
337,617.5491410190341
338,617.543960955138
339,617.539877926091
340,617.5371499461817
341,617.5359753872071
342,617.5364955353989
343,617.5387993800877
344,617.5429298552621
345,617.5488907098508
346,617.5566532530919
347,617.5661624038714
348,617.5773417432109
349,617.5900975723304
350,617.6043222311714
351,617.6198970499532
352,617.6366952448082
353,617.6545848644772
354,617.6734316702838
355,617.6931017164352
356,617.7134634258838
357,617.7343890412051
358,617.7557553566508
359,617.7774435925894
360,617.7993382547679
361,617.8213249160922
362,617.8432870381491
363,617.8651021044859
364,617.886637412289
365,617.9077459021139
366,617.9282624226975
367,617.9480007809399
368,617.966751783518
369,617.9842822905011
370,618.0003351453995
371,618.0146297436546
372,618.0268629666929
373,618.0367102903659
374,618.0438270962629
375,618.04785048046
376,618.0484020156936
377,618.0450919129825
378,618.0375248931034
379,618.025307881939
380,618.008059441152
381,617.9854207101921
382,617.9570675966102
383,617.9227239245238
384,617.8821751344341
385,617.8352819421322
386,617.7819932276476
387,617.7223574265427
388,617.6565318236513
389,617.5847892962233
390,617.507522099353
391,617.4252422166501
392,617.3385777293223
393,617.2482647331487
394,617.155134613219
395,617.0600969033089
396,616.9641183743967
397,616.8681993011426
398,616.7733479948852
399,616.6805546748394
400,616.590765651028
401,616.5048587293827
402,616.4236207596272
403,616.3477282130713
404,616.2777314570977
405,616.2140430193355
406,616.1569298121694
407,616.1065091641912
408,616.0627485113695
409,616.0254685820846
410,615.9943498424316
411,615.9689419496791
412,615.9486760315352
413,615.932879678853
414,615.9207945092473
415,615.9115960227084
416,615.904415294676
417,615.8983619151168
418,615.8925475190931
419,615.8861092008391
420,615.8782319650104
421,615.8681692026857
422,615.8552601820506
423,615.8389438113315
424,615.8187683504038
425,615.7943971291458
426,615.7656105786083
427,615.7323050224082
428,615.6944887646641
429,615.6522760343872
430,615.6058792707321
431,615.5556001099703
432,615.5018193661348
433,615.4449863121589
434,615.3856076095797
435,615.3242362554441
436,615.2614609236686
437,615.1978960782275
438,615.134173169945
439,615.0709330402509
440,615.0088193803203
441,614.9484728419103
442,614.8905252594853
443,614.8355934459692
444,614.7842721242508
445,614.7371256935539
446,614.694678683639
447,614.6574049392008
448,614.6257158197598
449,614.5999480009334
450,614.5803517960269
451,614.5670811748357
452,614.5601866772413
453,614.5596121431718
454,614.5651957235277
455,614.5766751758053
456,614.5936971073852
457,614.6158296456091
458,614.6425779128389
459,614.6734015333058
460,614.707733158392
461,614.7449967882771
462,614.7846246480431
463,614.8260715930209
464,614.8688263838776
465,614.9124195620045
466,614.9564280137962
467,615.0004766263265
468,615.0442376570176
469,615.087428520034
470,615.1298086783942
471,615.171176305072
472,615.2113653318874
473,615.250243361811
474,615.287710660479
475,615.3237001585746
476,615.3581781927634
477,615.3911456246037
478,615.4226389926653
479,615.4527314294688
480,615.4815331212543
481,615.5091910332372
482,615.5358875149975
483,615.561837374026
484,615.58728313409
485,615.6124884351264
486,615.6377297964159
487,615.6632872026811
488,615.6894341598764
489,615.7164279640352
490,615.7445008903849
491,615.7738528718949
492,615.8046460953785
493,615.8370018441564
494,615.870999804921
495,615.9066798784891
496,615.9440462941367
497,615.9830735554423
498,616.023713501192
499,616.0659026402325
500,616.109568953691
501,616.1546374992789
502,616.2010343332091
503,616.2486884453331
504,616.2975315603326
505,616.3474958089652
506,616.3985094640619
507,616.4504911743056
508,616.5033433394027
509,616.556945338646
510,616.6111472303561
511,616.6657643969061
512,616.7205735156016
513,616.7753101677102
514,616.8296683139661
515,616.8833017787721
516,616.9358278173107
517,616.9868327747457
518,617.0358797552983
519,617.0825181016116
520,617.126294394485
521,617.1667646757768
522,617.2035076519288
523,617.2361386681822
524,617.2643242061293
525,617.2877965714437
526,617.3063683398295
527,617.3199460292677
528,617.3285423519008
529,617.3322862425275
530,617.3314296776034
531,617.3263501792325
532,617.317547950459
533,617.3056368790275
534,617.2913291932175
535,617.2754142676478
536,617.2587327434567
537,617.2421475546132
538,617.2265136319864
539,617.2126480833308
540,617.2013025515924
541,617.1931392087708
542,617.1887114615153
543,617.188450009386
544,617.1926545128453
545,617.2014908540465
546,617.2149937682678
547,617.2330743899591
548,617.2555319652362
549,617.2820687202028
550,617.312306747788
551,617.3458058048909
552,617.382081057616
553,617.4206200444794
554,617.4608983998432
555,617.5023940942057
556,617.5446000193484
557,617.5870346968389
558,617.6292508422993
559,617.6708416038505
560,617.71144453752
561,617.7507436861429
562,617.78847035526
563,617.8244032487344
564,617.8583685155876
565,617.8902399818436
566,617.919939472736
567,617.9474368229754
568,617.972749074657
569,617.9959384927532
570,618.0171092584081
571,618.0364028955438
572,618.0539926167295
573,618.0700768639298
574,618.0848723672426
575,618.0986070384637
576,618.1115129719532
577,618.1238197678178
578,618.1357483216872
579,618.1475051323068
580,618.1592770952334
581,618.1712267425328
582,618.1834879718328
583,618.1961624210298
584,618.2093167067665
585,618.2229807334685
586,618.2371472496332
587,618.251772852321
588,618.2667807216
589,618.2820653924724
590,618.2974996860025
591,618.3129434958597
592,618.3282536639776
593,618.343293946909
594,618.3579441368207
595,618.3721076132468
596,618.3857168276367
597,618.3987364335162
598,618.4111639677154
599,618.4230281313423
600,618.4343848119104
601,618.4453110979614
602,618.4558977090859
603,618.466240433807
604,618.476431247958
605,618.4865497760072
606,618.4966556902941
607,618.506782500865
608,618.5169329730056
609,618.5270762273861
610,618.5371465461625
611,618.5470440044626
612,618.5566371223523
613,618.5657676590749
614,618.574257443975
615,618.5819168704408
616,618.5885545126367
617,618.5939873165659
618,618.5980509009952
619,618.6006095716326
620,618.6015656502905
621,618.6008676655911
622,618.5985168899981
623,618.594571685819
624,618.5891491762328
625,618.5824239109146
626,618.574623437138
627,618.5660209433075
628,618.5569253297315
629,618.5476691632812
630,618.5385950236489
631,618.5300407818021
632,618.5223243925755
633,618.5157288560371
634,618.5104880817076
635,618.5067744096901
636,618.5046884810331
637,618.5042520427246
638,618.5054041280431
639,618.5080008349207
640,618.5118186492684
641,618.5165610112306
642,618.5218676438183
643,618.5273260216088
644,618.5324842542509
645,618.5368646724478
646,618.5399775439824
647,618.5413344935811
648,618.5404612428185
649,618.5369092370713
650,618.5302656707241
651,618.5201614473626
652,618.5062767792225
653,618.4883444304984
654,618.466150939985
655,618.4395363819148
656,618.4083932722665
657,618.3726651469135
658,618.3323452099115
659,618.2874753109933
660,618.2381453667701
661,618.1844932015115
662,618.1267046565425
663,618.0650137047319
664,617.9997022287375
665,617.9310991122151
666,617.8595783754891
667,617.7855562390877
668,617.7094871285481
669,617.6318586444381
670,617.5531854198155
671,617.4740016921704
672,617.3948524419186
673,617.3162831061675
674,617.2388280967474
675,617.1629985740836
676,617.089270127367
677,617.0180711540972
678,616.9497727717784
679,616.8846810230968
680,616.8230319916563
681,616.7649902550305
682,616.7106508594816
683,616.6600447079493
684,616.6131469548344
685,616.5698877780742
686,616.5301648089326
687,616.4938565209941
688,616.460835943047
689,616.4309841223056
690,616.4042028025914
691,616.3804257699983
692,616.3596282610943
693,616.3418337893571
694,616.3271178099665
695,616.3156078543445
696,616.3074800780311
697,616.3029524832991
698,616.3022753547657
699,616.3057196848183
700,616.3135645288668
701,616.3260842483894
702,616.3435364790319
703,616.3661515031805
704,616.3941235898087
705,616.4276047610447
706,616.4667012814282
707,616.5114729270531
708,616.5619348269365
709,616.6180614178019
710,616.6797918204378
711,616.7470357524331
712,616.8196790007532
713,616.8975875362851
714,616.9806095578555
715,617.0685750814223
716,617.161293100827
717,617.2585467530422
718,617.3600872302404
719,617.4656273560513
720,617.5748357799124
721,617.6873326389871
722,617.8026873284401
723,617.9204187958973
724,618.0399986073921
725,618.1608569273237
726,618.2823914780677
727,618.4039794511519
728,618.5249921833621
729,618.6448121607121
730,618.7628516127088
731,618.8785717062988
732,618.9915012231611
733,619.1012536296475
734,619.2075415950897
735,619.3101882059285
736,619.4091342830353
737,619.5044413076745
738,619.596289533184
739,619.684971001677
740,619.7708774944856
741,619.8544839102166
742,619.9363280469868
743,620.016988108608
744,620.0970593855305
745,620.1771314956892
746,620.2577673568198
747,620.3394847480995
748,620.4227409555662
749,620.5079206501255
750,620.5953269065399
751,620.685175200007
752,620.7775902731069
753,620.8726058213618
754,620.9701669115681
755,621.0701349201839
756,621.1722945802478
757,621.2763625032431
758,621.3819964073181
759,621.4888043235899
760,621.5963532371638
761,621.7041768525398
762,621.8117823991944
763,621.9186565995241
764,622.0242710810659
765,622.1280875928207
766,622.2295633991481
767,622.3281572521098
768,622.4233364169838
769,622.5145852349425
770,622.6014154915066
771,622.6833784249003
772,622.7600777665903
773,622.8311829721347
774,622.8964418009998
775,622.955691498938
776,623.008867895652
777,623.056011759142
778,623.0972718263207
779,623.1329040819963
780,623.1632670431578
781,623.1888129957989
782,623.2100753504606
783,623.227652547187
784,623.2421891942108
785,623.2543552683131
786,623.2648242084281
787,623.2742506763534
788,623.2832487302171
789,623.2923711563543
790,623.302090662103
791,623.3127835175363
792,623.3247161188956
793,623.3380349269536
794,623.3527603148032
795,623.3687849199081
796,623.3858769897416
797,623.403688920331
798,623.4217708111564
799,623.4395884625251
800,623.4565448404742
801,623.4720037313734
802,623.4853142550062
803,623.4958351007458
804,623.5029575984674
805,623.5061268390358
806,623.5048600264921
807,623.498761248917
808,623.487532023677
809,623.4709772723451
810,623.4490067139157
811,623.4216319785013
812,623.3889600039022
813,623.3511834332937
814,623.3085687592829
815,623.2614428894557
816,623.2101786983961
817,623.155180039831
818,623.0968666603914
819,623.0356594679034
820,622.9719666008997
821,622.9061706856464
822,622.8386175870234
823,622.7696069267358
824,622.6993846600748
825,622.6281379903018
826,622.5559928040774
827,622.4830136728456
828,622.409206328508
829,622.3345223751364
830,622.2588658578791
831,622.1821012493383
832,622.1040624451258
833,622.0245623923856
834,621.9434029392537
835,621.8603844265456
836,621.7753145120349
837,621.6880157324923
838,621.5983313473164
839,621.5061290891441
840,621.4113026256973
841,621.3137708161748
842,621.2134751378536
843,621.1103758500623
844,621.0044474899013
845,620.8956741772095
846,620.7840450455595
847,620.6695500418269
848,620.5521764008195
849,620.4319062124182
850,620.3087155143703
851,620.1825752078757
852,620.0534538530092
853,619.9213221392891
854,619.786158598134
855,619.6479559424519
856,619.5067272966869
857,619.3625115510324
858,619.2153771531722
859,619.0654238189452
860,618.9127818783726
861,618.7576092835488
862,618.6000866793826
863,618.4404112813417
864,618.2787904821392
865,618.1154360783681
866,617.9505598321184
867,617.784370818212
868,617.6170746733169
869,617.4488745300747
870,617.2799732143898
871,617.1105762631548
872,616.9408954140739
873,616.7711523197047
874,616.60158227787
875,616.4324377481022
876,616.2639913913184
877,616.0965383772717
878,615.9303977420252
879,615.7659126169879
880,615.6034492071874
881,615.4433944967897
882,615.2861527825141
883,615.132141220187
884,614.9817845669627
885,614.835509207135
886,614.6937364248378
887,614.55687484133
888,614.4253120205833
889,614.2994053813094
890,614.1794726178396
891,614.0657818340917
892,613.9585416304182
893,613.8578914749658
894,613.763892781224
895,613.6765211699063
896,613.5956604225847
897,613.5210986395915
898,613.452527107346
899,613.3895423810476
900,613.3316520663558
901,613.2782846365784
902,613.2288032860051
903,613.1825233833229
904,613.1387327239914
905,613.0967135596732
906,613.0557652435767
907,613.0152262358872
908,612.9744942456226
909,612.9330435179982
910,612.8904386342106
911,612.8463445179053
912,612.8005325623816
913,612.7528829354443
914,612.7033832476803
915,612.652123919518
916,612.5992907318818
917,612.5451551408562
