acceleration,velocity,displacement
-0.006744777345783739,0.0,0.0
-0.006932948569194916,-3.4194314787446634e-06,-8.548578696861658e-10
-0.007118482048518044,-6.932289133172903e-06,-3.4427880226655574e-09
-0.007301153401107928,-1.0537197995579395e-05,-7.810159804853633e-09
-0.007480744167424213,-1.423267238771243e-05,-1.4002627400676589e-08
-0.007657042555926592,-1.8017119068550132e-05,-2.2065075264742232e-08
-0.007829844205571049,-2.1888840758924542e-05,-3.20415652216109e-08
-0.007998952964029334,-2.584604005132464e-05,-4.397528542417319e-08
-0.008164181675435088,-2.9886823711190746e-05,-5.790850136480204e-08
-0.00832535296762839,-3.4009207371956615e-05,-7.388250913558888e-08
-0.008482300025683424,-3.821112062028457e-05,-9.193759113364918e-08
-0.008634867337107902,-4.24904124609824e-05,-1.1211297440396593e-07
-0.008782911395462742,-4.684485714412507e-05,-1.344467918052428e-07
-0.008926301352551215,-5.1272160331128555e-05,-1.589760461740562e-07
-0.00906491961276188,-5.576996557245683e-05,-1.8573657764995257e-07
-0.00919866236476486,-6.0335861066838515e-05,-2.147630343097764e-07
-0.00932744004440469,-6.496738666913091e-05,-2.460888462437688e-07
-0.009451177718055322,-6.966204110974591e-05,-2.7974620318848796e-07
-0.009569815369747053,-7.44172893816965e-05,-3.1576603581134855e-07
-0.009683308071155979,-7.923057024192227e-05,-3.5417800071725327e-07
-0.009791626013256902,-8.409930376302548e-05,-3.9501046921849024e-07
-0.009894754381549704,-8.902089886172714e-05,-4.382905198746784e-07
-0.009992693061088001,-9.399276072238656e-05,-4.840439347707068e-07
-0.010085456161638594,-9.901229802806821e-05,-5.322951994583204e-07
-0.010173071357314701,-0.00010407692990780654,-5.830675064422891e-07
-0.010255579039640002,-0.00010918409250704523,-6.36382762046002e-07
-0.010333031288443718,-0.00011433124508906616,-6.922615964450299e-07
-0.010405490670743561,-0.00011951587557886298,-7.507233766120122e-07
-0.010473028883415827,-0.00012473550546740283,-8.117862218735786e-07
-0.01053572526069059,-0.00012998769400342943,-8.754670217412867e-07
-0.010593665171843205,-0.00013527004161156288,-9.417814556450348e-07
-0.010646938336499554,-0.00014058019248864857,-1.0107440141700877e-06
-0.010695637084005468,-0.00014591583634377482,-1.0823680213781936e-06
-0.010739854580422545,-0.00015127470925988183,-1.1566656577791078e-06
-0.01077968304435312,-0.00015665459366607574,-1.2336479835105972e-06
-0.010815211972883997,-0.000162053317420385,-1.3133249612822123e-06
-0.010846526401721858,-0.00016746875201403648,-1.3957054786408177e-06
-0.010873705226876149,-0.000172898809921186,-1.4807973691246233e-06
-0.010896819616234055,-0.00017834144113196355,-1.5686074318879106e-06
-0.01091593153707958,-0.00018379462892029197,-1.6591414494009744e-06
-0.010931092421469358,-0.0001892563849099292,-1.7524042028585297e-06
-0.01094234198740299,-0.0001947247435121473,-1.8483994849640488e-06
-0.010949707230698153,-0.0002001977558166726,-1.947130109796254e-06
-0.010953201600247861,-0.0002056734830244091,-2.0485979195065244e-06
-0.01095282436708296,-0.0002111499895162418,-2.152803787641687e-06
-0.010948560195484382,-0.00021662533565688366,-2.2597476189349684e-06
-0.010940378923303353,-0.00022209757043658058,-2.3694283454583345e-06
-0.010928235559491442,-0.00022756472405727928,-2.4818439190817995e-06
-0.010912070508032147,-0.00023302480057416018,-2.5969913002396596e-06
-0.010891810026514988,-0.00023847577070779696,-2.714866443060149e-06
-0.010867366924014922,-0.00024391556494542945,-2.835464276973456e-06
-0.010838641498400237,-0.00024934206705103324,-2.9587786849725714e-06
-0.010805522708599833,-0.00025475310810278327,-3.0848024787610256e-06
-0.01076788957179079,-0.0002601464611728809,-3.213527371079942e-06
-0.0107256127684611,-0.0002655198367579439,-3.344943945562648e-06
-0.010678556431294613,-0.00027087087905788284,-3.479041624516605e-06
-0.010626580089071908,-0.00027619716318797447,-3.615808635078069e-06
-0.010569540734604135,-0.00028149619339389346,-3.755231974223536e-06
-0.010507294984534546,-0.00028676540232367814,-3.897297373152929e-06
-0.010439701297078567,-0.00029200215139408144,-4.0419892615823685e-06
-0.010366622212295756,-0.00029720373227142504,-4.189290732498745e-06
-0.010287926579548466,-0.0003023673694693861,-4.339183507933948e-06
-0.010203491738830246,-0.00030749022404898076,-4.49164790631354e-06
-0.010113205625404739,-0.0003125693983900395,-4.6466628119232945e-06
-0.01001696876985604,-0.0003176019419888547,-4.8042056470180184e-06
-0.00991469616802172,-0.0003225848582233241,-4.964252347071063e-06
-0.009806318997974272,-0.0003275151120148231,-5.1267773396306e-06
-0.009691786165283761,-0.0003323896383056376,-5.291753527210715e-06
-0.009571065663989268,-0.0003372053512629559,-5.4591522746028635e-06
-0.0094441457481853,-0.0003419591541159995,-5.628943400947602e-06
-0.009311035915778688,-0.0003466479495319905,-5.8010951768596e-06
-0.009171767709689006,-0.0003512686504383574,-5.975574326852187e-06
-0.009026395341868812,-0.0003558181912012468,-6.1523460372620885e-06
-0.008874996143064544,-0.00036029353907248015,-6.33137396983052e-06
-0.008717670838754465,-0.0003646917058179349,-6.512620281053124e-06
-0.008554543651678346,-0.0003690097594405431,-6.696045647367744e-06
-0.008385762233704056,-0.0003732448359118887,-6.881609296205851e-06
-0.008211497431972761,-0.00037739415082830793,-7.0692690428909e-06
-0.008031942893916736,-0.0003814550109097803,-7.258981333325423e-06
-0.007847314513273876,-0.0003854248252615779,-7.4507012923682625e-06
-0.007657849717426666,-0.00038930111631925305,-7.64438277776347e-06
-0.007463806597110434,-0.0003930815303978873,-7.839978439442756e-06
-0.007265462882588739,-0.0003967638477678121,-8.03743978398418e-06
-0.007063114774395656,-0.0004003459921820582,-8.236717243971649e-06
-0.006857075640561844,-0.0004038260397857976,-8.437760251963612e-06
-0.0066476745950553385,-0.0004072022273447019,-8.640517318746238e-06
-0.006435254973404736,-0.0004104729597368169,-8.844936115516618e-06
-0.006220172721351152,-0.00041363681666050587,-9.050963559615948e-06
-0.0060027947121815695,-0.00041669255851888904,-9.258545903410797e-06
-0.005783497008700384,-0.00041963913144910954,-9.467628825902796e-06
-0.005562663086004245,-0.0004224756714727857,-9.67815752663327e-06
-0.005340682030135133,-0.00042520150775182057,-9.890076821439421e-06
-0.005117946725446681,-0.000427816164940716,-1.0103331239612556e-05
-0.004894852040882199,-0.00043031936463229823,-1.031786512200581e-05
-0.004671793022804211,-0.00043271102589821983,-1.053362271963844e-05
-0.0044491630993497506,-0.0004349912649287583,-1.0750548292345185e-05
-0.004227352298976971,-0.00043716039377834,-1.096858620702196e-05
-0.0040067454853144335,-0.00043921891822441285,-1.1187681035022647e-05
-0.00378772061196187,-0.0004411675347487319,-1.1407777648265932e-05
-0.0035706470031239036,-0.00044300712665250335,-1.1628821313616241e-05
-0.003355883667352567,-0.0004447387593201225,-1.1850757785109398e-05
-0.0031437776521180674,-0.00044636367464999014,-1.2073533393601927e-05
-0.0029346624471482006,-0.0004478832846748067,-1.2297095133433126e-05
-0.002728856445441951,-0.00044929916439795424,-1.2521390745701316e-05
-0.0025266614731589325,-0.00045061304387760445,-1.2746368797770205e-05
-0.0023283614027841985,-0.00045182679959659023,-1.2971978758638754e-05
-0.002134220866479552,-0.0004529424451639062,-1.3198171069828879e-05
-0.0019444840874288214,-0.0004539621214023833,-1.3424897211470452e-05
-0.0017593738468741117,-0.000454888085885959,-1.3652109763292536e-05
-0.001579090604114516,-0.00045572270199870617,-1.3879762460263702e-05
-0.0014038117859293162,-0.00045646842759621714,-1.4107810242662433e-05
-0.0012336912603720808,-0.0004571278033577925,-1.4336209300400936e-05
-0.0010688590081491078,-0.00045770344092492277,-1.4564917111471614e-05
-0.0009094210029631388,-0.00045819801092770085,-1.479389247443477e-05
-0.0007554593095431823,-0.0004586142310058274,-1.5023095534918152e-05
-0.0006070324047512229,-0.000458954853934401,-1.5252487806153209e-05
-0.00046417572390799593,-0.0004592226559665658,-1.548203218362845e-05
-0.00032690243195937355,-0.00045942042550553265,-1.5711692953996477e-05
-0.00019520441731582186,-0.0004595509522178515,-1.5941435798427322e-05
-6.90535051489412e-05,-0.00045961701669846764,-1.6171227790656402e-05
5.159711398717431e-05,-0.0004596213807962581,-1.6401037390030082e-05
0.00016681124715057773,-0.00045956677870597363,-1.663083442990564e-05
0.00027666786654945976,-0.0004594559089275486,-1.686059010181402e-05
0.0003812591026378986,-0.00045929142718525176,-1.709027693584222e-05
0.0004806880907571957,-0.000459075940386903,-1.731986877773526e-05
0.0005750667025592111,-0.0004588120016885739,-1.754934076325413e-05
0.0006645131928288149,-0.00045850210671472685,-1.7778669290354954e-05
0.0007491497905280653,-0.00045814869096888765,-1.8007831989775856e-05
0.0008291002631056364,-0.0004577541284554792,-1.8236807694631947e-05
0.0009044874861843434,-0.0004573207315181567,-1.8465576409625356e-05
0.0009754310546400832,-0.0004568507518829506,-1.8694119280475634e-05
0.0010420449736894533,-0.0004563463828758682,-1.892241856416534e-05
0.0011044354688785516,-0.0004558097627652262,-1.915045760057561e-05
0.0011626989519731685,-0.0004552429791600133,-1.937822078605692e-05
0.001216920176023941,-0.000454648074378014,-1.9605693549441428e-05
0.0012671706074965147,-0.00045402705168213386,-1.9832862330956464e-05
0.0013135070366603872,-0.0004533818822710946,-2.005971456444477e-05
0.0013559704405128412,-0.0004527145129018013,-2.0286238663237995e-05
0.0013945851068429124,-0.00045202687401496236,-2.0512424009967185e-05
0.0014293580240891674,-0.0004513208882322293,-2.0738260950528984e-05
0.0014602785386807775,-0.0004505984790915368,-2.0963740792359925e-05
0.0014873182785816418,-0.0004498615798872212,-2.1188855807104614e-05
0.0015104313381339022,-0.00044911214248304234,-2.141359923769718e-05
0.0015295547145021645,-0.0004483521459698833,-2.163796530981041e-05
0.0015446089802287892,-0.0004475836050462006,-2.1861949247564433e-05
0.0015554991711393563,-0.00044680857800835855,-2.208554729332807e-05
0.0015621158651487872,-0.0004460291742492865,-2.230875673139248e-05
0.0015643364254579247,-0.00044524756117663485,-2.253157591524896e-05
0.00156202638063441,-0.0004444659704751118,-2.2754004298161896e-05
0.0015550409140264421,-0.00044368670365144657,-2.2976042466693537e-05
0.0015432264360372343,-0.00044291213681393063,-2.3197692176809882e-05
0.0015264222146114679,-0.00044214472465126846,-2.3418956392176184e-05
0.00150446204117372,-0.0004413870035873222,-2.363983932423583e-05
0.001477175910642289,-0.0004406415940993682,-2.3860346473657502e-05
0.0014443916948462514,-0.00043991120219799605,-2.4080484672731843e-05
0.0014059367893309064,-0.00043919862007695177,-2.430026212830058e-05
0.0013616397158274312,-0.0004385067259506622,-2.4519688464807482e-05
0.0013113316670429163,-0.0004378384831049446,-2.4738774767071384e-05
0.0012548479851187423,-0.00043719693819190415,-2.4957533622395595e-05
0.0011920295672329685,-0.00043658521880381623,-2.5175979161644525e-05
0.001122724191713742,-0.00043600653036407954,-2.53941270989365e-05
0.0010467877584961255,-0.0004354641523765271,-2.5611994769621652e-05
0.0009640854411101591,-0.0004349614340766255,-2.582960116623494e-05
0.0008744927526936353,-0.00043450178952817456,-2.604696697213614e-05
0.0007778965334792491,-0.0004340886922066313,-2.626411459256984e-05
0.0006741958697879868,-0.0004337256691058145,-2.6481068182897953e-05
0.0005633029545189788,-0.00043341629439973777,-2.6697853673774342e-05
0.0004451438977262778,-0.00043316418268667643,-2.6914498793045946e-05
0.00031965949464711615,-0.0004329729818385831,-2.7131033084177262e-05
0.00018680595787076015,-0.00043284636547545363,-2.734748792100577e-05
4.655561945340786e-05,-0.0004327880250811226,-2.7563896518644916e-05
-0.00010110239291033916,-0.00043280166177448685,-2.7780293940358817e-05
-0.00025616150366754233,-0.0004328909777486313,-2.7996717100239596e-05
-0.00041859706164736786,-0.00043305966738996004,-2.8213204761524243e-05
-0.0005883657410245426,-0.00043331140809062805,-2.842979753039439e-05
-0.0007654049802445587,-0.0004336498507709453,-2.8646537845109785e-05
-0.0009496324723359471,-0.00043407861013409045,-2.8863469960336043e-05
-0.0011409457217787472,-0.00043460125468261913,-2.908063992654022e-05
-0.0013392216831671086,-0.0004352212965338556,-2.929809556434434e-05
-0.0015443164974924763,-0.00043594218107902047,-2.951588643374756e-05
-0.001756065342965723,-0.00043676727653913503,-2.9734063798152098e-05
-0.0019742824163531654,-0.00043769986347896476,-2.9952680583156625e-05
-0.002198761055787279,-0.0004387431243469999,-3.0171791330113117e-05
-0.0024292740078805837,-0.00043990013311291686,-3.0391452144478095e-05
-0.0026655738337283976,-0.0004411738450733191,-3.061172063902465e-05
-0.0029073934431547233,-0.00044256708689253987,-3.083265587201612e-05
-0.003154446744804482,-0.0004440825469395297,-3.105431828047414e-05
-0.0034064294004440467,-0.0004457227659758418,-3.127676960870298e-05
-0.0036630196734889053,-0.00044749012824432503,-3.1500072832258026e-05
-0.003923879362954312,-0.0004493868530034358,-3.1724292077569965e-05
-0.004188654814432221,-0.00045141498654778246,-3.194949253745777e-05
-0.004456978000300786,-0.0004535763947514657,-3.217574038278258e-05
-0.004728467663044087,-0.0004558727561673019,-3.240310267051227e-05
-0.0050027305165593235,-0.00045830555571220276,-3.2631647248482146e-05
-0.005279362499026719,-0.00046087607896609927,-3.286144265715172e-05
-0.005557950068195761,-0.00046358540710790487,-3.309255802867022e-05
-0.005838071528268205,-0.00046643441250702084,-3.3325062983573953e-05
-0.006119298377310188,-0.0004694237549834154,-3.3559027525446564e-05
-0.006401196664440899,-0.0004725538787438532,-3.379452193387838e-05
-0.006683328347090041,-0.00047582500999673595,-3.4031616656063526e-05
-0.006965252640981305,-0.0004792371552437538,-3.4270382197373646e-05
-0.007246527358575554,-0.000482790100243643,-3.451088901124549e-05
-0.007526710233646864,-0.0004864834096416986,-3.475320738871683e-05
-0.007805360229450838,-0.0004903164272574731,-3.499740734794162e-05
-0.008082038826258785,-0.0004942882770214005,-3.524355852401134e-05
-0.008356311282472228,-0.0004983978645485833,-3.5491730059403837e-05
-0.008627747862869463,-0.0005026438793349187,-3.5741990495374714e-05
-0.008895925027157425,-0.0005070247975574254,-3.59944076645978e-05
-0.009160426571683422,-0.0005115388854571356,-3.624904858535144e-05
-0.009420844717338754,-0.0005161842032793912,-3.650597935753557e-05
-0.009676781138620168,-0.000520958609743381,-3.6765265060791266e-05
-0.00992784793250373,-0.000525859767011162,-3.70269696549799e-05
-0.010173668529287767,-0.0005308851461266099,-3.7291155883264344e-05
-0.010413878548314869,-0.0005360320328960105,-3.755788517802e-05
-0.010648126598821021,-0.0005412975341827945,-3.78272175697897e-05
-0.010876075021453643,-0.0005466785845878631,-3.8099211599482364e-05
-0.011097400560915613,-0.0005521719534834554,-3.837392423400019e-05
-0.011311794955864481,-0.0005577742523626504,-3.865141078546172e-05
-0.011518965430450489,-0.0005634819424592292,-3.8931724834167185e-05
-0.011718635073374508,-0.0005692913425851854,-3.921491815542829e-05
-0.011910543093845559,-0.0005751986371269903,-3.950104065035633e-05
-0.01209444494724535,-0.0005811998841372631,-3.97901402806724e-05
-0.012270112325710271,-0.000587291023455502,-4.008226300757059e-05
-0.012437333010637588,-0.0005934678847895889,-4.0377452734631864e-05
-0.012595910585493312,-0.0005997261956886216,-4.0675751254751414e-05
-0.012745664008240946,-0.0006060615893370553,-4.0977198201007836e-05
-0.012886427043113996,-0.000612469612099894,-4.128183100136707e-05
-0.013018047551524034,-0.0006189457307485536,-4.158968483707918e-05
-0.01314038664276345,-0.0006254853392971254,-4.19007926045906e-05
-0.013253317688376181,-0.0006320837653799104,-4.221518488075986e-05
-0.01335672520984262,-0.000638736276104465,-4.253288989113095e-05
-0.013450503655669495,-0.0006454380833208431,-4.2853933480987276e-05
-0.01353455608875249,-0.0006521843482569485,-4.317833908888172e-05
-0.013608792807208003,-0.0006589701854809387,-4.3506127722316196e-05
-0.013673129922205512,-0.000665790666163292,-4.383731793522725e-05
-0.013727487915419294,-0.0006726408206226982,-4.4171925806923747e-05
-0.013771790197631825,-0.000679515640150961,-4.450996492211716e-05
-0.013805961689655373,-0.0006864100781227828,-4.4851446351685594e-05
-0.013829927447524185,-0.0006933190504070777,-4.519637863381806e-05
-0.013843611355573823,-0.0007002374351078521,-4.554476775519679e-05
-0.01384693491238226,-0.0007071600716748412,-4.589661713189246e-05
-0.01383981613437903,-0.0007140817594365314,-4.6251927589670305e-05
-0.013822168599024078,-0.0007209972556198822,-4.661069734343441e-05
-0.013793900643958634,-0.0007279012729306278,-4.6972921975572036e-05
-0.01375491473203684,-0.0007347884767746267,-4.733859441299835e-05
-0.013705106986464533,-0.0007416534822042521,-4.770770490274307e-05
-0.013644366896249833,-0.0007484908506749307,-4.808024098596287e-05
-0.013572577189522731,-0.0007552950866963738,-4.8456187470305696e-05
-0.013489613870968089,-0.0007620606344614965,-4.883552640059516e-05
-0.01339534641960011,-0.0007687818745341385,-4.921823702784407e-05
-0.013289638143454095,-0.0007754531206749021,-4.9604295776646334e-05
-0.013172346686601404,-0.0007820686168824159,-4.999367621103567e-05
-0.013043324680920313,-0.0007886225347242964,-5.038634899893734e-05
-0.012902420531701772,-0.0007951089710274519,-5.078228187537528e-05
-0.012749479323994313,-0.000801521945991376,-5.1181439604629984e-05
-0.012584343835632622,-0.0008078554017812827,-5.1583783941573146e-05
-0.012406855642568356,-0.000814103201650833,-5.1989273592431174e-05
-0.012216856302563625,-0.000820259129637116,-5.239786417525316e-05
-0.012014188605451516,-0.0008263168908641198,-5.280950818037847e-05
-0.011798697882240609,-0.0008322701124860428,-5.322415493121601e-05
-0.011570233370240391,-0.0008381123452991631,-5.364175054566231e-05
-0.011328649634788888,-0.0008438370660504204,-5.4062237898499706e-05
-0.011073808048232547,-0.0008494376804711758,-5.448555658513011e-05
-0.010805578323444,-0.000854907527064095,-5.4911642887013925e-05
-0.010523840095117969,-0.0008602398816687355,-5.534042973919713e-05
-0.010228484540095456,-0.0008654279628275388,-5.57718467003212e-05
-0.00991941602871614,-0.0008704649379697417,-5.620581992552052e-05
-0.009596553800160312,-0.0008753439304269608,-5.6642272142619696e-05
-0.009259833653604598,-0.0008800580272904021,-5.708112263204904e-05
-0.00890920964390469,-0.0008846002881147795,-5.7522287210900336e-05
-0.008544655767267947,-0.0008889637544675726,-5.7965678221545926e-05
-0.008166167620046377,-0.0008931414603144011,-5.841120452524142e-05
-0.0077737640124550195,-0.0008971264432225265,-5.885877150112565e-05
-0.007367488517966867,-0.000900911756355132,-5.9308281051020065e-05
-0.006947410937733863,-0.0009044904812190571,-5.975963161041361e-05
-0.0065136286571961174,-0.0009078557411177896,-6.021271816599782e-05
-0.0060662678696565735,-0.0009110007152495028,-6.066743228008964e-05
-0.005605484640408739,-0.000913918653377019,-6.112366212224628e-05
-0.00513146578627079,-0.0009166028909836889,-6.158129250833646e-05
-0.004644429549437399,-0.0009190468648176159,-6.204020494728678e-05
-0.004144626050626837,-0.000921244128717632,-6.250027769567059e-05
-0.00363233751364634,-0.0009231883696087003,-6.296138582025218e-05
-0.0031078782610552288,-0.0009248734235523757,-6.342340126854245e-05
-0.002571594487307057,-0.0009262932917394663,-6.38861929473654e-05
-0.002023863819051375,-0.0009274421563160559,-6.434962680937929e-05
-0.001465094670711126,-0.0009283143959384966,-6.481356594744293e-05
-0.0008957253985190863,-0.0009289046009558041,-6.52778706966665e-05
-0.00031622325164618373,-0.0009292075881183455,-6.574239874393504e-05
0.00027291688203013415,-0.0009292184147107496,-6.620700524464231e-05
0.0008711739346845149,-0.0009289323920065709,-6.667154294632164e-05
0.001478002313995746,-0.0009283450979444009,-6.713586231880938e-05
