frame_number,force
0,615.4721888986699
1,615.460375051836
2,615.4487268089914
3,615.437258257424
4,615.4259831125543
5,615.4149146711691
6,615.4040657635505
7,615.3934487046178
8,615.3830752444699
9,615.3729565189612
10,615.3631030011378
11,615.3535244544516
12,615.3442298885851
13,615.3352275185051
14,615.3265247271496
15,615.3181280320459
16,615.3100430562495
17,615.3022745042754
18,615.2948261440716
19,615.2877007963474
20,615.280900332585
21,615.2744256828738
22,615.2682768544298
23,615.2624529614071
24,615.2569522663576
25,615.2517722334035
26,615.2469095928469
27,615.2423604165793
28,615.2381202032979
29,615.234183972208
30,615.2305463636209
31,615.2272017447215
32,615.2241443188504
33,615.2213682368172
34,615.2188677089148
35,615.216637116299
36,615.214671120222
37,615.2129647674005
38,615.2115135897419
39,615.2103136967896
40,615.2093618595139
41,615.2086555843223
42,615.2081931763518
43,615.207973791248
44,615.2079974747779
45,615.2082651897558
46,615.2087788298358
47,615.2095412196658
48,615.2105561008292
49,615.2118281030544
50,615.2133627003998
51,615.2151661524081
52,615.2172454305077
53,615.2196081302943
54,615.2222623707611
55,615.2252166819884
56,615.2284798831007
57,615.2320609524365
58,615.2359688919513
59,615.2402125879821
60,615.2448006705977
61,615.2497413737536
62,615.2550423983429
63,615.2607107800612
64,615.2667527638397
65,615.2731736864456
66,615.2799778686862
67,615.287168518393
68,615.2947476449773
69,615.3027159858747
70,615.3110729447827
71,615.3198165413594
72,615.3289433720455
73,615.3384485818285
74,615.3483258469179
75,615.3585673683078
76,615.3691638760548
77,615.3801046439597
78,615.3913775143656
79,615.4029689329383
80,615.4148639934094
81,615.4270464922151
82,615.4394989927736
83,615.4522028988943
84,615.4651385365697
85,615.4782852432241
86,615.4916214634177
87,615.5051248500108
88,615.5187723698067
89,615.5325404126681
90,615.5464049030965
91,615.5603414133238
92,615.5743252771152
93,615.5883317036387
94,615.6023358909234
95,615.616313138595
96,615.6302389597197
97,615.644089191624
98,615.6578401054633
99,615.6714685141675
100,615.6849518783079
101,615.6982684094015
102,615.711397170154
103,615.7243181710802
104,615.7370124628014
105,615.7494622231139
106,615.761650837768
107,615.7735629738388
108,615.7851846445789
109,615.7965032646665
110,615.8075076948176
111,615.8181882748218
112,615.8285368441743
113,615.838546749589
114,615.8482128388426
115,615.8575314406163
116,615.866500330195
117,615.8751186810518
118,615.8833870024525
119,615.8913070632817
120,615.8988818023512
121,615.9061152256238
122,615.9130122911672
123,615.9195787831554
124,615.9258211766755
125,615.9317464953012
126,615.937362163355
127,615.9426758546676
128,615.9476953396601
129,615.9524283327619
130,615.9568823424298
131,615.9610645261878
132,615.9649815531333
133,615.9686394762307
134,615.9720436164823
135,615.9751984607267
136,615.9781075743954
137,615.9807735301243
138,615.9831978527603
139,615.9853809810547
140,615.9873222461508
141,615.9890198667833
142,615.990470960884
143,615.9916715729817
144,615.9926167164284
145,615.993300429143
146,615.9937158413411
147,615.9938552535862
148,615.9937102234348
149,615.9932716589456
150,615.99252991739
151,615.9914749076186
152,615.9900961946526
153,615.988383105159
154,615.9863248325117
155,615.9839105401825
156,615.9811294623476
157,615.977971000874
158,615.9744248181408
159,615.9704809252856
160,615.9661297654616
161,615.9613622917158
162,615.9561700393144
163,615.9505451926698
164,615.9444806473366
165,615.9379700677088
166,615.9310079410425
167,615.923589628347
168,615.9157114126033
169,615.9073705447306
170,615.8985652876681
171,615.8892949588266
172,615.8795599710354
173,615.869361871956
174,615.8587033816899
175,615.8475884280044
176,615.836022178332
177,615.8240110675907
178,615.8115628208703
179,615.7986864699889
180,615.7853923628584
181,615.7716921646576
182,615.7575988501208
183,615.7431266867683
184,615.7282912094154
185,615.7131091866313
186,615.6975985799256
187,615.6817784963914
188,615.6656691354331
189,615.6492917301297
190,615.6326684837643
191,615.6158225020054
192,615.5987777211261
193,615.5815588325834
194,615.56419120436
195,615.5467007996434
196,615.5291140935212
197,615.5114579883868
198,615.4937597287316
199,615.4760468159326
200,615.4583469234981
201,615.4406878130368
202,615.4230972510978
203,615.4056029270407
204,615.3882323722006
205,615.3710128807124
206,615.3539714323986
207,615.337134618149
208,615.3205285682411
209,615.3041788840392
210,615.2881105733879
211,615.272347989783
212,615.2569147751865
213,615.2418338063022
214,615.2271271442972
215,615.2128159882469
216,615.1989206329056
217,615.1854604316705
218,615.1724537657218
219,615.1599180202242
220,615.1478695682572
221,615.1363237629263
222,615.1252949379532
223,615.1147964169369
224,615.1048405313848
225,615.095438647556
226,615.086601202136
227,615.0783377467546
228,615.0706570013078
229,615.0635669158378
230,615.0570747403666
231,615.0511871016738
232,615.0459100857062
233,615.0412493241649
234,615.0372100837941
235,615.0337973569473
236,615.0310159520815
237,615.0288705828507
238,615.0273659544193
239,615.0265068455133
240,615.026298184642
241,615.0267451189333
242,615.0278530742042
243,615.0296278052401
244,615.0320754356595
245,615.0352024870997
246,615.0390158977089
247,615.0435230300994
248,615.0487316689982
249,615.0546500088299
250,615.0612866314477
251,615.0686504743022
252,615.0767507895215
253,615.0855970945893
254,615.0951991154425
255,615.1055667228704
256,615.1167098631198
257,615.1286384835793
258,615.141362454285
259,615.1548914857314
260,615.1692350431666
261,615.184402257332
262,615.2004018316084
263,615.217241945738
264,615.2349301565476
265,615.2534732962195
266,615.2728773686155
267,615.2931474440954
268,615.3142875533428
269,615.3363005809051
270,615.3591881593635
271,615.3829505651892
272,615.4075866174308
273,615.4330935804398
274,615.4594670719302
275,615.4867009778075
276,615.5147873753493
277,615.5437164663977
278,615.5734765221385
279,615.6040538407968
280,615.6354327191858
281,615.6675954386092
282,615.7005222651327
283,615.7341914638272
284,615.7685793263732
285,615.8036602115208
286,615.8394065982003
287,615.8757891513735
288,615.9127768007769
289,615.9503368325068
290,615.9884349929519
291,616.0270356040586
292,616.0661016884925
293,616.1055951030406
294,616.1454766785172
295,616.1857063643861
296,616.2262433762763
297,616.2670463445723
298,616.3080734623413
299,616.3492826309883
300,616.390631602197
301,616.4320781149262
302,616.4735800264777
303,616.515095436867
304,616.5565828058967
305,616.5980010625157
306,616.6393097062307
307,616.6804689005097
308,616.7214395582606
309,616.7621834196558
310,616.8026631227649
311,616.8428422675736
312,616.8826854739428
313,616.922158433946
314,616.9612279588803
315,616.9998620210838
316,617.0380297904833
317,617.075701665525
318,617.1128492978572
319,617.1494456098712
320,617.1854648040123
321,617.2208823626534
322,617.2556750373776
323,617.2898208267596
324,617.3232989421076
325,617.3560897609959
326,617.3881747687332
327,617.4195364881912
328,617.4501583987425
329,617.48002484542
330,617.5091209398124
331,617.537432454534
332,617.5649457132548
333,617.5916474782642
334,617.6175248374725
335,617.642565092686
336,617.6667556509112
337,617.6900839203321
338,617.71253721247
339,617.7341026518527
340,617.7547670942636
341,617.7745170543483
342,617.7933386430647
343,617.8112175152107
344,617.8281388270663
345,617.844087204064
346,617.859046718384
347,617.8730008764395
348,617.8859326163619
349,617.8978243157675
350,617.9086578102117
351,617.918414422737
352,617.9270750047681
353,617.9346199883213
354,617.9410294491987
355,617.946283180635
356,617.9503607767956
357,617.9532417255058
358,617.9549055095246
359,617.9553317155551
360,617.9545001500876
361,617.9523909611825
362,617.948984765394
363,617.944262779115
364,617.9382069536349
365,617.9308001131924
366,617.9220260952819
367,617.9118698924071
368,617.9003177943297
369,617.8873575296907
370,617.8729784057446
371,617.8571714448691
372,617.8399295165059
373,617.8212474632882
374,617.8011222203513
375,617.7795529271108
376,617.7565410309925
377,617.7320903826674
378,617.706207322301
379,617.6789007562433
380,617.6501822235011
381,617.6200659513203
382,617.5885688992787
383,617.5557107913825
384,617.5215141356704
385,617.4860042307893
386,617.4492091590039
387,617.4111597652271
388,617.3718896218851
389,617.33143497968
390,617.2898347044609
391,617.2471302004536
392,617.2033653201335
393,617.1585862611736
394,617.1128414512222
395,617.0661814216883
396,617.0186586721297
397,616.9703275271361
398,616.9212439877361
399,616.8714655793426
400,616.8210511981424
401,616.77006095775
402,616.7185560379056
403,616.6665985369021
404,616.614251329161
405,616.5615779289551
406,616.5086423608968
407,616.4555090375954
408,616.4022426447832
409,616.3489080340794
410,616.295570123387
411,616.2422938047865
412,616.1891438597399
413,616.1361848813788
414,616.0834812035187
415,616.0310968358378
416,615.9790954044201
417,615.9275400966758
418,615.8764936095446
419,615.8260180997997
420,615.7761751351225
421,615.7270256444608
422,615.6786298661966
423,615.6310472928932
424,615.5843366118079
425,615.5385556407316
426,615.4937612589986
427,615.4500093336999
428,615.4073546412884
429,615.3658507848701
430,615.3255501074973
431,615.2865036017618
432,615.2487608160188
433,615.2123697576804
434,615.1773767941459
435,615.1438265520397
436,615.1117618155245
437,615.081223424523
438,615.0522501737042
439,615.0248787129717
440,614.9991434500055
441,614.9750764552199
442,614.9527073694071
443,614.9320633143537
444,614.9131688068086
445,614.896045676294
446,614.8807129873655
447,614.8671869670659
448,614.8554809384868
449,614.8456052615702
450,614.8375672825105
451,614.831371293283
452,614.827018502764
453,614.8245070205825
454,614.823831854359
455,614.8249849204882
456,614.8279550682355
457,614.8327281166681
458,614.8392869037657
459,614.8476113468411
460,614.8576785131121
461,614.8694626990093
462,614.8829355167223
463,614.8980659866203
464,614.9148206344596
465,614.9331635925909
466,614.9530567046648
467,614.9744596335895
468,614.99732997267
469,615.021623359925
470,615.047293595565
471,615.0742927625997
472,615.1025713505211
473,615.1320783818977
474,615.1627615415196
475,615.1945673075078
476,615.2274410836602
477,615.2613273322632
478,615.2961697066573
479,615.3319111829521
480,615.3684941903692
481,615.4058607396886
482,615.4439525492159
483,615.482711167705
484,615.5220780938224
485,615.5619948919868
486,615.6024033046793
487,615.6432453615573
488,615.6844634858938
489,615.7260005989635
490,615.7678002229784
491,615.8098065830598
492,615.8519647086109
493,615.8942205343636
494,615.9365210012652
495,615.9788141572046
496,616.0210492573498
497,616.0631768636061
498,616.105148942471
499,616.1469189604248
500,616.188441976004
501,616.2296747278019
502,616.2705757177746
503,616.3111052893638
504,616.3512257000615
505,616.3909011881483
506,616.4300980334875
507,616.4687846124436
508,616.5069314471666
509,616.5445112495255
510,616.5814989598861
511,616.6178717807912
512,616.6536092055203
513,616.6886930414479
514,616.7231074280592
515,616.7568388494166
516,616.7898761408385
517,616.8222104895177
518,616.8538354287676
519,616.8847468255168
520,616.9149428606437
521,616.9444240017916
522,616.9731929684118
523,617.0012546888756
524,617.0286162495344
525,617.0552868356042
526,617.081277663739
527,617.1066019061435
528,617.1312746060551
529,617.1553125843601
530,617.1787343370239
531,617.201559922974
532,617.2238108421898
533,617.2455099040662
534,617.2666810866507
535,617.2873493880254
536,617.3075406717302
537,617.3272815085139
538,617.3465990168723
539,617.3655207048497
540,617.3840743154803
541,617.4022876780008
542,617.4201885665872
543,617.4378045679379
544,617.4551629586213
545,617.4722905927972
546,617.4892138006654
547,617.5059582977038
548,617.5225491044162
549,617.5390104759867
550,617.5553658410391
551,617.5716377486318
552,617.5878478226641
553,617.604016722988
554,617.6201641126816
555,617.6363086310557
556,617.6524678719624
557,617.6686583668643
558,617.6848955720372
559,617.7011938593045
560,617.7175665098849
561,617.7340257111769
562,617.7505825564823
563,617.7672470477271
564,617.7840281011313
565,617.8009335555435
566,617.8179701828385
567,617.8351436995248
568,617.8524587786443
569,617.8699190611921
570,617.887527166521
571,617.9052847014036
572,617.9231922675829
573,617.9412494677575
574,617.9594549100395
575,617.9778062109511
576,617.9962999970394
577,618.0149319051732
578,618.0336965815703
579,618.0525876795573
580,618.0715978560291
581,618.0907187666061
582,618.1099410595925
583,618.1292543689733
584,618.148647306768
585,618.1681074550798
586,618.1876213581738
587,618.2071745149636
588,618.2267513723765
589,618.2463353201094
590,618.2659086871398
591,618.2854527399935
592,618.3049476823778
593,618.3243726555917
594,618.3437057391926
595,618.3629239515972
596,618.3820032504971
597,618.4009185331686
598,618.419643636926
599,618.4381513401007
600,618.4564133640094
601,618.4744003764721
602,618.492081997589
603,618.5094268086335
604,618.5264023649746
605,618.5429752139307
606,618.5591109183819
607,618.5747740868268
608,618.5899284103651
609,618.6045367069057
610,618.6185609728507
611,618.6319624425703
612,618.644701656026
613,618.6567385348059
614,618.6680324666131
615,618.6785423979787
616,618.6882269347946
617,618.6970444502244
618,618.7049531995967
619,618.7119114419062
620,618.7178775675195
621,618.7228102315966
622,618.7266684926466
623,618.7294119555852
624,618.7310009186618
625,618.7313965237269
626,618.7305609094738
627,618.728457367478
628,618.7250505009683
629,618.7203063863103
630,618.7141927371732
631,618.7066790713291
632,618.6977368800094
633,618.6873397997574
634,618.6754637867218
635,618.6620872932994
636,618.6471914469225
637,618.6307602306347
638,618.6127806649151
639,618.5932429899744
640,618.5721408474457
641,618.5494714601393
642,618.5252358083358
643,618.4994388009358
644,618.4720894396794
645,618.4432009746465
646,618.4127910493718
647,618.3808818340495
648,618.3475001453597
649,618.3126775514355
650,618.2764504604837
651,618.238860191648
652,618.1999530269151
653,618.1597802432044
654,618.1183981241581
655,618.0758679514396
656,618.0322559754925
657,617.9876333657496
658,617.9420761402811
659,617.895665074869
660,617.8484855914932
661,617.8006276262141
662,617.7521854764618
663,617.7032576277591
664,617.653946559979
665,617.6043585333474
666,617.5546033545993
667,617.5047941239529
668,617.4550469637934
669,617.4054807300772
670,617.3562167074774
671,617.3073782892997
672,617.2590906433036
673,617.2114803647803
674,617.164675118495
675,617.118803271357
676,617.0739935179006
677,617.0303745008205
678,616.9880744288674
679,616.9472206943599
680,616.9079394924452
681,616.8703554440743
682,616.8345912244243
683,616.8007671982248
684,616.7690010631549
685,616.7394075022427
686,616.7120978460799
687,616.6871797456375
688,616.6647568564714
689,616.6449285351055
690,616.6277895483544
691,616.6134297962723
692,616.6019340492952
693,616.5933817000396
694,616.5878465302011
695,616.5853964931072
696,616.5860935126731
697,616.5899932997069
698,616.5971451866692
699,616.6075919821142
700,616.6213698460868
701,616.6385081876766
702,616.6590295857195
703,616.6829497334029
704,616.7102774073194
705,616.7410144613232
706,616.7751558452921
707,616.8126896485825
708,616.853597167625
709,616.8978529967851
710,616.9454251412997
711,616.9962751508345
712,617.0503582720294
713,617.1076236183533
714,617.1680143556928
715,617.2314679022966
716,617.2979161419945
717,617.3672856498935
718,617.4394979299684
719,617.5144696640642
720,617.5921129718156
721,617.6723356808602
722,617.7550416065118
723,617.840130839845
724,617.9275000429886
725,618.0170427503355
726,618.1086496743255
727,618.2022090144042
728,618.2976067676519
729,618.3947270394098
730,618.4934523520135
731,618.5936639495962
732,618.6952420968795
733,618.7980663699774
734,618.90201593746
735,619.0069698301827
736,619.1128071986262
737,619.2194075566798
738,619.326651010966
739,619.4344184750256
740,619.542591868057
741,619.6510542984078
742,619.759690232532
743,619.8683856505113
744,619.9770281894332
745,620.0855072759249
746,620.1937142490129
747,620.3015424742488
748,620.408887449761
749,620.5156469046196
750,620.6217208897052
751,620.727011861226
752,620.8314247570847
753,620.9348670663387
754,621.0372488919633
755,621.1384830070003
756,621.2384849039843
757,621.3371728373193
758,621.4344678581423
759,621.5302938412188
760,621.624577503564
761,621.7172484146637
762,621.8082389983603
763,621.8974845266308
764,621.9849231056223
765,622.0704956543699
766,622.154145876642
767,622.2358202263852
768,622.3154678673195
769,622.3930406272641
770,622.4684929476063
771,622.5417818279732
772,622.6128667658086
773,622.6817096903918
774,622.7482748908794
775,622.8125289380787
776,622.8744405997645
777,622.9339807494226
778,622.9911222684224
779,623.045839941802
780,623.0981103480569
781,623.1479117435283
782,623.1952239422205
783,623.2400281921347
784,623.2823070494513
785,623.3220442520383
786,623.3592245937637
787,623.393833801042
788,623.4258584130001
789,623.4552856666295
790,623.4821033882207
791,623.5062998922388
792,623.5278638886444
793,623.5467843996
794,623.563050686509
795,623.5766521883306
796,623.5875784719497
797,623.5958191950559
798,623.6013640815905
799,623.6042029093913
800,623.6043255092527
801,623.6017217742822
802,623.59638167833
803,623.5882953023864
804,623.5774528680132
805,623.5638447769218
806,623.5474616557464
807,623.5282944050317
808,623.5063342515814
809,623.4815728035554
810,623.4540021079874
811,623.4236147106599
812,623.3904037184958
813,623.35436286476
814,623.315486577386
815,623.2737700506801
816,623.2292093205541
817,623.1818013433581
818,623.1315440783516
819,623.0784365738568
820,623.0224790571276
821,622.9636730279025
822,622.9020213555309
823,622.8375283795157
824,622.7702000133155
825,622.7000438512215
826,622.6270692780158
827,622.5512875809773
828,622.4727120636522
829,622.3913581606585
830,622.3072435526421
831,622.2203882804308
832,622.1308148574328
833,622.038548379346
834,621.943616630186
835,621.8460501835798
836,621.7458824982281
837,621.6431500064539
838,621.5378921947851
839,621.4301516755986
840,621.3199742490219
841,621.2074089545465
842,621.0925081120904
843,620.9753273524403
844,620.8559256370561
845,620.7343652671562
846,620.6107118818993
847,620.4850344454525
848,620.3574052228487
849,620.2278997446834
850,620.0965967607738
851,619.9635781828422
852,619.8289290161423
853,619.6927372797782
854,619.5550939153355
855,619.4160926833589
856,619.2758300471701
857,619.1344050435794
858,618.9919191401808
859,618.8484760791537
860,618.7041817077743
861,618.5591437961916
862,618.4134718434266
863,618.2672768729302
864,618.1206712192619
865,617.9737683074852
866,617.8266824267876
867,617.6795284996533
868,617.5324218476735
869,617.3854779548301
870,617.2388122289503
871,617.092539762045
872,616.9467750903542
873,616.8016319550322
874,616.6572230644575
875,616.5136598591329
876,616.3710522801152
877,616.2295085419073
878,616.0891349107604
879,615.950035489344
880,615.8123120087507
881,615.6760636288524
882,615.5413867480772
883,615.4083748236909
884,615.2771182035926
885,615.1477039704804
886,615.0202157990386
887,614.8947338266742
888,614.7713345383031
889,614.6500906657075
890,614.5310711019283
891,614.4143408310537
892,614.2999608736757
893,614.1879882482585
894,614.0784759486196
895,613.971472937665
896,613.8670241574305
897,613.7651705553777
898,613.6659491267844
899,613.5693929729695
900,613.4755313749878
901,613.3843898822174
902,613.2959904148942
903,613.210351379204
904,613.127487793172
905,613.0474114213581
906,612.9701309162234
907,612.8956519639365
908,612.8239774324242
909,612.7551075196893
910,612.6890399007663
911,612.6257698720093
912,612.5652904916559
913,612.5075927157884
914,612.4526655290008
915,612.40049606928
916,612.3510697468178
917,612.3043703566381
