acceleration,velocity,displacement
-0.0067567756332476,0.0,0.0
-0.0069460527043643085,-3.4257070844029767e-06,-8.564267711007442e-10
-0.007132585417061722,-6.945366614759484e-06,-3.4491951958913593e-09
-0.007316143842196219,-1.055754892957397e-05,-7.824924081974723e-09
-0.0074965045271251935,-1.4260711021904323e-05,-1.4029489069844297e-08
-0.007673451273195096,-1.8053199971984397e-05,-2.2107966818316477e-08
-0.007846775932692009,-2.1933256773456174e-05,-3.210458100467662e-08
-0.008016279223286444,-2.5899020562450787e-05,-4.406265033865336e-08
-0.008181771553375558,-2.994853325661629e-05,-5.8024538793420126e-08
-0.0083430738475449,-3.4079744606846406e-05,-7.40316082592858e-08
-0.008500018357942065,-3.8290517658218145e-05,-9.212417382555194e-08
-0.008652449445835422,-4.257863460916251e-05,-1.1234146189239711e-07
-0.008800224319103237,-4.694180305039718e-05,-1.3472157130728702e-07
-0.008943213715052717,-5.137766255893617e-05,-1.5930143770962036e-07
-0.009081302521651709,-5.5883791618112275e-05,-1.8611680125388247e-07
-0.009214390332039411,-6.045771483153506e-05,-2.152021778662943e-07
-0.009342391925666804,-6.509691039596161e-05,-2.4659083417316847e-07
-0.009465237664495764,-6.979881779350225e-05,-2.8031476622053443e-07
-0.009582873786235685,-7.456084565618511e-05,-3.164046820829563e-07
-0.009695262572044122,-7.938037974575507e-05,-3.5488998843344135e-07
-0.009802382365793767,-8.425479098021454e-05,-3.9579878111493375e-07
-0.00990422742536719,-8.918144342800478e-05,-4.391578397169886e-07
-0.010000807591056439,-9.415770218211069e-05,-4.849926261195175e-07
-0.010092147760633689,-9.918094102003323e-05,-5.333272869200535e-07
-0.010178287164975978,-0.00010424854975143564,-5.841846596129207e-07
-0.010259278443043498,-0.0001093579411534405,-6.375862823391397e-07
-0.010335186520941257,-0.0001145065573944367,-6.93552406976109e-07
-0.010406087305988718,-0.00011969187585116918,-7.521020152875105e-07
-0.010472066212820801,-0.00012491141423087157,-8.132528378080206e-07
-0.010533216544160767,-0.00013016273492011697,-8.770213750957678e-07
-0.010589637753649824,-0.00013544344849456962,-9.434229209494395e-07
-0.010641433620274953,-0.00014075121633805082,-1.0124715871575947e-06
-0.010688710362880754,-0.00014608375233383973,-1.0841803293255673e-06
-0.010731574720190849,-0.00015143882360460763,-1.1585609733101792e-06
-0.01077013201915865,-0.000156814250289445,-1.2356242417836925e-06
-0.010804484254617547,-0.00016220790435788905,-1.315379780445526e-06
-0.010834728206139562,-0.00016761770747307834,-1.397836183403268e-06
-0.010860953621629473,-0.0001730416279300206,-1.4830010172540428e-06
-0.010883241498209984,-0.00017847767670998044,-1.570880843414043e-06
-0.010901662488487137,-0.00018392390270665471,-1.6614812382682018e-06
-0.010916275455825237,-0.00018937838719273282,-1.7548068107430487e-06
-0.010927126197963412,-0.00019483923760618,-1.850861216942777e-06
-0.010934246355080977,-0.0002003045807444411,-1.9496471715304324e-06
-0.010937652515946953,-0.00020577255546219808,-2.0511664555820924e-06
-0.010937345533398856,-0.00021124130497453454,-2.1554199206912754e-06
-0.010933310058063554,-0.00021670896887240014,-2.262407489153009e-06
-0.010925514298043278,-0.00022217367496142685,-2.3721281501114657e-06
-0.010913910013188045,-0.00022763353103923467,-2.484579951611631e-06
-0.010898432753897614,-0.00023308661673100608,-2.5997599885541914e-06
-0.010879002353367608,-0.0002385309755078224,-2.7176643866138986e-06
-0.010855523678333735,-0.00024396460701574772,-2.8382882822447913e-06
-0.010827887638448126,-0.0002493854598449432,-2.961625798959964e-06
-0.010795972449516307,-0.0002547914248669343,-3.087670020137933e-06
-0.010759645139760746,-0.00026018032926425355,-3.2164129586707303e-06
-0.01071876328075302,-0.00026554993136938197,-3.347845523829139e-06
-0.010673176917109202,-0.0002708979164188475,-3.481957485776196e-06
-0.0106227306638424,-0.0002762218933140854,-3.618737438209429e-06
-0.010567265938001147,-0.0002815193924645463,-3.758172759654087e-06
-0.0105066232898804,-0.0002867878647715167,-3.900249573963103e-06
-0.010440644797259523,-0.00029202468179330166,-4.044952710604308e-06
-0.010369176484453707,-0.00029722713711373,-4.192265665331066e-06
-0.010292070728077744,-0.00030239244891686284,-4.342170561838714e-06
-0.010209188613599266,-0.0003075177637522821,-4.494648115006001e-06
-0.010120402209735709,-0.0003126001614581159,-4.6496775963086005e-06
-0.010025596730631936,-0.00031763666119320776,-4.807236801971431e-06
-0.009924672558277994,-0.00032262422851543523,-4.967302024398592e-06
-0.009817547100538174,-0.0003275597834301393,-5.129848027384986e-06
-0.009704156464628107,-0.00033244020932143083,-5.294848025572879e-06
-0.009584456932429795,-0.0003372623626706953,-5.46227366857091e-06
-0.009458426232230328,-0.0003420230834618603,-5.632095030104049e-06
-0.009326064608535717,-0.0003467192061720518,-5.804280602512527e-06
-0.009187395695707324,-0.00035134757124811257,-5.978797296867568e-06
-0.009042467201237246,-0.0003559050369723487,-6.155610448922684e-06
-0.008891351401802547,-0.00036038849162310866,-6.334683831071548e-06
-0.008734145452596348,-0.00036479486583670836,-6.5159796704365024e-06
-0.008570971510364905,-0.0003691211450774487,-6.699458673165041e-06
-0.008401976673104118,-0.00037336438212331595,-6.885080054965232e-06
-0.008227332741744675,-0.00037752170947702814,-7.072801577865318e-06
-0.008047235808734926,-0.00038159035161464805,-7.262579593138237e-06
-0.00786190567583207,-0.0003855676369857898,-7.454369090288347e-06
-0.007671585101387765,-0.00038945100968009475,-7.648123751954817e-06
-0.007476538878205618,-0.00039323804067499307,-7.84379601454359e-06
-0.007277052746379813,-0.0003969264385811394,-8.041337134357623e-06
-0.0070734321497814565,-0.0004005140598051797,-8.240697258954204e-06
-0.006866000848998631,-0.0004039989180548747,-8.441825503419217e-06
-0.0066550994065765375,-0.0004073791931187685,-8.644670031212627e-06
-0.006441083561735054,-0.0004106532388608464,-8.84917813920753e-06
-0.006224322511594314,-0.0004138195903791787,-9.055296346517537e-06
-0.006005197115714447,-0.0004168769702860059,-9.262970486683833e-06
-0.005784098041119519,-0.0004198242940752144,-9.472145802774138e-06
-0.005561423865156833,-0.00042266067455178346,-9.682767044930888e-06
-0.00533757915241462,-0.0004253854253061763,-9.894778569895378e-06
-0.005112972519411347,-0.0004279980632241328,-1.0108124442027957e-05
-0.00488801469803918,-0.00043049831002849547,-1.0322748535341114e-05
-0.0046631166058831,-0.00043288609285447606,-1.0538594636061858e-05
-0.004438687428721302,-0.00043516154386312716,-1.0755606545241258e-05
-0.004215132717993725,-0.0004373249988998059,-1.0973728180931992e-05
-0.0039928525054261765,-0.0004393769952056609,-1.1192903679458359e-05
-0.0037722394386960154,-0.0004413182681916914,-1.1413077495307696e-05
-0.003553676944368604,-0.00044314974728745755,-1.1634194499177483e-05
-0.0033375374259217525,-0.00044487255088003014,-1.1856200073719354e-05
-0.0031241805051027763,-0.00044648798036278625,-1.2079040206530058e-05
-0.002913951315141628,-0.0004479975133178474,-1.2302661579950216e-05
-0.0027071788553630583,-0.00044940279586047356,-1.2527011657244798e-05
-0.0025041744192632106,-0.00045070563417913014,-1.27520387647547e-05
-0.002305230111500454,-0.00045190798531182105,-1.2977692169627437e-05
-0.0021106174720769274,-0.0004530119472077154,-1.3203922152757321e-05
-0.0019205862268709452,-0.00045401974813245237,-1.3430680076592363e-05
-0.0017353631835989195,-0.00045493373548506985,-1.3657918447496743e-05
-0.001555151291856306,-0.00045575636410393367,-1.3885590972393994e-05
-0.0013801288849943402,-0.0004564901841481463,-1.4113652609457013e-05
-0.00121044911993426,-0.0004571378286493785,-1.4342059612656394e-05
-0.0010462396292479316,-0.00045770200083667404,-1.4570769570027906e-05
-0.0008876023977586041,-0.00045818546134342565,-1.4799741435572931e-05
-0.0007346138731486146,-0.00045859101541115244,-1.5028935554761576e-05
-0.0005873253163831095,-0.0004589215002085354,-1.5258313683666499e-05
-0.0004457633943165069,-0.0004591797723862103,-1.5487839001815186e-05
-0.00030993101411591823,-0.00045936869598831845,-1.5717476118908817e-05
-0.00017980839721447835,-0.00045949113084115103,-1.5947191075616184e-05
-5.5354389388458095e-05,-0.00045954992153780176,-1.6176951338710922e-05
6.349199747650784e-05,-0.00045954788713577975,-1.6406725790879316e-05
0.00017680981928738554,-0.00045948781168158876,-1.6636484715583658e-05
0.00028469422324624695,-0.00045937243567095536,-1.6866199777421793e-05
0.0003872542835521851,-0.0004592044485442558,-1.7095843998475595e-05
0.0004846106794199791,-0.00045898648230351276,-1.7325391731187538e-05
0.0005768932490639216,-0.0004587211063213918,-1.7554818628343764e-05
0.0006642384526179808,-0.00045841082339597133,-1.7784101610773104e-05
0.0007467867750077955,-0.0004580580670890649,-1.8013218833394363e-05
0.0008246801000417067,-0.0004576652003703025,-1.8242149650259204e-05
0.0008980590903072357,-0.00045723451557271526,-1.847087457924496e-05
0.0009670606116641133,-0.0004567682356472224,-1.8699375267049943e-05
0.0010318152439190399,-0.0004562685166833266,-1.892763445513258e-05
0.0010924449196186522,-0.0004557374516424422,-1.915563594721402e-05
0.0011490607307857723,-0.0004551770752298411,-1.938336457893209e-05
0.0012017609394474815,-0.0004545893698122828,-1.961080619019262e-05
0.0012506292220180344,-0.0004539762722719164,-1.983794760071367e-05
0.0012957331703165658,-0.00045333968167383276,-2.006477658920011e-05
0.0013371230645824717,-0.000452681467615108,-2.0291281876522343e-05
0.001374830927701853,-0.0004520034791170369,-2.051745311320538e-05
0.0014088698656464695,-0.00045130755391869983,-2.0743280871464315e-05
0.001439233695869011,-0.00045059552802832097,-2.096875664195107e-05
0.0014658968622458766,-0.0004498692453887922,-2.1193872835305346e-05
0.0014888146312509374,-0.000449130567515418,-2.14186227885314e-05
0.0015079235588485419,-0.00044838138296789316,-2.1643000776152227e-05
0.00152314221138297,-0.00044762361652533525,-2.1867002026025532e-05
0.0015343721180320563,-0.0004468592379429815,-2.2090622739642612e-05
0.0015414989284324723,-0.00044609027018136535,-2.23138601166737e-05
0.001544393746853245,-0.0004453187970125439,-2.2536712383472178e-05
0.0015429146132655517,-0.0004445469699225142,-2.2759178825205942e-05
0.0015369081015572281,-0.0004437770142438085,-2.2981259821247524e-05
0.0015262110063736,-0.00044301123446682583,-2.3202956883425183e-05
0.0015106520919875006,-0.00044225201869223555,-2.342427269671495e-05
0.0014900538786928306,-0.00044150184219956547,-2.36452111619379e-05
0.001464234443697247,-0.00044076327011896793,-2.386577744001753e-05
0.001433009214226571,-0.00044003895920448696,-2.4085977997348393e-05
0.0013961927313575057,-0.0004393316587180909,-2.4305820651829036e-05
0.0013536003654836992,-0.0004386442104438806,-2.4525314619119528e-05
0.0013050499690735692,-0.0004379795478602413,-2.4744470558695557e-05
0.0012503634574811484,-0.0004373406945036026,-2.496330061928652e-05
0.0011893683108673177,-0.0004367307615615155,-2.51818184833028e-05
0.0011218989901240115,-0.00043615294473626766,-2.5400039409877245e-05
0.001047798260269816,-0.0004356105204236692,-2.5617980276167228e-05
0.0009669184183617184,-0.00043510684125401127,-2.5835659616586648e-05
0.000879122428702602,-0.0004346453310422452,-2.6053097659660713e-05
0.0007842849735057897,-0.0004342294791916931,-2.6270316362219198e-05
0.0006822934299303696,-0.0004338628345908341,-2.648733944066483e-05
0.000573048784382929,-0.00043354899903725577,-2.6704192399071854e-05
0.00045646649346929504,-0.00043329162021779274,-2.6920902553885616e-05
0.00033247729959461937,-0.00043309438426952676,-2.7137499055007444e-05
0.0002010280085727339,-0.00043296100794248493,-2.735401290306045e-05
6.208223557898134e-05,-0.00043289523038144703,-2.7570476962641432e-05
-8.437887602646248e-05,-0.0004329008045415589,-2.7786925971372185e-05
-0.00023835596076842818,-0.0004329814882507576,-2.8003396544570265e-05
-0.00039983076248151017,-0.0004331410349315701,-2.8219927175365847e-05
-0.0005687654956348665,-0.0004333831839960992,-2.8436558230097764e-05
-0.0007451022464531215,-0.0004337116509316212,-2.8653331938829693e-05
-0.0009287624282854193,-0.0004341301171003058,-2.8870292380837673e-05
-0.0011196463075198923,-0.00043464221928425715,-2.9087485464933814e-05
-0.0013176326164530735,-0.0004352515390152504,-2.930495890450869e-05
-0.0015225782701720552,-0.00043596159173690666,-2.9522762187196728e-05
-0.00173431820566249,-0.0004367758158558653,-2.974094653909492e-05
-0.0019526653603650142,-0.0004376975617473722,-2.995956488349573e-05
-0.0021774108019992364,-0.00043873008078796326,-3.0178671794129563e-05
-0.002408324012690197,-0.0004398765144916356,-3.0398323442949462e-05
-0.00264515332155564,-0.00044113988382519706,-3.061857754252867e-05
-0.0028876264742464185,-0.0004425230787741476,-3.0839493283178506e-05
-0.003135451326056359,-0.0004440288482242233,-3.10611312649281e-05
-0.003388316646092533,-0.0004456597902172605,-3.128355342453847e-05
-0.00364589302170266,-0.0004474183426342093,-3.1506822957751336e-05
-0.003907833853716285,-0.00044930677435306405,-3.1731004236998154e-05
-0.004173776433438456,-0.0004513271769248527,-3.195616272481763e-05
-0.004443343093051695,-0.00045348145680647523,-3.2182364883250464e-05
-0.0047161424228512345,-0.000455771328185451,-3.240967807949844e-05
-0.00499177054983401,-0.00045819830642862227,-3.263817048815196e-05
-0.005269812470769396,-0.00046076370218377314,-3.286791099030506e-05
-0.005549843429904521,-0.0004634686161589416,-3.309896906989074e-05
-0.005831430329707756,-0.00046631393459884465,-3.333141470758018e-05
-0.0061141331627823465,-0.00046930032547196716,-3.356531827259789e-05
-0.006397506453395421,-0.0004724282353760116,-3.380075041280988e-05
-0.00668110069821388,-0.0004756978871639139,-3.403778194344486e-05
-0.006964463798417206,-0.0004791092782880717,-3.427648373480786e-05
-0.007247142478623996,-0.000482662179857332,-3.451692659934421e-05
-0.0075286836902057,-0.0004863561363995394,-3.475918117840843e-05
-0.0078086359963365735,-0.000490190466321175,-3.5003317829088606e-05
-0.008086550934263675,-0.000494164263053825,-3.524940651143236e-05
-0.008361984348678199,-0.0004982763968745604,-3.549751667641446e-05
-0.008634497689221962,-0.0005025255173840354,-3.574771715497911e-05
-0.00890365926492386,-0.0005069100566225719,-3.600007604848076e-05
-0.009169045447841372,-0.0005114282328007632,-3.6254660620836594e-05
-0.009430241818515405,-0.0005160780546173524,-3.6511537192691124e-05
-0.009686844247824185,-0.0005208573261339374,-3.6770771037878945e-05
-0.009938459913856326,-0.0005257636521743574,-3.703242628245602e-05
-0.010184708256202421,-0.0005307944442168721,-3.729656580655383e-05
-0.010425221870850368,-0.0005359469267486352,-3.756325114929521e-05
-0.01065964734600129,-0.0005412181440528481,-3.7832542416995576e-05
-0.010887646034043666,-0.0005466049673978593,-3.810449819485825e-05
-0.011108894749421998,-0.0005521041025937257,-3.8379175462356145e-05
-0.011323086377468096,-0.0005577120978754482,-3.865662951247344e-05
-0.011529930377361747,-0.0005634253520641557,-3.8936913874958335e-05
-0.011729153164011762,-0.000569240122949499,-3.922008024371175e-05
-0.01192049835739141,-0.0005751525358298499,-3.950617840840658e-05
-0.01210372689160513,-0.000581158592142099,-3.979525619039957e-05
-0.012278616978516654,-0.0005872541781096295,-4.00873593829625e-05
-0.012444963922722584,-0.0005934350733349394,-4.038253169582364e-05
-0.012602579786131198,-0.0005996969592621528,-4.0680814703972915e-05
-0.012751292901396838,-0.0006060354274340349,-4.098224780064696e-05
-0.012890947233916523,-0.0006124459874678632,-4.128686815437244e-05
-0.013021401592155186,-0.0006189240746743811,-4.1594710669908e-05
-0.013142528687022047,-0.0006254650572441754,-4.190580795288764e-05
-0.013254214044441265,-0.0006320642429270412,-4.222019027793044e-05
-0.013356354781532605,-0.0006387168851335347,-4.253788555994559e-05
-0.013448858263738806,-0.0006454181883948526,-4.2858919328327686e-05
-0.013531640665458668,-0.000652163313127152,-4.3183314703708185e-05
-0.013604625459180434,-0.0006589473796583117,-4.351109237690455e-05
-0.013667741858488486,-0.000665765471487729,-4.384227058969106e-05
-0.013720923239363901,-0.0006726126377621921,-4.417686511700354e-05
-0.013764105563038677,-0.0006794838949627927,-4.451488925018479e-05
-0.013797225823196261,-0.0006863742278093515,-4.485635378087782e-05
-0.013820220541205536,-0.0006932785894004519,-4.520126698518027e-05
-0.01383302433489349,-0.0007001919006194766,-4.5549634607685256e-05
-0.01383556858781585,-0.000707109048850154,-4.590145984505266e-05
-0.01382778024575862,-0.0007140248860585476,-4.6256743328779835e-05
-0.013809580764139611,-0.0007209342263110221,-4.661548310687223e-05
-0.01378088522402142,-0.0007278318428080623,-4.6977674624152e-05
-0.013741601627428688,-0.0007347124645209249,-4.7343310700984245e-05
-0.013691630376543768,-0.000741570772521918,-4.771238151024496e-05
-0.013630863936983553,-0.0007484013961002998,-4.808487455240051e-05
-0.013559186682573502,-0.000755198908755189,-4.8460774628614386e-05
-0.013476474917530018,-0.000761957824155215,-4.884006381184199e-05
-0.013382597072069236,-0.0007686725921526148,-4.9222721415918943e-05
-0.013277414067719205,-0.0007753375949375619,-4.960872396269149e-05
-0.013160779847422721,-0.0007819471434163473,-4.999804514727997e-05
-0.013032542062293082,-0.0007884954738937763,-5.03906558016075e-05
-0.012892542903272394,-0.0007949767451351676,-5.078652385636474e-05
-0.012740620063589916,-0.0008013850358768832,-5.118561430161775e-05
-0.012576607816918259,-0.0008077143428470103,-5.158788914629872e-05
-0.012400338195707067,-0.0008139585793501666,-5.1993307376848016e-05
-0.01221164225472782,-0.0008201115744627753,-5.240182491530125e-05
-0.012010351407130596,-0.00082616707287824,-5.2813394577136505e-05
-0.011796298824751873,-0.0008321187354362106,-5.3227966029215115e-05
-0.011569320899672884,-0.0008379601403673167,-5.364548574816599e-05
-0.01132925876772204,-0.0008436847852841654,-5.406589697957886e-05
-0.011075959894665692,-0.0008492860899497624,-5.4489139698387345e-05
-0.010809279722258716,-0.0008547573998539935,-5.491515057083829e-05
-0.010529083366853782,-0.0008600919906262717,-5.534386291845836e-05
-0.010235247361247254,-0.0008652830733082969,-5.5775206684441996e-05
-0.009927661431135036,-0.0008703238005063925,-5.6209108402895665e-05
-0.00960623029867983,-0.0008752072734388462,-5.664549117138197e-05
-0.00927087550437296,-0.0008799265498896095,-5.708427462721409e-05
-0.008921537235096415,-0.0008844746530744769,-5.752537492795511e-05
-0.008558176142708929,-0.0008888445814189283,-5.7968704736578466e-05
-0.008180775135002769,-0.0008930293192383562,-5.841417321174279e-05
-0.0077893411194129595,-0.00089702184830196,-5.8861686003627863e-05
-0.007383906678748812,-0.0009008151602515005,-5.931114525576623e-05
-0.006964531656662164,-0.0009044022698353532,-5.976244961328795e-05
-0.006531304628259764,-0.0009077762289065837,-6.021549423797343e-05
-0.006084344228601718,-0.0009109301411207991,-6.0670170830480275e-05
-0.00562380031058391,-0.0009138571772555955,-6.112636766007438e-05
-0.005149854905094802,-0.0009165505910595152,-6.158396960215316e-05
-0.004662722960659403,-0.0009190037355259537,-6.204285818379952e-05
-0.00416265284631845,-0.0009212100794776982,-6.250291163755043e-05
-0.0036499266092500844,-0.0009231632243415903,-6.296400496350526e-05
-0.0031248599867537727,-0.0009248569209905912,-6.34260099998383e-05
-0.0025878021794630453,-0.0009262850865321455,-6.388879550171899e-05
-0.002039135396193761,-0.0009274418209260596,-6.435222722858355e-05
-0.001479274179117958,-0.0009283214233198876,-6.481616803964504e-05
-0.0009086645126893404,-0.0009289184079928394,-6.528047799747321e-05
-0.0003277827147902682,-0.0009292275197997094,-6.574501447942135e-05
0.0002628658926322605,-0.0009292437490052488,-6.620963229662259e-05
0.0008627485326177123,-0.0009289623453989363,-6.667418382022363e-05
0.0014713067335316882,-0.000928378831582399,-6.713851911446896e-05
