acceleration,velocity,displacement
-0.030461075696356567,0.0,0.0
-0.02875604948787418,-1.4804281296057688e-05,-3.701070324014422e-09
-0.027057154816953356,-2.875758237226457e-05,-1.4591536241094987e-08
-0.025370472259043875,-4.1864489141263874e-05,-3.2247054119477096e-08
-0.02370198119660803,-5.413260250517685e-05,-5.6246327031087275e-08
-0.02205751103581348,-6.557247556328222e-05,-8.617259654820204e-08
-0.020442694549234513,-7.619752695954423e-05,-1.2161509717890866e-07
-0.018862923952637386,-8.60239315850122e-05,-1.6217046181504777e-07
-0.017323310228644726,-9.507049013033273e-05,-2.0744406724388402e-07
-0.015828646109142336,-0.0001033584792147795,-2.5705130958016206e-07
-0.014383373038545838,-0.00011091148400170153,-3.1061880038428233e-07
-0.012991552365852116,-0.00011775521535280102,-3.67785475222908e-07
-0.01165684094843299,-0.0001239173136813723,-4.282036074814513e-07
-0.010382471284227588,-0.00012942714173953744,-4.915397213366787e-07
-0.0091712362167844,-0.00013431556861479043,-5.574753989252606e-07
-0.00802547819030801,-0.00013861474721656354,-6.257079778830991e-07
-0.0069470829848990445,-0.0001423578875103653,-6.959511365648313e-07
-0.005937477834439431,-0.0001455790277151999,-7.679353653712226e-07
-0.004997633805403633,-0.00014831280562516068,-8.414083237063127e-07
-0.004128072284378383,-0.0001505942321476062,-9.161350831495045e-07
-0.003328875388170111,-0.00015245846906574332,-9.918982584528418e-07
-0.002599700081947327,-0.00015394061293327267,-1.0684980289525958e-06
-0.00193979577292071,-0.00015507548689698967,-1.1457520539101614e-06
-0.0013480251297932294,-0.00015589744212266815,-1.2234952861650758e-06
-0.0008228878413808052,-0.00015644017036546166,-1.3015796892871082e-06
-0.0003625469668904717,-0.0001567365290675295,-1.3798738641453561e-06
3.514253204218438e-05,-0.00015681838017624156,-1.4582625914562988e-06
0.00037260352392665005,-0.00015671644366224935,-1.5366462974159215e-06
0.0006525051528968775,-0.00015646016649304348,-1.6149404499547447e-06
0.0008777304225938033,-0.0001560776075991708,-1.6930748934777982e-06
0.001051343312138515,-0.00015559533916548773,-1.7709931301689629e-06
0.0011765557903888055,-0.0001550383643898559,-1.8486515560577988e-06
0.0012566950734789065,-0.000154430051673889,-1.926018660073735e-06
0.0012951714421001418,-0.00015379208504499422,-2.0030741942534557e-06
0.0012954468856491569,-0.0001531444304630569,-2.0798083231304683e-06
0.0012610047782246167,-0.00015250531754708847,-2.1562207601330046e-06
0.001195320740887683,-0.0001518912361673104,-2.232319898561604e-06
0.0011018348235016862,-0.00015131694727621306,-2.308121944422485e-06
0.0009839251446755706,-0.00015079550728416875,-2.3836500580625805e-06
0.0008448831412343604,-0.00015033830521269127,-2.4589335111867957e-06
0.000687890581857764,-0.00014995511178191823,-2.5340068654354482e-06
0.0005159984892651383,-0.0001496541395141375,-2.608909178259462e-06
0.00033210809728300827,-0.00014944211286750046,-2.6836832413548716e-06
0.00013895395054807966,-0.00014932434735554268,-2.7583748564106322e-06
-6.0910757626010036e-05,-0.00014930483655731217,-2.833032152388846e-06
-0.0002651265157130349,-0.00014938634587564694,-2.907704947997086e-06
-0.0004715373965900847,-0.00014957051185372273,-2.9824441624294287e-06
-0.0006781984425022163,-0.0001498579458134958,-3.0573012768462333e-06
-0.0008833804714634351,-0.00015024834054198723,-3.132327848435104e-06
-0.001085572302486586,-0.00015074057873547473,-3.2075750782544695e-06
-0.001283480481098499,-0.000151332841931371,-3.283093433421181e-06
-0.0014760266788106783,-0.0001520227187213483,-3.3589323235843606e-06
-0.0016623430122943007,-0.00015280731114412455,-3.435139831050729e-06
-0.0018417655556959675,-0.00015368333828612212,-3.5117624934082904e-06
-0.002013826299927339,-0.00015464723625002795,-3.588845137042328e-06
-0.0021782437681894286,-0.00015569525376705714,-3.6664307595465993e-06
-0.002334912455947595,-0.0001568235428230914,-3.7445604586941363e-06
-0.00248389123590034,-0.0001580282437460534,-3.823273405336422e-06
-0.0026253908457864144,-0.0001593055642664751,-3.902606857339555e-06
-0.0027597605550338886,-0.00016065185211668016,-3.982596211435343e-06
-0.0028874740952419616,-0.00016206366077924913,-4.063275089659326e-06
-0.0030091149503096866,-0.00016353780804063704,-4.144675456864297e-06
-0.003125361132276625,-0.0001650714270612836,-4.226827765639777e-06
-0.0032369696033395542,-0.00016666200974518766,-4.309761124841395e-06
-0.0033447605242907935,-0.00016830744227709524,-4.393503487846966e-06
-0.0034496015055038172,-0.00017000603278454388,-4.478081856612376e-06
-0.0035523920181095387,-0.00017175653116544722,-4.563522497599873e-06
-0.0036540481108477724,-0.00017355814119768655,-4.649851165690656e-06
-0.003755487585238013,-0.000175410525121708,-4.737093332270505e-06
-0.003857615803443288,-0.00017731380096887831,-4.825274413793151e-06
-0.00396131232235144,-0.00017926853300032699,-4.914419997285452e-06
-0.004067418548183361,-0.00018127571571796068,-5.004556059465024e-06
-0.004176726588078354,-0.00018333675200202611,-5.095709176395021e-06
-0.004289969451086292,-0.00018545342601181727,-5.187906720898482e-06
-0.004407812728486007,-0.00018762787155671035,-5.2811770452906145e-06
-0.004530847853045143,-0.00018986253670209312,-5.375549647355316e-06
-0.0046595869835548,-0.0001921601454112431,-5.47105531788365e-06
-0.004794459486610913,-0.00019452365702878454,-5.567726268493657e-06
-0.004935809917678036,-0.00019695622437985677,-5.665596238845817e-06
-0.0050838973654026304,-0.00019946115120062692,-5.7647005827409385e-06
-0.005238896019657329,-0.0002020418495468919,-5.865076332927818e-06
-0.005400896832979223,-0.00020470179776005103,-5.966762244754554e-06
-0.005569910147177909,-0.0002074444995050903,-6.069798819070839e-06
-0.005745869152174602,-0.00021027344432992843,-6.174228305029593e-06
-0.00592863404282421,-0.00021319207012867813,-6.280094683644245e-06
-0.006117996746702266,-0.00021620372782605975,-6.38744363313293e-06
-0.006313686111516005,-0.0002193116485406143,-6.4963224772245985e-06
-0.006515373463977497,-0.0002225189134344877,-6.606780117718374e-06
-0.006722678476961638,-0.00022582842641972247,-6.7188669526819265e-06
-0.006935175295805165,-0.00022924288986291417,-6.832634781752586e-06
-0.007152398865626628,-0.00023276478340327213,-6.9481367000691325e-06
-0.0073738513687877354,-0.00023639634596187573,-7.06542698241042e-06
-0.007599008637499116,-0.00024013956096344743,-7.18456095914175e-06
-0.007827326369230003,-0.0002439961447151297,-7.305594885561395e-06
-0.008058245954900164,-0.00024796753779616224,-7.428585806189218e-06
-0.0082911997348498,-0.00025205489921859974,-7.553591415442908e-06
-0.008525615520501854,-0.00025625910303243767,-7.680669916005667e-06
-0.008760920255065129,-0.0002605807369763294,-7.80987987600786e-06
-0.008996542732603642,-0.0002650201027232466,-7.941280085932753e-06
-0.009231915350828774,-0.0002695772172441047,-8.07492941592459e-06
-0.009466474935984622,-0.0002742518148158081,-8.210886673939569e-06
-0.00969966273933173,-0.00027904334923463717,-8.34921046495218e-06
-0.009930923750661506,-0.00028395099585713546,-8.489959051225123e-06
-0.010159705497376189,-0.0002889736531691449,-8.633190213481693e-06
-0.010385456503535392,-0.0002941099436693728,-8.778961112691322e-06
-0.01060762458574486,-0.00029935821394169287,-8.927328152094088e-06
-0.010825655168578181,-0.0003047165338802736,-9.07834683904958e-06
-0.011038989800078846,-0.00031018269512243785,-9.232071646300259e-06
-0.011247065020385041,-0.00031575420882755384,-9.388555872287757e-06
-0.01144931168377661,-0.00032142830300359423,-9.547851500245544e-06
-0.011645154778135615,-0.0003272019196190723,-9.710009055901211e-06
-0.01183401374785114,-0.00033307171175056896,-9.875077463743622e-06
-0.01201530330999849,-0.00033903404101503137,-1.0043103901935021e-05
-0.012188434746328294,-0.00034508497552911306,-1.0214133656071058e-05
-0.012352817639897882,-0.0003512202886256696,-1.0388209972109754e-05
-0.012507861999122384,-0.00035743545853542466,-1.0565373908900027e-05
-0.012652980680426485,-0.0003637256692053119,-1.0745664190835211e-05
-0.012787591997103186,-0.0003700858123746943,-1.0929117061230213e-05
-0.01291112239710353,-0.000376510490973246,-1.1115766137067198e-05
-0.013023009106179876,-0.0003829940238490668,-1.1305642265772776e-05
-0.013122702657460029,-0.0003895304517899768,-1.1498773384682537e-05
-0.013209669260490298,-0.00039611354476946437,-1.1695184383822398e-05
-0.01328339300170851,-0.0004027368103350141,-1.1894896972598517e-05
-0.013343377903714685,-0.0004093935030613699,-1.2097929550947613e-05
-0.013389149889286911,-0.0004160766350096203,-1.230429708546536e-05
-0.013420258699667512,-0.00042277898715685887,-1.251401099100698e-05
-0.013436279816495991,-0.00042949312178589975,-1.2727079018242669e-05
-0.013436816436340806,-0.00043621139584910896,-1.294350514765142e-05
-0.013421501543626667,-0.00044292597534410083,-1.3163289490449722e-05
-0.013390000118946825,-0.0004496288507597442,-1.3386428196975683e-05
-0.0133420115013652,-0.0004563118536648222,-1.3612913373081825e-05
-0.013277271893722664,-0.00046296667451359416,-1.3842733005126429e-05
-0.013195556965382313,-0.0004695848817283704,-1.407587089418692e-05
-0.013096684479164311,-0.00047615794208950705,-1.431230660014139e-05
-0.012980516860622458,-0.00048267724242445376,-1.455201539626988e-05
-0.012846963643614694,-0.0004891341125505131,-1.4794968235013622e-05
-0.012695983761094059,-0.0004955198494016903,-1.5041131725501674e-05
-0.012527587691879973,-0.0005018257422649338,-1.529046812341833e-05
-0.012341839508205733,-0.0005080430990649553,-1.55429353337508e-05
-0.012138858880561265,-0.000514163273662147,-1.5798486926932575e-05
-0.011918823081022281,-0.0005201776941525429,-1.605707216888625e-05
-0.011681968992535173,-0.0005260778921709322,-1.6318636065467117e-05
-0.01142859509060276,-0.0005318555331917167,-1.658311942180778e-05
-0.011159063323950086,-0.000537502447795355,-1.6850458917054548e-05
-0.01087380079592116,-0.0005430106638253227,-1.7120587194959718e-05
-0.010573301153096905,-0.0005483724393125773,-1.7393432970744192e-05
-0.010258125620201505,-0.0005535802960059019,-1.7668921154573813e-05
-0.009928903661035719,-0.0005586270533262112,-1.794697299190684e-05
-0.0095863332740208,-0.0005635058625599753,-1.8227506220878387e-05
-0.009231180939011888,-0.0005682102411132335,-1.851043524679669e-05
-0.00886428121722356,-0.0005727341066522923,-1.879567133373807e-05
-0.008486535970028412,-0.0005770718109491054,-1.908312281313842e-05
-0.008098913118780492,-0.0005812181732213076,-1.9372695309181024e-05
-0.007702444841533604,-0.0005851685127113861,-1.96642919806642e-05
-0.0072982251101731035,-0.0005889186801993128,-1.9957813778891874e-05
-0.006887406509404309,-0.0005924650881042071,-2.0253159720967752e-05
-0.006471196333395938,-0.0005958047388149072,-2.055022717769753e-05
-0.0060508520119909445,-0.0005989352509012539,-2.084891217512657e-05
-0.005627675959212702,-0.0006018548828940548,-2.11491097085754e-05
-0.0052030099471821675,-0.0006045625543706536,-2.1450714067891574e-05
-0.004778229087715907,-0.0006070578641293781,-2.1753619172516583e-05
-0.004354735467224623,-0.0006093411052681132,-2.2057718914865954e-05
-0.003933951446769265,-0.0006114132769966117,-2.2362907510432135e-05
-0.0035173126203601524,-0.0006132760930133941,-2.2669079852934638e-05
-0.0031062604235861085,-0.0006149319862743807,-2.2976131872756582e-05
-0.002702234394940458,-0.0006163841099790123,-2.328396089681993e-05
-0.002306664102848095,-0.0006176363346034595,-2.359246600796555e-05
-0.0019209607554972945,-0.0006186932408180459,-2.3901548401820927e-05
-0.0015465085074052012,-0.0006195601081337715,-2.4211111739058882e-05
-0.00118465546619469,-0.0006202428991271715,-2.4521062490874117e-05
-0.0008367043869585099,-0.0006207482390904598,-2.4831310275428526e-05
-0.0005039030308006637,-0.0006210833909448996,-2.5141768182937364e-05
-0.00018743417596005942,-0.0006212562252465899,-2.5452353086985237e-05
0.00011159468797175755,-0.0006212751851185869,-2.576298593957653e-05
0.0003921618935089784,-0.0006211492459732167,-2.6073592047349483e-05
0.0006533422191533694,-0.0006208878699450511,-2.6384101326329048e-05
0.000894317445341359,-0.0006205009550289274,-2.6694448532572543e-05
0.0011143866794234081,-0.0006199987789977362,-2.700457346607921e-05
0.001312976277260299,-0.0006193919382585653,-2.7314421145393285e-05
0.0014896491694834774,-0.0006186912818968793,-2.7623941950432147e-05
0.001644113386360656,-0.0006179078412579183,-2.7933091731220847e-05
0.0017762295851337674,-0.0006170527555150446,-2.8241831880414088e-05
0.0018860174208492689,-0.0006161371937635488,-2.8550129367733735e-05
0.0019736606506211194,-0.0006151722742456813,-2.8857956734736043e-05
0.0020395109026189857,-0.0006141689813573712,-2.9165292048636806e-05
0.0020840900629309424,-0.0006131380811159838,-2.9472118814255145e-05
0.002108091231100083,-0.000612090035792476,-2.977842584348226e-05
0.0021123781706782595,-0.0006110349184420314,-3.008420708204089e-05
0.0020979831506510627,-0.0006099823281116991,-3.0389461393679322e-05
0.0020661030630722303,-0.0006089413065582682,-3.069419230234681e-05
0.002018093727094465,-0.0006079202573607266,-3.099840769332656e-05
0.0019554623441885403,-0.0006069268683429058,-3.1302119474752465e-05
0.00187985813762795,-0.0006059680382224516,-3.1605343201393804e-05
0.00179306127819398,-0.0006050498083684961,-3.190809766304154e-05
0.0016969702571417338,-0.0006041773004846622,-3.221040444025483e-05
0.0015935879054987442,-0.0006033546609440021,-3.2512287430611996e-05
0.0014850062712693677,-0.00060258501239981,-3.2813772348947946e-05
0.0013733905628049677,-0.0006018704131912914,-3.311488620534572e-05
0.0012609623619444488,-0.0006012118249601041,-3.341565676488357e-05
0.0011499823104457346,-0.0006006090887920065,-3.37161119933216e-05
0.0010427324743100986,-0.0006000609100958175,-3.401627949304356e-05
0.0009414985854147909,-0.0005995648523308863,-3.431618593365023e-05
0.0008485523414200251,-0.0005991173395991776,-3.461585648163275e-05
0.0007661339159306922,-0.0005987136680348399,-3.4915314233541254e-05
0.0006964348061226743,-0.0005983480258543266,-3.521457965701354e-05
0.0006415811368741678,-0.0005980135218685773,-3.551367004394427e-05
0.0006036175436410011,-0.0005977022221984485,-3.5812598979961024e-05
0.0005844917542952529,-0.0005974051948739645,-3.611137583422913e-05
0.000586039973341221,-0.0005971125619420554,-3.641000527343313e-05
0.0006099731500774138,-0.0005968135586612007,-3.670848680358394e-05
0.0006578642046529506,-0.0005964965993225181,-3.700681434307987e-05
0.0007311362958971885,-0.0005961493491973806,-3.7304975830209844e-05
0.0008310522226735793,-0.0005957588020677379,-3.7602952868026125e-05
0.0009587050382557012,-0.0005953113627525056,-3.7900720409231184e-05
0.001115009931555413,-0.0005947929340100528,-3.8198246483421824e-05
0.001300697412120024,-0.000594189007174134,-3.849549196871787e-05
0.001516307839779828,-0.000593484755861159,-3.879241040947669e-05
0.0017621873556579579,-0.0005926651320622995,-3.908894788145756e-05
0.002038485278680776,-0.0005917149639037148,-3.938504290544906e-05
0.0023451530147118554,-0.0005906190543303666,-3.968062641000758e-05
0.002681944483859103,-0.0005893622799557239,-3.99756217435791e-05
0.0030484180206530958,-0.0005879296893295958,-4.0269944735900435e-05
0.003443939661877789,-0.0005863065999089631,-4.0563503808210073e-05
0.0038676877202677698,-0.0005844786930634267,-4.085620013145317e-05
0.004318658550278686,-0.0005824321064957901,-4.114792783134297e-05
0.004795673439026366,-0.0005801535234984638,-4.1438574238841535e-05
0.005297386589572669,-0.0005776302584913141,-4.172802018433898e-05
0.005822294186800109,-0.0005748503382972209,-4.201614033353611e-05
0.006368744531677396,-0.0005718025786176015,-4.230280356276482e-05
0.006934949198896493,-0.000568476655184958,-4.258787337121546e-05
0.007518995134812511,-0.0005648631691015307,-4.2871208327287086e-05
0.008118857581315087,-0.0005609537059224988,-4.315266254604309e-05
0.008732413678612721,-0.0005567408881075169,-4.3432086194550595e-05
0.009357456554719631,-0.0005522184205491838,-4.370932602171477e-05
0.009991709663807113,-0.0005473811289945521,-4.39842259091007e-05
0.010632841116087028,-0.0005422249912995786,-4.4256627439174236e-05
0.011278477763588366,-0.0005367471615796597,-4.452637047739404e-05
0.011926218865638789,-0.0005309459874223529,-4.4793293764644544e-05
0.012573649242933313,-0.0005248210203952098,-4.505723551659893e-05
0.013218351923392083,-0.0005183730201036284,-4.531803402672364e-05
0.013857920364085471,-0.000511603952031759,-4.557552826975749e-05
0.01448997037829037,-0.000504516979346165,-4.582955850260197e-05
0.015112151898451507,-0.0004971164487769796,-4.607996685963276e-05
0.01572216067872502,-0.0004894078706326855,-4.6326597939485174e-05
0.016317750000503912,-0.0004813978929628783,-4.6569299380384064e-05
0.016896742390661766,-0.00047309426986508684,-4.6807922421091055e-05
0.01745704129295819,-0.00046450582394418186,-4.704232244454337e-05
0.017996642563872327,-0.00045564240297997423,-4.727235950127441e-05
0.018513645620401392,-0.0004465148309339058,-4.749789880975288e-05
0.019006264059898616,-0.0004371348535138308,-4.771881123086481e-05
0.019472835589443006,-0.0004275150786014954,-4.7934973713893646e-05
0.019911831125722767,-0.0004176689119227039,-4.8146269711524696e-05
0.02032186294711584,-0.00040761048840449424,-4.83525895616065e-05
0.02070169179999081,-0.0003973545997177176,-4.855383083363705e-05
0.021050232883471125,-0.0003869166185468521,-4.8749898638203195e-05
0.021366560655719177,-0.0003763124201620545,-4.894070589788042e-05
0.021649912413609734,-0.0003655583018947223,-4.9126173578394615e-05
0.021899690600755046,-0.00035467090114113113,-4.9306230879153576e-05
0.02211546380878477,-0.0003436671125387462,-4.948081538257355e-05
0.022296966461923043,-0.0003325640049710692,-4.9649873161951e-05
0.022444097214690283,-0.0003213787390519159,-4.981335884795675e-05
0.02255691613981659,-0.00031012848571328915,-4.997123565414805e-05
0.02263564082451754,-0.0002988303464722056,-5.0123475362194426e-05
0.02268064151282643,-0.00028750127588786964,-5.027005826778444e-05
0.022692435423723085,-0.00027615800665373223,-5.041097308841984e-05
0.022671680346737288,-0.00026481697771111717,-5.0546216834511054e-05
0.022619167581370763,-0.00025349426572909015,-5.06757946453711e-05
0.022535814255537943,-0.00024220552026986297,-5.0799719591870844e-05
0.022422655040554625,-0.00023096590294583984,-5.091801244767477e-05
0.022280833281012772,-0.00021979003086544798,-5.1030701431127595e-05
0.022111591573323215,-0.00020869192465186397,-5.1137821920006924e-05
0.021916261844340628,-0.000197684961297448,-5.123941614149425e-05
0.021696254988179446,-0.00018678183208931798,-5.1335532839840944e-05
0.021453050108873647,-0.0001759945058150547,-5.1426226924317036e-05
0.02118818339181844,-0.00016533419743988166,-5.151155910013077e-05
0.020903236602492718,-0.00015481134244130386,-5.159159548510107e-05
0.02059982521012718,-0.00014443557698814888,-5.166640721495843e-05
0.02027958617210945,-0.00013421572414258972,-5.173607004024112e-05
0.019944165480377547,-0.00012415978622946797,-5.180066391783413e-05
0.019595205629600997,-0.00011427494345197334,-5.186027260025449e-05
0.019234333190404226,-0.00010456755874697203,-5.1914983225804225e-05
0.018863146660862206,-9.504318878415543e-05,-5.1964885912687006e-05
0.01848320475280784,-8.570660093073792e-05,-5.201007336011573e-05
0.018096015271591742,-7.656179592463802e-05,-5.205064045932958e-05
0.01770302477088572,-6.761203591401866e-05,-5.208668391728924e-05
0.017305609187092143,-5.885987742452419e-05,-5.2118301895623875e-05
0.01690506565474552,-5.0307208714064774e-05,-5.214559366715852e-05
0.016502605663750513,-4.195529088444076e-05,-5.216865929205815e-05
0.016099349653072397,-3.3804802055235036e-05,-5.2187599315293065e-05
0.015696323069114483,-2.5855883874688317e-05,-5.220251448677555e-05
0.015294453870482979,-1.810818963978895e-05,-5.221350550515417e-05
0.01489457143680325,-1.0560933312967391e-05,-5.222067278589236e-05
