frame_number,force
0,489.93402100452533
1,490.0194391773764
2,490.1045501732863
3,490.189049368407
4,490.27263720844286
5,490.3550216525906
6,490.4359205109701
7,490.5150636450837
8,490.5921950056139
9,490.66707448692557
10,490.73947958213586
11,490.8092068263309
12,490.87607301876375
13,490.9399162181889
14,491.00059650910725
15,491.05799654006523
16,491.1120218375059
17,491.16260090005886
18,491.209685079367
19,491.2532482550754
20,491.2932863133074
21,491.32981643937575
22,491.3628762363766
23,491.39252268217984
24,491.4188309391726
25,491.4418930341668
26,491.4618164290049
27,491.4787225042264
28,491.49274497825394
29,491.5040282834147
30,491.51272591852114
31,491.51899879635556
32,491.52301360334275
33,491.52494118726446
34,491.5249549863982
35,491.5232295103494
36,491.5199388803128
37,491.51525543544216
38,491.50934841226757
39,491.5023827047468
40,491.49451771269776
41,491.48590628584475
42,491.47669376980843
43,491.4670171594369
44,491.4570043642642
45,491.44677359078025
46,491.43643284633106
47,491.4260795691477
48,491.4158003875559
49,491.4056710084968
50,491.395756231278
51,491.3861100778546
52,491.3767760273284
53,491.3677873409672
54,491.35916746502716
55,491.35093050089495
56,491.3430817341225
57,491.33561821531333
58,491.32852938695663
59,491.32179775139974
60,491.31539957570095
61,491.30930562856264
62,491.30348194302917
63,491.2978905969106
64,491.2924905019022
65,491.28723819257664
66,491.2820886073506
67,491.27699585413797
68,491.2719139530421
69,491.26679754735153
70,491.26160257314405
71,491.25628687776435
72,491.2508107783359
73,491.24513755267026
74,491.23923385606537
75,491.2330700590023
76,491.226620503419
77,491.21986367896574
78,491.2127823241494
79,491.20536345918185
80,491.19759835752245
81,491.18948246264324
82,491.18101525644164
83,491.17220008595996
84,491.1630439551375
85,491.15355728795845
86,491.1437536685738
87,491.1336495628136
88,491.1232640242548
89,491.11261838730684
90,491.1017359502264
91,491.0906416526143
92,491.07936175415773
93,491.0679235232514
94,491.05635494501763
95,491.0446844579934
96,491.03294072760485
97,491.0211524627737
98,491.0093482796979
99,490.99755661404026
100,490.9858056796036
101,490.9741234685068
102,490.9625377855764
103,490.95107630851004
104,490.93976666507496
105,490.9286365184803
106,490.9177136517709
107,490.9070260421975
108,490.89660191789625
109,490.88646979185256
110,490.8766584709459
111,490.867197039773
112,490.85811481975867
113,490.8494413044304
114,490.84120607241647
115,490.83343868103566
116,490.82616854492755
117,490.8194248053543
118,490.813236196049
119,490.80763091079996
120,490.8026364767244
121,490.7982796355844
122,490.79458623354793
123,490.7915811180239
124,490.7892880392689
125,490.7877295542855
126,490.7869269305371
127,490.78690004702855
128,490.78766729045657
129,490.78924544457817
130,490.79164957186435
131,490.7948928879896
132,490.79898663143985
133,490.80393993190876
134,490.80975968158236
135,490.81645041262124
136,490.82401418239675
137,490.83245046594243
138,490.8417560533762
139,490.85192494946193
140,490.8629482732472
141,490.87481415740206
142,490.8875076489411
143,490.90101061500593
144,490.9153016586309
145,490.93035604917617
146,490.9461456704813
147,490.9626389877538
148,490.9798010327629
149,490.99759340650434
150,491.015974299243
151,491.0348985296496
152,491.05431760693074
153,491.07417982116965
154,491.09443036671047
155,491.1150115015202
156,491.13586274273854
157,491.15692109581494
158,491.17812131258745
159,491.1993961731375
160,491.2206767872988
161,491.24189291353576
162,491.26297329459584
163,491.2838460102841
164,491.30443884775497
165,491.3246796892033
166,491.34449691630317
167,491.3638198305372
168,491.3825790887192
169,491.40070715353545
170,491.4181387597372
171,491.43481139715703
172,491.4506658111304
173,491.4656465187933
174,491.4797023367858
175,491.49278691348627
176,491.5048592578414
177,491.5158842566259
178,491.52583317149305
179,491.53468410620064
180,491.54242243368844
181,491.54904117318176
182,491.55454130935647
183,491.55893204805164
184,491.5622310050879
185,491.56446432584397
186,491.5656667331273
187,491.5658814996476
188,491.5651603398773
189,491.5635632155529
190,491.5611580503193
191,491.55802035175236
192,491.554232742417
193,491.5498844050688
194,491.5450704500663
195,491.53989121496807
196,491.5344515069126
197,491.52885979821565
198,491.5232273853843
199,491.5176675217442
200,491.5122945339299
201,491.5072229322284
202,491.50256652384246
203,491.498437536687
204,491.4949457600917
205,491.49219770837374
206,491.4902958134042
207,491.4893376521911
208,491.4894152146599
209,491.4906142157176
210,491.49301345530546
211,491.4966842306425
212,491.50168980525564
213,491.5080849387803
214,491.5159154802271
215,491.52521802656463
216,491.5360196486668
217,491.5483376874649
218,491.56217962351826
219,491.57754302236447
220,491.5944155559263
221,491.6127750977066
222,491.63258988750187
223,491.6538187605343
224,491.67641143630493
225,491.70030886381477
226,491.72544362151046
227,491.75174037146525
228,491.779116367084
229,491.807482012077
230,491.836741466541
231,491.8667932944175
232,491.8975311449632
233,491.9288444586032
234,491.96061918525186
235,491.99273850220936
236,492.02508351982897
237,492.0575339661285
238,492.0899688457812
239,492.12226707364596
240,492.15430808706
241,492.1859724433586
242,492.21714240917464
243,492.24770254671085
244,492.2775403001617
245,492.30654658277246
246,492.3346163615515
247,492.36164923318734
248,492.38754998252915
249,492.4122291146183
250,492.4356033521284
251,492.4575960912501
252,492.47813781009285
253,492.49716642469554
254,492.51462758885026
255,492.53047493488697
256,492.54467025300744
257,492.5571836069124
258,492.5679933839636
259,492.5770862793816
260,492.5844572159743
261,492.59010920325716
262,492.5940531418852
263,492.59630758029397
264,492.59689843005015
265,492.5958586450048
266,492.59322786757355
267,492.58905204390686
268,492.58338300882866
269,492.576278041462
270,492.5677993932341
271,492.5580137908368
272,492.546991917053
273,492.5348078718369
274,492.5215386147971
275,492.5072633890071
276,492.4920631260263
277,492.476019833925
278,492.45921597338514
279,492.44173382988293
280,492.423654891134
281,492.4050592384791
282,492.3860249600533
283,492.3666275936855
284,492.3469396086263
285,492.3270299363519
286,492.30696356053306
287,492.28680117422755
288,492.2665989090354
289,492.2464081376321
290,492.22627534876267
291,492.2062420925756
292,492.1863449936282
293,492.16661582852663
294,492.14708166453835
295,492.1277650540641
296,492.10868427738393
297,492.0898536234134
298,492.071283696772
299,492.05298174001666
300,492.03495196171633
301,492.0171958628569
302,491.9997125555155
303,491.98249906949746
304,491.9655506450889
305,491.94886101266684
306,491.93242266173945
307,491.9162271026166
308,491.9002651235333
309,491.88452704519676
310,491.86900297390673
311,491.85368305383133
312,491.8385577184645
313,491.8236179403334
314,491.80885547677264
315,491.7942631088101
316,491.7798348703547
317,491.7655662653368
318,491.7514544703683
319,491.73749851962555
320,491.72369946758715
321,491.71006052477605
322,491.69658716211825
323,491.6832871804725
324,491.670170742733
325,491.6572503666875
326,491.6445408777963
327,491.63205932197314
328,491.61982483869673
329,491.6078584943038
330,491.59618307491456
331,491.58482283909774
332,491.5738032324538
333,491.5631505691851
334,491.55289168827477
335,491.5430535932438
336,491.5336630844583
337,491.5247463920357
338,491.5163288161085
339,491.5084343801576
340,491.50108550278094
341,491.49430269350466
342,491.488104278572
343,491.48250616266216
344,491.47752163195577
345,491.47316120264793
346,491.46943251697905
347,491.4663402866658
348,491.46388628195325
349,491.46206936358413
350,491.4608855543717
351,491.46032814625585
352,491.46038783776686
353,491.46105289615576
354,491.4623093381608
355,491.46414112326755
356,491.4665303534344
357,491.46945747388503
358,491.4729014707031
359,491.47684006224006
360,491.48124988232064
361,491.48610665374537
362,491.491385350917
363,491.4970603511454
364,491.5031055756343
365,491.5094946228859
366,491.51620089827674
367,491.52319774314844
368,491.53045856521356
369,491.53795697055637
370,491.5456668969943
371,491.55356274916664
372,491.56161953690724
373,491.56981301959297
374,491.5781198595526
375,491.5865177867249
376,491.59498577457464
377,491.6035042243082
378,491.6120551513785
379,491.6206223660117
380,491.62919163874164
381,491.6377508425772
382,491.64629006476747
383,491.6548016827874
384,491.66328040114087
385,491.6717232476328
386,491.6801295292632
387,491.68850074842214
388,491.6968404800076
389,491.7051542102022
390,491.7134491381839
391,491.7217339426316
392,491.7300185153297
393,491.7383136646849
394,491.7466307925578
395,491.7549815481524
396,491.7633774626655
397,491.7718295682949
398,491.7803480054767
399,491.78894162308745
400,491.79761757774486
401,491.8063809398921
402,491.8152343152936
403,491.82417749034704
404,491.8332071085738
405,491.8423163846436
406,491.8514948614759
407,491.86072821475216
408,491.8699981074534
409,491.8792820954598
410,491.8885535842394
411,491.8977818358696
412,491.906932024651
413,491.9159653384297
414,491.9248391217646
415,491.93350705642706
416,491.9419193742755
417,491.9500230972327
418,491.9577622991859
419,491.9650783853594
420,491.9719103859141
421,491.97819526190466
422,491.98386822316473
423,491.9888630590389
424,491.9931124836938
425,491.9965484977703
426,491.99910276769896
427,492.00070702329
428,492.00129347284513
429,492.00079523293476
430,491.9991467680628
431,491.9962843345846
432,491.99214642314394
433,491.98667419370076
434,491.9798118969229
435,491.97150727626365
436,491.96171194695637
437,491.95038175068373
438,491.93747708659845
439,491.92296322006507
440,491.90681056999654
441,491.88899497451393
442,491.8694979337
443,491.84830682792085
444,491.82541511021077
445,491.80082247094896
446,491.7745349722858
447,491.7465651486887
448,491.71693206899954
449,491.68566135499145
450,491.652785151877
451,491.61834204762965
452,491.5823769399899
453,491.5449408518882
454,491.50609069736026
455,491.465889001237
456,491.42440357731556
457,491.38170717100246
458,491.33787707294914
459,491.2929947097995
460,491.24714521717664
461,491.20041699896456
462,491.1529012759661
463,491.10469162591704
464,491.0558835155645
465,491.00657382468245
466,490.9568603622413
467,490.9068413765886
468,490.8566150637196
469,490.8062790794117
470,490.75593006152826
471,490.70566316842263
472,490.65557163863
473,490.60574637616696
474,490.5562755649762
475,490.5072443155234
476,490.4587343459668
477,490.41082369915307
478,490.3635864948981
479,490.31709271512176
480,490.2714080181779
481,490.2265935787534
482,490.1827059509289
483,490.1397969535255
484,490.097913578019
485,490.05709792023976
486,490.01738713810073
487,489.9788134383691
488,489.9414040952607
489,489.90518150215684
490,489.8701632556838
491,489.8363622696626
492,489.8037869153936
493,489.7724411842348
494,489.7423248682879
495,489.7134337551318
496,489.6857598329592
497,489.65929150319295
498,489.63401379837285
499,489.6099086033751
500,489.5869548779393
501,489.5651288784463
502,489.54440437701453
503,489.5247528760227
504,489.506143815969
505,489.4885447742848
506,489.47192165264767
507,489.4562388507052
508,489.4414594248393
509,489.42754523154986
510,489.41445705639813
511,489.4021547313083
512,489.3905972447534
513,489.37974285004145
514,489.36954917640855
515,489.3599733466932
516,489.3509721048041
517,489.34250195600316
518,489.3345193228044
519,489.32698071900455
520,489.3198429442187
521,489.31306330122226
522,489.30659983815275
523,489.3004116170634
524,489.2944590092622
525,489.28870401606684
526,489.28311061112475
527,489.2776450978015
528,489.2722764729622
529,489.26697678722917
530,489.26172149171146
531,489.25648976217167
532,489.2512647932722
533,489.2460340574685
534,489.2407895247967
535,489.2355278409107
536,489.23025046125383
537,489.2249637393367
538,489.2196789668525
539,489.2144123630257
540,489.2091850106038
541,489.20402273657004
542,489.19895593687556
543,489.1940193458041
544,489.18925175162065
545,489.18469566093773
546,489.1803969151386
547,489.17640426343974
548,489.1727688985516
549,489.16954396199606
550,489.1667840266863
551,489.1645445642733
552,489.16288140384137
553,489.16185018667875
554,489.1615058196174
555,489.1619019279436
556,489.16309030874726
557,489.1651203865667
558,489.1680386748991
559,489.1718882493759
560,489.17670824083024
561,489.1825333585387
562,489.18939345489645
563,489.1973131423433
564,489.20631147197827
565,489.2164016818285
566,489.2275910213721
567,489.2398806568469
568,489.2532656583086
569,489.26773506470164
570,489.28327201868876
571,489.2998539598588
572,489.3174528637612
573,489.3360355150325
574,489.35556380511434
575,489.3759950477712
576,489.39728230804127
577,489.41937474207947
578,489.4422179466674
579,489.46575431834117
580,489.4899234233344
581,489.51466238055224
582,489.5399062601116
583,489.56558849956656
584,489.59164133922565
585,489.6179962773785
586,489.6445845458086
587,489.67133760531493
588,489.6981876596737
589,489.72506818451456
590,489.75191446554135
591,489.77866413905997
592,489.8052577268785
593,489.8316391568302
594,489.85775625941284
595,489.8835612308343
596,489.90901105327225
597,489.93406786406194
598,489.9586992665808
599,489.9828785768354
600,490.00658500114906
601,490.0298037417542
602,490.05252602842904
603,490.0747490755932
604,490.09647596552276
605,490.11771545964655
606,490.13848174139866
607,490.1587940959614
608,490.17867653429386
609,490.1981573703906
610,490.2172687609698
611,490.23604621565784
612,490.2545280839337
613,490.2727550235105
614,490.29076945415096
615,490.3086150013595
616,490.3263359356064
617,490.3439766139438
618,490.36158093160515
619,490.3791917914728
620,490.3968505994386
621,490.41459679394984
622,490.4324674185227
623,490.45049674609334
624,490.4687159627185
625,490.4871529150606
626,490.50583192237684
627,490.52477365069325
628,490.5439950449207
629,490.56350931364426
630,490.5833259609577
631,490.6034508597218
632,490.62388636074974
633,490.64463143277817
634,490.66568182889483
635,490.6870302760575
636,490.7086666848391
637,490.73057837635855
638,490.7527503227062
639,490.7751653963712
640,490.7978046235161
641,490.8206474355957
642,490.84367191389134
643,490.8668550222789
644,490.8901728250909
645,490.91360068882636
646,490.93711346799074
647,490.9606856761441
648,490.9842916433327
649,491.007905660635
650,491.03150211191365
651,491.055055592448
652,491.07854101402575
653,491.1019336959766
654,491.12520944139067
655,491.1483445977168
656,491.17131610143633
657,491.19410150747507
658,491.2166790050364
659,491.2390274223339
660,491.2611262232457
661,491.28295549916885
662,491.3044959591639
663,491.3257289208522
664,491.3466363037203
665,491.3672006257588
666,491.3874050038093
667,491.4072331575584
668,491.42666941683154
669,491.4456987317942
670,491.4643066858914
671,491.48247951166644
672,491.5002041097761
673,491.517468071521
674,491.5342597050925
675,491.55056806565244
676,491.5663829895905
677,491.58169513390425
678,491.5964960222321
679,491.6107780993618
680,491.62453479617545
681,491.63776060703503
682,491.65045118120196
683,491.66260342864786
684,491.67421563869215
685,491.68528760779895
686,491.69582077110374
687,491.705818331213
688,491.7152853778823
689,491.7242289933668
690,491.73265834003683
691,491.74058472828625
692,491.7480216630566
693,491.7549848667057
694,491.76149227562394
695,491.767564008751
696,491.77322230750553
697,491.77849144765435
698,491.78339762411014
699,491.78796881031025
700,491.79223459546006
701,491.7962260053311
702,491.7999753143149
703,491.803515857
704,491.80688184654286
705,491.81010820512023
706,491.8132304095016
707,491.8162843527104
708,491.8193062208453
709,491.8223323823001
710,491.825399285003
711,491.82854335627655
712,491.83180089979527
713,491.83520798476843
714,491.83880032328636
715,491.84261313225284
716,491.846680976719
717,491.8510375922665
718,491.85571568542844
719,491.8607467124639
720,491.86616063747647
721,491.8719856707295
722,491.87824798761596
723,491.88497142882625
724,491.89217718316667
725,491.8998834562026
726,491.90810513026406
727,491.9168534240483
728,491.9261355624757
729,491.9359544687336
730,491.9463084898149
731,491.95719116440637
732,491.96859103876966
733,491.9804915335208
734,491.9928708624662
735,492.00570200355844
736,492.01895272102985
737,492.0325856368143
738,492.0465583490263
739,492.0608235957331
740,492.07532946285403
741,492.0900196349124
742,492.104833686489
743,492.11970741125236
744,492.1345731850346
745,492.1493603597144
746,492.16399568531483
747,492.17840375837676
748,492.1925074952977
749,492.20622862996214
750,492.21948823542357
751,492.2322072693297
752,492.244307142141
753,492.2557103061404
754,492.26634086195236
755,492.27612517799344
756,492.28499251718074
757,492.2928756645669
758,492.299711549524
759,492.30544185643174
760,492.31001361794176
761,492.3133797846428
762,492.3154997649778
763,492.3163399301446
764,492.31587407998586
765,492.3140838663784
766,492.3109591698555
767,492.30649842375027
768,492.3007088788054
769,492.29360680031255
770,492.2852175896867
771,492.27557582323186
772,492.264725202629
773,492.252718413899
774,492.2396168938141
775,492.2254905046475
776,492.2104171196513
777,492.1944821228009
778,492.17777782724716
779,492.16040281763475
780,492.1424612220093
781,492.12406191945496
782,492.1053176898244
783,492.0863443120045
784,492.067259617396
785,492.04818250590995
786,492.02923193264877
787,492.01052587420014
788,491.99218028422894
789,491.9743080492517
790,491.9570179569047
791,491.94041368962263
792,491.9245928558465
793,491.9096460694991
794,491.89565608784915
795,491.8826970183625
796,491.8708336058141
797,491.8601206107975
798,491.85060228969814
799,491.8423119847494
800,491.83527183120344
801,491.8294925865268
802,491.82497358355863
803,491.8217028060698
804,491.8196570818319
805,491.8188023857915
806,491.8190942446356
807,491.82047823384465
808,491.82289055865897
809,491.8262587104794
810,491.83050218986074
811,491.8355332869729
812,491.84125791077275
813,491.8475764587916
814,491.8543847194015
815,491.8615747972729
816,491.86903605121444
817,491.8766560326045
818,491.88432141242333
819,491.8919188854225
820,491.8993360414187
821,491.90646219612927
822,491.91318917694593
823,491.91941206188767
824,491.9250298720599
825,491.9299462188016
826,491.9340699064318
827,491.9373154908019
828,491.9396037932796
829,491.94086236919975
830,491.9410259289373
831,491.94003670879715
832,491.93784478827797
833,491.93440835000246
834,491.9296938786828
835,491.9236762961227
836,491.91633903055407
837,491.9076740200273
838,491.897681650343
839,491.88637062817423
840,491.87375779048887
841,491.8598678528018
842,491.84473310091516
843,491.8283930329849
844,491.8108939604758
845,491.7922885772625
846,491.77263550528323
847,491.75199882288234
848,491.730447579228
849,491.7080552961105
850,491.68489945766163
851,491.6610609888738
852,491.63662372432714
853,491.6116738684292
854,491.5862994477065
855,491.5605897548871
856,491.53463478434026
857,491.50852465912703
858,491.4823490511968
859,491.45619659758586
860,491.43015431637747
861,491.4043070266336
862,491.378736776806
863,491.3535222864925
864,491.3287384066545
865,491.3044556032408
866,491.2807394686306
867,491.25765026493264
868,491.2352425034119
869,491.21356456514786
870,491.1926583690818
871,491.17255909463273
872,491.15329496687406
873,491.13488711235436
874,491.1173494923444
875,491.1006889175605
876,491.0849051450783
877,491.06999105504866
878,491.0559329022639
879,491.04271063556774
880,491.03029827646037
881,491.01866434697973
882,491.0077723361767
883,490.9975811945624
884,490.9880458468357
885,490.97911771452397
886,490.97074524136434
887,490.96287441527227
888,490.95544928191674
889,490.94841244643015
890,490.9417055614543
891,490.9352698013209
892,490.9290463236836
893,490.9229767213162
894,490.9170034675854
895,490.91107035874694
896,490.905122954696
