acceleration,velocity,displacement
-0.03046107576834342,0.0,0.0
-0.028756049559440187,-1.4804281331945903e-05,-3.701070332986476e-09
-0.027057154887948718,-2.875758244379313e-05,-1.4591536276921234e-08
-0.025370472329314216,-4.186448924810886e-05,-3.224705419989673e-08
-0.023701981266004625,-5.413260264693857e-05,-5.62463271736586e-08
-0.02205751110419439,-6.557247573948832e-05,-8.617259677026532e-08
-0.020442694616462302,-7.61975271696525e-05,-1.2161509749755052e-07
-0.01886292401857687,-8.60239318284123e-05,-1.621704622470667e-07
-0.017323310293159554,-9.50704904063464e-05,-2.074440678057564e-07
-0.01582864617209387,-0.00010335847952265976,-2.570513102880079e-07
-0.014383373099798816,-0.00011091148434063293,-3.1061880125383105e-07
-0.012991552425275806,-0.00011775521572190159,-3.6778547626946467e-07
-0.011656841005902313,-0.00012391731407969612,-4.2820360871986413e-07
-0.01038247133962085,-0.00012942714216607692,-4.915397227813074e-07
-0.009171236269985568,-0.00013431556906847851,-5.574754005899462e-07
-0.008025478241211253,-0.00013861474769627773,-6.257079797811353e-07
-0.006947083033412138,-0.00014235788801493358,-6.959511387089382e-07
-0.005937477880482625,-0.00014557902824340727,-7.679353677735234e-07
-0.004997633848915327,-0.00014831280617575677,-8.414083263783144e-07
-0.004128072325309456,-0.00015059423271931297,-9.161350861020818e-07
-0.0033288754264873257,-0.00015245846965726217,-9.918982616962256e-07
-0.002599700117640141,-0.00015394061354329403,-1.0684980324963648e-06
-0.0019397958060001425,-0.0001550754875242041,-1.1457520577632393e-06
-0.0013480251602964021,-0.00015589744276577823,-1.223495290335735e-06
-0.0008228878693709438,-0.00015644017102319505,-1.3015796937829783e-06
-0.0003625469924625806,-0.00015673652973865343,-1.3798738689734403e-06
3.5142508763589705e-05,-0.00015681838085957817,-1.4582625966229982e-06
0.00037260350279094586,-0.00015671644435668954,-1.5366463029270651e-06
0.000652505133738677,-0.00015646016719755713,-1.6149404558156268e-06
0.0008777304052420329,-0.00015607760831281195,-1.693074899693219e-06
0.0010513432964300293,-0.00015559533988739394,-1.7709931367432705e-06
0.0011765557761729247,-0.0001550383651192432,-1.8486515629949298e-06
0.0012566950606264936,-0.00015443005241004334,-1.9260186673772514e-06
0.0012951714305036019,-0.00015379208578726082,-2.0030742019265776e-06
0.001295446875220168,-0.00015314443121082987,-2.0798083311761005e-06
0.0012610047688873215,-0.000152505318299803,-2.1562207685537585e-06
0.0011953207325730152,-0.0001518912369244379,-2.232319907359819e-06
0.0011018348161473718,-0.00015131694803725783,-2.3081219536002426e-06
0.0009839251382204538,-0.00015079550804866586,-2.3836500676217234e-06
0.0008448831356161353,-0.00015033830598020672,-2.4589335211289415e-06
0.0006878905770095712,-0.0001499551125520503,-2.534006875762006e-06
0.0005159984851121613,-0.00014965414028651986,-2.6089091889716484e-06
0.00033210809374474386,-0.00014944211364180564,-2.6836832524537298e-06
0.00013895394753947297,-0.00014932434813148457,-2.7583748678970525e-06
-6.0910760197968395e-05,-0.0001493048373346492,-2.833032164263586e-06
-0.00026512651794363484,-0.0001493863466541846,-2.9077049602607946e-06
-0.0004715373985723568,-0.0001495705126333136,-2.982444175082669e-06
-0.0006781984443257966,-0.00014985794659403814,-3.057301289889507e-06
-0.0008833804732191026,-0.00015024834132342437,-3.1323278618688726e-06
-0.0010855723042583186,-0.00015074057951779373,-3.207575092079177e-06
-0.0012834804829589342,-0.00015133284271459804,-3.283093447637275e-06
-0.0014760266808290549,-0.00015202271950554504,-3.3589323381923107e-06
-0.001662343014533054,-0.00015280731192938556,-3.4351398460510433e-06
-0.001841765558212997,-0.00015368333907257207,-3.511762508801533e-06
-0.002013826302777142,-0.0001546472370378196,-3.5888451528291306e-06
-0.0021782437714196975,-0.00015569525455636881,-3.6664307757276776e-06
-0.002334912459598078,-0.00015682354361412325,-3.7445604752703005e-06
-0.0024838912400017093,-0.0001580282445390232,-3.8232734223085875e-06
-0.002625390850365937,-0.00015930556506161511,-3.902606874708747e-06
-0.0027597605601154254,-0.00016065185291423546,-3.98259622920271e-06
-0.0028874741008516414,-0.00016206366157947723,-4.063275107826138e-06
-0.003009114956463423,-0.000163537808843806,-4.144675475431958e-06
-0.0031253611389767126,-0.00016507142786766605,-4.226827784609826e-06
-0.003236969610579207,-0.00016666201055505502,-4.309761144215507e-06
-0.0033447605320507407,-0.0001683074430907125,-4.393503507626949e-06
-0.0034496015137420906,-0.0001700060336021607,-4.478081876800167e-06
-0.003552392026768281,-0.0001717565319872883,-4.563522518197529e-06
-0.0036540481198634486,-0.00017355814202394624,-4.649851186700338e-06
-0.0037554875945357375,-0.00017541052595254603,-4.737093353694461e-06
-0.0038576158129447666,-0.00017731380180441614,-4.825274435633702e-06
-0.003961312331980644,-0.0001792685338406475,-4.914420019544967e-06
-0.004067418557868798,-0.00018127571656310985,-5.0045560821459066e-06
-0.004176726597745119,-0.00018333675285201332,-5.095709199499687e-06
-0.004289969460656077,-0.00018545342686661362,-5.187906744429344e-06
-0.004407812737874828,-0.00018762787241624634,-5.281177069250059e-06
-0.004530847862174683,-0.0001898625375662587,-5.3755496717456845e-06
-0.004659586992347876,-0.00019216014627988935,-5.471055342707222e-06
-0.00479445949499261,-0.00019452365790172447,-5.567726293752625e-06
-0.004935809925580245,-0.00019695622525686769,-5.665596264542273e-06
-0.005083897372765182,-0.00019946115208145404,-5.764700608876853e-06
-0.00523889602642119,-0.00020204185043125065,-5.865076359505029e-06
-0.005400896839077415,-0.0002047017986476253,-5.966762271774748e-06
-0.005569910152543455,-0.00020744450039553053,-6.069798846535538e-06
-0.00574586915673939,-0.00021027344522285123,-6.174228332940133e-06
-0.0059286340465167274,-0.00021319207102366526,-6.280094712001762e-06
-0.0061179967494555355,-0.00021620372872265832,-6.387443661938343e-06
-0.006313686113274399,-0.0002193116494383408,-6.496322506478593e-06
-0.006515373464703544,-0.0002225189143328353,-6.606780147421387e-06
-0.006722678476634889,-0.0002258284273181699,-6.718866982834139e-06
-0.006935175294415382,-0.0002292428907609325,-6.832634812353914e-06
-0.007152398863177192,-0.00023276478430033062,-6.94813673111923e-06
-0.007373851365284302,-0.000236396346857446,-7.065427013908674e-06
-0.007599008632955282,-0.00024013956185700588,-7.184560991087287e-06
-0.007827326363670716,-0.00024399614560616237,-7.305594917953079e-06
-0.008058245948358318,-0.0002479675386841696,-7.428585839025662e-06
-0.008291199727361693,-0.0002520549001030996,-7.55359144872248e-06
-0.008525615512111728,-0.00025625910391296797,-7.680669949726496e-06
-0.008760920245831983,-0.0002605807378524539,-7.809879910167851e-06
-0.008996542722603498,-0.00026502010359456276,-7.941280120529605e-06
-0.009231915340149,-0.0002695772181102509,-8.074929450955808e-06
-0.009466474924726204,-0.0002742518156764697,-8.210886709402488e-06
-0.00969966272761268,-0.00027904335008955444,-8.349210500843994e-06
-0.00993092373861118,-0.0002839509967061104,-8.48995908754291e-06
-0.010159705485130757,-0.00028897365401204584,-8.633190250222448e-06
-0.010385456491231028,-0.0002941099445061363,-8.778961149851994e-06
-0.010607624573517738,-0.0002993582147723235,-8.927328189671609e-06
-0.010825655156572422,-0.00030471653470484606,-9.0783468770409e-06
-0.011038989788436301,-0.00031018269594109825,-9.232071684702386e-06
-0.011247065009244162,-0.0003157542096405184,-9.38855591109779e-06
-0.011449311673269043,-0.0003214283038111467,-9.547851539460706e-06
-0.011645154768382798,-0.00032720192042155966,-9.710009095518884e-06
-0.011834013738965438,-0.0003330717125483967,-9.875077503761373e-06
-0.012015303302084324,-0.0003390340418086591,-1.0043103942350637e-05
-0.012188434739478745,-0.00034508497631904986,-1.0214133696882566e-05
-0.012352817634191281,-0.00035122028941246737,-1.0388210013315445e-05
-0.012507861994618912,-0.00035743545931966994,-1.0565373950498479e-05
-0.012652980677163634,-0.0003637256699876156,-1.07456642328253e-05
-0.012787591995103697,-0.0003700858131556824,-1.0929117103611125e-05
-0.012911122396375397,-0.0003765104917535522,-1.1115766179838434e-05
-0.013023009106708405,-0.00038299402462932316,-1.1305642308934153e-05
-0.013122702659207832,-0.0003895304525708022,-1.1498773428234185e-05
-0.013209669263402973,-0.0003961135455514549,-1.169518442776475e-05
-0.013283393005706695,-0.0004027368111187323,-1.1894897016932296e-05
-0.013343377908703134,-0.00040939350384733476,-1.2097929595673812e-05
-0.013389149895154495,-0.0004160766357982992,-1.230429713058522e-05
-0.013420258706287222,-0.00042277898794865963,-1.251401103652196e-05
-0.013436279823724931,-0.00042949312258116264,-1.2727079064154414e-05
-0.013436816444031545,-0.0004362113966481018,-1.294350519396173e-05
-0.013421501551623832,-0.00044292597614701564,-1.3163289537160509e-05
-0.013390000127096182,-0.00044962885156669567,-1.3386428244088937e-05
-0.013342011509509111,-0.000456311854475847,-1.3612913420599572e-05
-0.01327727190170349,-0.00046296667532865014,-1.3842733053050696e-05
-0.013195556973043556,-0.0004695848825473369,-1.4075870942519693e-05
-0.013096684486349468,-0.0004761579429121852,-1.4312306648884573e-05
-0.01298051686717276,-0.00048267724325056573,-1.455201544542526e-05
-0.012846963649373643,-0.0004891341133797023,-1.4794968284582827e-05
-0.012695983765907425,-0.0004955198502335226,-1.5041131775486133e-05
-0.0125275876955992,-0.0005018257430988993,-1.529046817381924e-05
-0.012341839510687935,-0.000508043099900471,-1.554293538456908e-05
-0.012138858881669235,-0.0005141632744985604,-1.579848697816884e-05
-0.011918823080629016,-0.000520177694989135,-1.6057072220540765e-05
-0.011681968990526153,-0.0005260778930069237,-1.631863611753978e-05
-0.01142859508687254,-0.0005318555340262734,-1.6583119474298077e-05
-0.011159063318409107,-0.0005375024486275939,-1.6850458969961544e-05
-0.010873800788495744,-0.0005430106646543201,-1.712058724828202e-05
-0.0105733011437372,-0.0005483724401373784,-1.7393433024479946e-05
-0.010258125608882616,-0.0005535802968255334,-1.7668921208720672e-05
-0.00992890364775204,-0.000558627054139692,-1.794697304646198e-05
-0.009586333258779202,-0.0005635058633663248,-1.8227506275838483e-05
-0.009231180921827183,-0.0005682102419114764,-1.8510435302157934e-05
-0.008864281198125303,-0.0005727341074414646,-1.879567138949617e-05
-0.008486535949060903,-0.0005770718117282611,-1.90831228692886e-05
-0.008098913095993704,-0.0005812181739895247,-1.9372695365718047e-05
-0.0077024448169877155,-0.0005851685134677701,-1.966429203758237e-05
-0.007298225083936229,-0.0005889186809430011,-1.9957813836185064e-05
-0.006887406481553636,-0.0005924650888343736,-2.0253159778629408e-05
-0.006471196304019994,-0.000595804739530767,-2.0550227235720693e-05
-0.006050851981182792,-0.0005989352516020677,-2.0848912233503903e-05
-0.005627675927071067,-0.0006018548835791312,-2.1149109767299203e-05
-0.005203009913806907,-0.0006045625550393506,-2.1450714126953823e-05
-0.004778229053210272,-0.000607057864781105,-2.1753619231908937e-05
-0.004354735431692998,-0.0006093411059023307,-2.2057718974579795e-05
-0.003933951410311485,-0.0006114132776128319,-2.2362907570458585e-05
-0.003517312583076047,-0.0006132760936111788,-2.2669079913264587e-05
-0.0031062603855789043,-0.0006149319868533425,-2.2976131933380716e-05
-0.0027022343563122397,-0.0006163841105388153,-2.3283960957728756e-05
-0.002306664063697537,-0.0006176363351438177,-2.3592466069149414e-05
-0.0019209607159264691,-0.0006186932413387238,-2.390154846327005e-05
-0.0015465084675241156,-0.0006195601086345864,-2.421111180076338e-05
-0.0011846554261144805,-0.000620242899607996,-2.4521062552824026e-05
-0.0008367043467891713,-0.0006207482395512219,-2.483131033761383e-05
-0.0005039029906487815,-0.0006210833913855814,-2.514176824534803e-05
-0.0001874341359344828,-0.0006212562256672272,-2.545235314961123e-05
0.00011159472776558886,-0.0006212751855192695,-2.5762986002407856e-05
0.0003921619329713026,-0.0006211492463540852,-2.6073592110376195e-05
0.000653342258191237,-0.0006208878703062946,-2.638410138954129e-05
0.0008943174838709013,-0.0006205009553707791,-2.6694448595960558e-05
0.001114386717364164,-0.0006199987793204703,-2.700457352963337e-05
0.0013129763145374829,-0.0006193919385624949,-2.731442120910411e-05
0.0014896492060404605,-0.0006186912821823504,-2.7623942014290323e-05
0.001644113422156696,-0.000617907841525301,-2.7933091795217235e-05
0.0017762296201394691,-0.000617052755764727,-2.8241831944539744e-05
0.0018860174550511216,-0.0006161371939959293,-2.8550129431979907e-05
0.0019736606840214973,-0.0006151722744611611,-2.885795679909418e-05
0.002039510935229338,-0.0006141689815563485,-2.9165292113098558e-05
0.00208409009476612,-0.0006131380812988496,-2.9472118878812357e-05
0.002108091262179472,-0.0006120900359596132,-2.977842590812697e-05
0.0021123782010314535,-0.0006110349185938105,-3.008420714676533e-05
0.002097983180314459,-0.000609982328248474,-3.03894614584759e-05
0.0020661030920890284,-0.0006089413066803732,-3.069419236720811e-05
0.002018093755514665,-0.0006079202574684722,-3.099840775824532e-05
0.001955462372070078,-0.0006069268684365759,-3.130211953972158e-05
0.0018798581650298892,-0.0006059680383023009,-3.16053432664063e-05
0.0017930613051719711,-0.0006050498084347504,-3.190809772809056e-05
0.00169697028374461,-0.0006041773005375213,-3.2210404505333626e-05
0.001593587931759445,-0.0006033546609836453,-3.251228749571392e-05
0.0014850062972117453,-0.0006025850124264025,-3.281377241406643e-05
0.0013733905884403827,-0.0006018704132049894,-3.3114886270474275e-05
0.001260962387267232,-0.0006012118249610625,-3.341565683001579e-05
0.0011499823354411286,-0.0006006090887803854,-3.3716112058451155e-05
0.001042732498961066,-0.0006000609100717849,-3.4016279558164196e-05
0.0009414986096940721,-0.0005995648522946211,-3.43161859987558e-05
0.0008485523652924066,-0.0005991173395508744,-3.461585654671717e-05
0.0007661339393496039,-0.0005987136679747139,-3.491531429859857e-05
0.0006964348290369968,-0.0005983480257826172,-3.5214579722037904e-05
0.0006415811592225604,-0.0005980135217855524,-3.5513670108929944e-05
0.0006036175653530355,-0.0005977022221044085,-3.581259904490244e-05
0.0005844917752970883,-0.0005974051947692459,-3.611137589912085e-05
0.0005860399935533344,-0.0005971125618270334,-3.641000533826992e-05
0.0006099731694191396,-0.0005968135585362902,-3.670848686836075e-05
0.0006578642230413463,-0.0005964965991881751,-3.700681440779186e-05
0.0007311363132583822,-0.0005961493490541001,-3.730497589485243e-05
0.0008310522389450396,-0.0005957588019160492,-3.7602952932594965e-05
0.0009587050533839687,-0.000595311362592967,-3.790072047372222e-05
0.0011150099454892933,-0.0005947929338432487,-3.819824654783127e-05
0.0013006974248151273,-0.0005941890070006727,-3.8495492033042256e-05
0.0015163078511963002,-0.0005934847556816698,-3.8792410473712844e-05
0.0017621873657593472,-0.0005926651318774309,-3.908894794560262e-05
0.0020384852874328996,-0.0005917149637141328,-3.9385042969500506e-05
0.0023451530220850686,-0.0005906190541367534,-3.968062647396323e-05
0.0026819444898294365,-0.0005893622797587747,-3.9975621807437106e-05
0.003048418025202255,-0.0005879296891300168,-4.02699447996593e-05
0.0034439396649863477,-0.0005863065997074696,-4.056350387186867e-05
0.0038676877219140362,-0.0005844786928607445,-4.0856200195010725e-05
0.004318658550443243,-0.0005824321062926551,-4.114792789479907e-05
0.004795673437686397,-0.0005801535232956228,-4.143857430219614e-05
0.0052973865867065,-0.0005776302582895245,-4.172802024759243e-05
0.005822294182383802,-0.0005748503380972519,-4.2016140396689126e-05
0.0063687445256915606,-0.0005718025784202331,-4.2302803625818495e-05
0.006934949191325151,-0.0005684766549909789,-4.25878734341713e-05
0.007518995125639693,-0.0005648631689117378,-4.287120839014698e-05
0.008118857570518025,-0.0005609537057376983,-4.3152662608809336e-05
0.008732413666165255,-0.0005567408879285275,-4.343208625722589e-05
0.00935745654059561,-0.0005522184203768372,-4.370932608430223e-05
0.00999170964797699,-0.0005473811288296941,-4.398422597160387e-05
0.010632841098520135,-0.0005422249911430699,-4.4256627501597055e-05
0.011278477744265394,-0.0005367471614323735,-4.452637053974091e-05
0.011926218844549518,-0.0005309459872851697,-4.47932938269203e-05
0.01257364922008001,-0.0005248210202690123,-4.505723557880884e-05
0.013218351898799727,-0.0005183730199892924,-4.5318034088873416e-05
0.013857920337793797,-0.000511603951930144,-4.557552833185327e-05
0.014489970350355012,-0.0005045169792581068,-4.5829558564650334e-05
0.015112151868949666,-0.0004971164487032806,-4.607996692164068e-05
0.015722160647752066,-0.0004894078705741052,-4.6326598001460026e-05
0.016317749968167705,-0.00048139789292012526,-4.656929944233359e-05
0.01689674235708379,-0.0004730942698388124,-4.680792248302332e-05
0.017457041258270148,-0.0004645058239349739,-4.7042322506466765e-05
0.017996642528218424,-0.00045564240298835175,-4.727235956319759e-05
0.01851364558393491,-0.00044651483096031343,-4.7497898871684756e-05
0.01900626402278079,-0.0004371348535586345,-4.771881129281449e-05
0.019472835551841886,-0.00042751507866497883,-4.7934973775870396e-05
0.019911831087813216,-0.00041766891200506505,-4.814626977353791e-05
0.020321862909079544,-0.0004076104885058419,-4.8352589623665634e-05
0.020701691762011726,-0.00039735459983806907,-4.855383089575161e-05
0.02105023284572753,-0.00038691661868613423,-4.8749898700382664e-05
0.021366560618380295,-0.0003763124203201073,-4.8940705960134225e-05
0.021649912376831164,-0.0003655583020713044,-4.912617364073208e-05
0.021899690564673106,-0.0003546709013359284,-4.930623094158389e-05
0.0221154637735233,-0.0003436671127513793,-4.9480815445105714e-05
0.022296966427594527,-0.00033256400520109984,-4.9649873224593835e-05
0.02244409718139247,-0.0003213787392988531,-4.9813358910718825e-05
0.02255691610763133,-0.00031012848597659714,-4.9971235717037685e-05
0.022635640793511942,-0.0002988303467513113,-5.012347542521966e-05
0.022680641483057384,-0.00028750127618216894,-5.027005833095303e-05
0.022692435395232732,-0.0002761580069625964,-5.041097315173922e-05
0.022671680319555285,-0.0002648169780338994,-5.054621689798834e-05
0.022619167555516545,-0.0002534942660651314,-5.06757947090131e-05
0.022535814231021866,-0.0002422055206184968,-5.079971965568401e-05
0.022422655017377967,-0.00023096590330639685,-5.091801251166523e-05
0.022280833259169994,-0.00021979003123725986,-5.103070149530114e-05
0.022111591552801964,-0.00020869192503426688,-5.113782198436903e-05
0.021916261825118338,-0.0001976849616897868,-5.123941620605004e-05
0.021696254970230137,-0.0001867818324909497,-5.1335532904595224e-05
0.02145305009216906,-0.0001759945062253499,-5.14262269892743e-05
0.021188183376326906,-0.0001653341978582259,-5.151155916529519e-05
0.020903236588181426,-0.0001548113428670988,-5.159159555047652e-05
0.020599825196968992,-0.00014443557742081122,-5.16664072805485e-05
0.020279586160085152,-0.00013421572458154768,-5.173607010604909e-05
0.019944165469474726,-0.00012415978667415772,-5.180066398386302e-05
0.01959520561980951,-0.00011427494390183665,-5.186027266650702e-05
0.01923433318171505,-0.00010456755920145552,-5.191498329228285e-05
0.018863146653264044,-9.504318924271074e-05,-5.196488597939389e-05
0.018483204746291657,-8.570660139282181e-05,-5.201007342705277e-05
0.018096015266138285,-7.656179638971432e-05,-5.205064052649841e-05
0.017703024766475724,-6.761203638156081e-05,-5.208668398469123e-05
0.017305609183709745,-5.885987789401444e-05,-5.211830196326012e-05
0.016905065652374845,-5.030720918499329e-05,-5.2145593735029874e-05
0.01650260566236775,-4.1955291356307645e-05,-5.21686593601652e-05
0.016099349652650315,-3.380480252755312e-05,-5.218759938363617e-05
0.01569632306961791,-2.5855884346986065e-05,-5.2202514555354806e-05
0.015294453871877865,-1.810819011161212e-05,-5.221350557396946e-05
0.014894571439053279,-1.0560933783879332e-05,-5.222067285494333e-05
