frame_number,force
0,489.93402100019136
1,490.148820285267
2,490.36106062486476
3,490.56824044442294
4,490.7679707915568
5,490.95802641106087
6,491.13639079102086
7,491.3012937341344
8,491.45124056678435
9,491.5850326609102
10,491.70177938304874
11,491.80090187143486
12,491.88212922926516
13,491.9454878981434
14,491.9912851810248
15,492.02008804006726
16,492.0326982869186
17,492.0301251254143
18,492.0135558268258
19,491.98432519759723
20,491.9438844209011
21,491.8937697518881
22,491.83557138673535
23,491.7709026875883
24,491.70136998936135
25,491.62854347794877
26,491.5539299385122
27,491.4789483141537
28,491.4049089240466
29,491.3329969417892
30,491.26426045124
31,491.1996031814742
32,491.1397818888559
33,491.0854081940612
34,491.03695438915554
35,490.9947623633767
36,490.9590545442584
37,490.92994574894277
38,490.9074550621448
39,490.89151715359327
40,490.8819926813512
41,490.87867756500015
42,490.88131099617374
43,490.8895821365343
44,490.90313558635114
45,490.9215759175088
46,490.94447180753406
47,490.97136047701287
48,491.0017531146065
49,491.0351417161439
50,491.0710072933019
51,491.1088288594309
52,491.1480921937995
53,491.18829730852303
54,491.2289638169403
55,491.2696338533419
56,491.30987259939496
57,491.3492667559355
58,491.3874215245769
59,491.42395686461134
60,491.4585038895332
61,491.49070217863886
62,491.5201985219168
63,491.54664731127446
64,491.56971258416957
65,491.58907169023587
66,491.60442061520405
67,491.6154809987953
68,491.622008724502
69,491.62380367746033
70,491.6207199980989
71,491.6126760269795
72,491.59966314532005
73,491.5817527699435
74,491.5591008032058
75,491.53194894201897
76,491.5006225353349
77,491.4655251332286
78,491.42713029648394
79,491.38597142092675
80,491.3426302559287
81,491.2977246333937
82,491.2518958273829
83,491.205795933988
84,491.160075616763
85,491.1153724663603
86,491.07230007420634
87,491.0314377265373
88,490.99332043119216
89,490.9584288939391
90,490.92717915694345
91,490.89991190470585
92,490.87688183359944
93,490.8582478289868
94,490.8440648956446
95,490.8342788183076
96,490.8287244252631
97,490.8271281294026
98,490.8291151413639
99,490.8342213906861
100,490.8419097755244
101,490.85158995759605
102,490.8626406277465
103,490.87443304819664
104,490.8863546856966
105,490.8978317758409
106,490.9083496511236
107,490.91746971096194
108,490.9248421462503
109,490.9302139538869
110,490.9334322193631
111,490.9344429378419
112,490.9332857605627
113,490.93008509463306
114,490.92503807056335
115,490.9184000703954
116,490.9104687279248
117,490.9015674664747
118,490.89202964711836
119,490.88218426192645
120,490.87234388383274
121,490.86279530519147
122,490.85379296480187
123,490.8455549593917
124,490.838261265005
125,490.83205374125913
126,490.82703747051755
127,490.82328296685796
128,490.82082879583385
129,490.81968419740815
130,490.81983143259237
131,490.82122779081527
132,490.82380745161
133,490.8274835980818
134,490.83215123600337
135,490.83769103897913
136,490.8439742587333
137,490.8508684046519
138,490.85824312317624
139,490.8659756084285
140,490.8739549875764
141,490.882085380009
142,490.8902876430049
143,490.89850012184576
144,490.90667891182443
145,490.91479810024646
146,490.92285020221595
147,490.93084668818966
148,490.9388182805037
149,490.9468146392244
150,490.95490318216054
151,490.96316707716915
152,490.97170280006543
153,490.98061787529923
154,490.99002938038353
155,491.0000635267096
156,491.01085623731
157,491.02255424037173
158,491.03531591849344
159,491.0493111162826
160,491.06471931777753
161,491.08172594088194
162,491.10051681238645
163,491.12127108930525
164,491.14415295817855
165,491.16930242360525
166,491.1968254747909
167,491.2267839472554
168,491.25918548110974
169,491.2939741162013
170,491.3310222442331
171,491.37012477253785
172,491.41099630756463
173,491.4532718773887
174,491.4965112869339
175,491.54020684921113
176,491.5837940855106
177,491.6266649550852
178,491.6681830948729
179,491.70770037968504
180,491.7445739731736
181,491.7781830760297
182,491.8079448134481
183,491.8333290205247
184,491.853871930755
185,491.86918885782035
186,491.87898584819203
187,491.88306998960644
188,491.881357714868
189,491.87388024519703
190,491.8607853947217
191,491.8423352650978
192,491.81889977377733
193,491.7909463807246
194,491.7590267271868
195,491.72376109087816
196,491.68582156103577
197,491.6459147213631
198,491.6047645133674
199,491.5630958833462
200,491.5216197683827
201,491.48101989264217
202,491.4419416712955
203,491.4049832762922
204,491.37068872182203
205,491.339542772907
206,491.3119675279811
207,491.28832054482837
208,491.26889429438177
209,491.2539166133876
210,491.2435518334108
211,491.2379024158169
212,491.2370110653709
213,491.24086328756374
214,491.24939024771066
215,491.26247175439266
216,491.27993931889273
217,491.30157946545023
218,491.3271376238665
219,491.3563229016751
220,491.3888138046936
221,491.4242646709362
222,491.46231235981867
223,491.5025826921494
224,491.5446962756634
225,491.5882736306994
226,491.6329398601637
227,491.6783293440817
228,491.7240909541165
229,491.76989408561263
230,491.81543554354334
231,491.8604471029991
232,491.9047033314567
233,491.9480289228589
234,491.99030444668574
235,492.0314692665281
236,492.07152054927184
237,492.11050774218404
238,492.14852254721575
239,492.18568514232453
240,492.2221280135227
241,492.25797909097287
242,492.29334587374143
243,492.32830199297877
244,492.36287732444373
245,492.39705231610685
246,492.4307566280922
247,492.4638716132425
248,492.4962357936611
249,492.5276523961175
250,492.5578981085113
251,492.5867323638934
252,492.61390657868014
253,492.63917288641943
254,492.6622920356938
255,492.68304021843807
256,492.7012146127501
257,492.7166373949307
258,492.7291579975485
259,492.7386535289863
260,492.7450275211945
261,492.74820748071176
262,492.7481419776542
263,492.7447980990276
264,492.73815997095244
265,492.7282287769171
266,492.7150243664209
267,492.6985882505841
268,492.67898759111034
269,492.65631974597244
270,492.6307170101857
271,492.60235128675095
272,492.5714384396876
273,492.5382419697548
274,492.5030754381216
275,492.4663028566709
276,492.4283362481624
277,492.3896298755535
278,492.35067115671404
279,492.31196875220667
280,492.2740385204223
281,492.2373879886364
282,492.2024998991256
283,492.1698154542156
284,492.1397181187217
285,492.1125190791693
286,492.088445502856
287,492.0676324971881
288,492.0501192308932
289,492.03584924129194
290,492.0246746706209
291,492.0163640684293
292,492.01061339245587
293,492.00705986142293
294,492.0052982905752
295,492.0048993862957
296,492.00542915708405
297,492.00646824132946
298,492.00762978243597
299,492.0085746134918
300,492.00902283592507
301,492.00876118993506
302,492.0076458638059
303,492.00560067919037
304,492.00261098161707
305,491.9987139718504
306,491.99398649534675
307,491.98853139661634
308,491.9824634730797
309,491.97589591203564
310,491.96892794411946
311,491.9616343311901
312,491.9540571898779
313,491.9462004686052
314,491.93802716387313
315,491.9294592016185
316,491.9203798879761
317,491.91063886004554
318,491.900059405147
319,491.8884478328893
320,491.8756043643436
321,491.8613348739886
322,491.8454628361163
323,491.8278409176708
324,491.80836173453565
325,491.7869673532939
326,491.7636572177566
327,491.73849426845965
328,491.7116090101905
329,491.68320116060636
330,491.6535384064508
331,491.6229518566345
332,491.5918280695246
333,491.56059795303804
334,491.5297232122585
335,491.49968121417004
336,491.4709491333407
337,491.44398809966503
338,491.4192278772009
339,491.39705245679454
340,491.3777869141072
341,491.3616859523082
342,491.3489246353674
343,491.3395918615909
344,491.33368708938383
345,491.33112067157435
346,491.33171789023214
347,491.33522649691474
348,491.3413273580945
349,491.34964771424995
350,491.3597765175092
351,491.3712812357561
352,491.38372540857904
353,491.3966861786053
354,491.40977101490597
355,491.4226328607836
356,491.43498298533126
357,491.44660094004826
358,491.457341218574
359,491.4671364314686
360,491.475996972123
361,491.4840072386225
362,491.4913185338995
363,491.4981388838419
364,491.5047202405164
365,491.5113438082711
366,491.5183043892053
367,491.52589458015314
368,491.5343894133233
369,491.544031795506
370,491.555019020035
371,491.56749071774055
372,491.58151879633687
373,491.59710009147375
374,491.6141525097174
375,491.63251529862384
376,491.65195373225265
377,491.6721680285805
378,491.69280582655455
379,491.71347718229214
380,491.73377090590645
381,491.75327113394155
382,491.7715732102231
383,491.78829817061137
384,491.8031053950772
385,491.81570326684226
386,491.8258578646834
387,491.83339974737856
388,491.8382288277857
389,491.8403172989537
390,491.83971060418435
391,491.8365264805711
392,491.8309521223284
393,491.82323953916216
394,491.8136992298861
395,491.8026923023503
396,491.7906211269987
397,491.7779185638763
398,491.76503582065004
399,491.7524291158732
400,491.7405455293816
401,491.72980866030076
402,491.7206048655534
403,491.7132708305716
404,491.70808308307033
405,491.7052499324827
406,491.70490622617706
407,491.70711116709356
408,491.7118492159434
409,491.7190339070231
410,491.72851430387834
411,491.7400837562475
412,491.7534905254876
413,491.7684497273056
414,491.7846559479832
415,491.8017958482261
416,491.81956005643184
417,491.8376536597456
418,491.8558046676081
419,491.87376998542015
420,491.8913386691388
421,491.9083324875056
422,491.92460408090585
423,491.9400332497595
424,491.95452206205215
425,491.967989500856
426,491.9803663264184
427,491.99159073562197
428,492.0016052040549
429,492.01035457973825
430,492.01778520620894
431,492.0238447228358
432,492.02848217478
433,492.03164803117573
434,492.03329365707174
435,492.03336985915706
436,492.031824408854
437,492.02859882192814
438,492.02362495218057
439,492.0168220409255
440,492.0080947608266
441,491.9973325849988
442,491.9844106311778
443,491.96919204942844
444,491.9515319869121
445,491.93128308137676
446,491.90830227213024
447,491.88245850270425
448,491.85364069040935
449,491.82176522629686
450,491.78678229121516
451,491.7486804422095
452,491.70748918473436
453,491.66327948482376
454,491.61616233408046
455,491.56628561961014
456,491.51382972572543
457,491.4590024497862
458,491.4020338561374
459,491.3431715921818
460,491.2826770033688
461,491.2208221882983
462,491.15788796007257
463,491.09416248999224
464,491.02994019896937
465,490.9655203244729
466,490.9012046424443
467,490.8372940825903
468,490.7740843304363
469,490.71186078830704
470,490.6508933707076
471,490.59143157723634
472,490.5337002012143
473,490.47789593265395
474,490.4241850313991
475,490.37270220631564
476,490.32355079081606
477,490.2768041706192
478,490.2325081900468
479,490.1906840197453
480,490.15133082742085
481,490.114427648734
482,490.07993409342157
483,490.0477898066448
484,490.0179128304141
485,489.99019719701386
486,489.96451028394785
487,489.94069061406356
488,489.9185467777584
489,489.8978579489981
490,489.8783761661627
491,489.85983029401933
492,489.8419314291428
493,489.82437943535825
494,489.80687027039926
495,489.78910377583867
496,489.7707916527618
497,489.7516654389164
498,489.7314843900575
499,489.7100431826864
500,489.68717931048
501,489.6627800078563
502,489.63678851759823
503,489.6092094888789
504,489.580113224801
505,489.5496384170179
506,489.51799295998114
507,489.4854524635071
508,489.4523561669538
509,489.4191000835789
510,489.3861273988267
511,489.35391642437156
512,489.322966674642
513,489.2937837433219
514,489.2668635886248
515,489.2426767093449
516,489.2216526313962
517,489.20416512659057
518,489.19051858905357
519,489.1809359936329
520,489.1755488860892
521,489.1743898945247
522,489.1773882659057
523,489.18436889785977
524,489.1950552243722
525,489.2090760844468
526,489.2259763645281
527,489.2452308366559
528,489.2662603117764
529,489.2884490637262
530,489.31116248663244
531,489.33376411062414
532,489.35563136337174
533,489.3761697558581
534,489.3948254133413
535,489.41109601599055
536,489.4245402570644
537,489.4347858916438
538,489.4415363542888
539,489.44457580715033
540,489.4437724096478
541,489.4390796274353
542,489.43053550547495
543,489.41825994957793
544,489.4024501347745
545,489.3833741937369
546,489.3613633932095
547,489.336803116641
548,489.3101231061581
549,489.28178751418733
550,489.2522853330655
551,489.2221216955835
552,489.19181034522273
553,489.1618672446629
554,489.1328049122888
555,489.1051268231175
556,489.0793211789275
557,489.0558535059235
558,489.035157815462
559,489.01762643046686
560,489.0035989888486
561,488.99335149507255
562,488.98708649193645
563,488.9849254135225
564,488.98690402962745
565,488.99297173360526
566,489.00299528812457
567,489.01676740093336
568,489.0340200297304
569,489.05444166719457
570,489.0776972394843
571,489.10344884816857
572,489.1313754854524
573,489.16119005934735
574,489.1926524895051
575,489.22557812903517
576,489.2598412146023
577,489.2953733962238
578,489.3321576639336
579,489.3702182279214
580,489.4096071539658
581,489.4503887607917
582,489.49262287700844
583,489.53634802630194
584,489.5815655286961
585,489.6282254380866
586,489.67621518500613
587,489.72535170265724
588,489.7753776169216
589,489.8259617724766
590,489.87670403709075
591,489.92714407762526
592,489.9767736322771
593,490.02505163894483
594,490.07142141517244
595,490.1153289974993
596,490.15624176448904
597,490.1936665363875
598,490.2271664284437
599,490.2563758409326
600,490.28101309352667
601,490.3008903333264
602,490.3159204540956
603,490.32612086078063
604,490.33161400514706
605,490.33262472041207
606,490.32947451985876
607,490.3225732207904
608,490.3124084880221
609,490.2995340526811
610,490.2845573305911
611,490.2681269282566
612,490.25092019410437
613,490.23363068920946
614,490.21695532021994
615,490.20158093532353
616,490.1881703732906
617,490.17734815785997
618,490.1696861701751
619,490.16568971757187
620,490.16578448944244
621,490.1703049945963
622,490.1794852209261
623,490.19345235146375
624,490.21222424485177
625,490.23571100036156
626,490.2637204437555
627,490.29596699312845
628,490.33208315945427
629,490.37163287085536
630,490.4141258427836
631,490.4590323028244
632,490.50579747659594
633,490.5538553676701
634,490.6026415539062
635,490.6516049260672
636,490.70021841662026
637,490.74798877319733
638,490.7944653541307
639,490.8392478121241
640,490.88199243304496
641,490.9224168366932
642,490.9603027428468
643,490.9954965987757
644,491.0279080733356
645,491.0575066796649
646,491.08431698320334
647,491.1084129283778
648,491.1299117810942
649,491.14896806245116
650,491.1657676948877
651,491.18052246274436
652,491.19346482021103
653,491.2048430125069
654,491.2149163889753
655,491.2239507325875
656,491.2322134657468
657,491.23996870387975
658,491.2474722536911
659,491.2549667483288
660,491.2626771732928
661,491.2708070594513
662,491.2795355788047
663,491.289015674733
664,491.2993732319099
665,491.31070718277374
666,491.3230903695926
667,491.3365709277486
668,491.3511739282515
669,491.3669030313109
670,491.3837419613751
671,491.4016556880309
672,491.42059125254235
673,491.4404782092463
674,491.4612286625327
675,491.48273689657947
676,491.5048786603269
677,491.52751029188005
678,491.5504679845263
679,491.5735675670487
680,491.5966052154547
681,491.61935954014524
682,491.6415954453445
683,491.66306997995605
684,491.6835401102492
685,491.7027720250661
686,491.72055131342603
687,491.73669319532513
688,491.75105199233997
689,491.76352920344647
690,491.7740798222267
691,491.7827167432108
692,491.7895131383794
693,491.7946025778763
694,491.7981766035489
695,491.8004795649458
696,491.80180072371536
697,491.80246377514493
698,491.80281399441236
699,491.8032033055999
700,491.8039738146156
701,491.8054407122325
702,491.8078757584207
703,491.8114926412903
704,491.81643534430145
705,491.82277034314325
706,491.83048310065556
707,491.8394790026666
708,491.8495885788798
709,491.8605765623857
710,491.87215408310504
711,491.8839931227796
712,491.89574232810924
713,491.90704336510515
714,491.91754710603396
715,491.92692899491465
716,491.93490297455475
717,491.9412334609614
718,491.94574503012757
719,491.9483296573769
720,491.9489514216407
721,491.94764853269464
722,491.9445324448016
723,491.93978380125225
724,491.93364506563404
725,491.92640993519143
726,491.91840997520865
727,491.9099993121928
728,491.9015385855377
729,491.89337954610886
730,491.885851589143
731,491.8792511308052
732,491.8738342476041
733,491.8698125883806
734,491.8673523196655
735,491.8665757241161
736,491.86756495070074
737,491.870367309684
738,491.87500149885614
739,491.8814642720142
740,491.88973721036626
741,491.89979330109566
742,491.911602955189
743,491.92513901210395
744,491.9403802851759
745,491.9573133182779
746,491.97593219660524
747,491.99623642896864
748,492.0182270890248
749,492.0419015734926
750,492.06724747320646
751,492.0942361096686
752,492.1228162554421
753,492.15290845395646
754,492.1844002119612
755,492.21714218769984
756,492.250945372405
757,492.2855791983026
758,492.3207705294994
759,492.3562035650518
760,492.39152071399116
761,492.42632446576965
762,492.4601802751561
763,492.49262059808257
764,492.52315038200913
765,492.5512543499069
766,492.5764062422415
767,492.5980798900382
768,492.6157617058698
769,492.6289639537096
770,492.63723803488665
771,492.640187050837
772,492.63747706130505
773,492.6288466776374
774,492.61411484437446
775,492.59318682465704
776,492.5660584995899
777,492.53281913020703
778,492.4936527320194
779,492.4488381867495
780,492.39874817180385
781,492.3438469275166
782,492.2846867992056
783,492.22190339705213
784,492.1562091579586
785,492.08838510971077
786,492.01927070578176
787,491.9497516669697
788,491.880745851435
789,491.8131873463578
790,491.7480092000742
791,491.6861253307036
792,491.62841206467874
793,491.5756896042414
794,491.5287037046373
795,491.4881080104664
796,491.4544477158848
797,491.42814531599834
798,491.40948918654294
799,491.3986256505567
800,491.39555509873264
801,491.40013256050815
802,491.4120728247995
803,491.43095983002956
804,491.4562596888035
805,491.48733648155365
806,491.5234699031235
807,491.56387396231906
808,491.60771612077457
809,491.65413639568914
810,491.7022660048315
811,491.75124518408853
812,491.80023994511504
813,491.8484577086808
814,491.89516179054334
815,491.93968457005445
816,491.9814389512146
817,492.0199275736942
818,492.054749185609
819,492.0856016438455
820,492.1122811918358
821,492.1346779902001
822,492.1527682754969
823,492.1666038934572
824,492.1763001982066
825,492.18202335770576
826,492.18397797440355
827,492.18239572890104
828,492.1775255705662
829,492.1696257935767
830,492.15895810671105
831,492.1457835645914
832,492.13036003987696
833,492.11294078951454
834,492.09377359803784
835,492.07310000235003
836,492.05115423184105
837,492.02816165107805
838,492.0043365504509
839,491.97987909868186
840,491.95497129177534
841,491.9297719084157
842,491.9044107718207
843,491.8789829218811
844,491.8535435378301
845,491.82810453346036
846,491.8026335917707
847,491.77705603320254
848,491.7512594678526
849,491.725100844728
850,491.6984153806008
851,491.67102689384717
852,491.64275914296076
853,491.61344774689485
854,491.5829521400964
855,491.55116688739895
856,491.5180316547701
857,491.4835392382326
858,491.44774125440125
859,491.41075130517396
860,491.37274557624846
861,491.33396090910264
862,491.2946904458279
863,491.25527701945913
864,491.2161045231195
865,491.17758749162147
866,491.14015907865047
867,491.10425759063435
868,491.0703118177609
869,491.03872557926803
870,491.0098621168575
871,490.9840291861593
872,490.96146588377206
873,490.9423323270912
874,490.92670316962057
875,490.91456558030245
876,490.90582186769484
877,490.9002965194186
878,490.8977470999084
879,490.8978781987923
880,490.9003574339505
881,490.90483237884115
882,490.91094722405035
883,490.9183580463272
884,490.92674575139864
885,490.9358260054933
886,490.94535569220744
887,490.9551356197279
888,490.96500940862296
889,490.97485874126835
890,490.9845954238622
891,490.99415096314783
892,491.00346459264654
893,491.0124708905542
894,491.0210882390135
895,491.029209296373
896,491.03669439028096
