acceleration,velocity,displacement
-0.030417145561651142,0.0,0.0
-0.02892766781843705,-1.483620334502205e-05,-3.7090508362555123e-09
-0.027442378240672135,-2.8928714859799344e-05,-1.465028038746086e-08
-0.025965435955281932,-4.228066840878786e-05,-3.2452626204607663e-08
-0.024500942382294513,-5.4897262993181973e-05,-5.6747109055100125e-08
-0.02305291329981985,-6.678572691371057e-05,-8.716785653182327e-08
-0.021625251987450703,-7.795526823552821e-05,-1.2335310531913297e-07
-0.02022172375994431,-8.841701217237696e-05,-1.6494617542110926e-07
-0.018845932158083518,-9.818392615188392e-05,-2.1159641000217448e-07
-0.01750129701579837,-0.0001072707334453544,-2.6296007490148406e-07
-0.016191034579797113,-0.00011569381634425327,-3.1870121234888595e-07
-0.014918139822082534,-0.0001234711099447232,-3.784924439211301e-07
-0.013685371053985136,-0.0001306219876637401,-4.420157183232459e-07
-0.012495236917788326,-0.00013716713965668349,-5.089630001533518e-07
-0.01134998579654228,-0.00014312844533526613,-5.790368964013391e-07
-0.010251597649434953,-0.00014852884119676043,-6.519512180343457e-07
-0.009201778256061253,-0.00015339218517313447,-7.274314746268195e-07
-0.008201955837670328,-0.00015774311869656737,-8.052153005942449e-07
-0.007253280009891401,-0.0001616069276584578,-8.850528121830012e-07
-0.006356623004753522,-0.000165009403412119,-9.667068949506454e-07
-0.005512583081640847,-0.0001679767049337176,-1.0499534220371046e-06
-0.004721490031119238,-0.00017053522321190762,-1.134581404073511e-06
-0.003983412664677282,-0.00017271144888585674,-1.220393072097952e-06
-0.00329816817293382,-0.00017453184409525952,-1.307203895343231e-06
-0.0026653332153878007,-0.00017602271944233992,-1.394842536227631e-06
-0.0020842565741937403,-0.0001772101168897353,-1.4831507453106497e-06
-0.0015540731732783034,-0.00017811969932660332,-1.5719831993647344e-06
-0.0010737192450865332,-0.00017877664743119452,-1.6612072860541839e-06
-0.0006419484241951797,-0.00017920556434851496,-1.7507028389991113e-06
-0.0002573485556369103,-0.00017943038859347297,-1.8403618272346083e-06
8.164098132208068e-05,-0.00017947431548705168,-1.9300880032547394e-06
0.00037671162217972143,-0.00017935972733617623,-2.0197965139605465e-06
0.0006296678189121273,-0.00017910813247590327,-2.109413478913566e-06
0.0008424092624381936,-0.0001787401132055657,-2.1988755403339334e-06
0.0010169132722083073,-0.0001782752825719041,-2.288129389278301e-06
0.0011552174714985917,-0.00017773224988597736,-2.3771312723927713e-06
0.0012594028443954873,-0.00017712859480700384,-2.4658464835660166e-06
0.0013315772612307454,-0.00017648084978059728,-2.554248844712917e-06
0.0013738595619988744,-0.00017580449057478988,-2.642320179801764e-06
0.0013883642934547703,-0.00017511393461092648,-2.730049786098193e-06
0.001377187197010993,-0.00017442254673831004,-2.817433906435502e-06
0.0013423915396649244,-0.00017374265205414107,-2.9044752061336147e-06
0.0012859953714117792,-0.0001730855553263719,-2.991182257978743e-06
0.0012099597834972573,-0.00017246156653764462,-3.077569038444747e-06
0.0011161782354596399,-0.0001718800320329054,-3.1636544380873846e-06
0.0010064670171796633,-0.00017134937071974557,-3.2494617887755475e-06
0.0008825569123039969,-0.00017087711473737465,-3.3350184101398277e-06
0.0007460861253778744,-0.0001704699539779542,-3.42035517731866e-06
0.0005985945203797317,-0.00017013378381651478,-3.505506111767277e-06
0.00044151919005473847,-0.00016987375538890615,-3.5905079965686322e-06
0.0002761913351457855,-0.00016969432775760601,-3.6754000173552604e-06
0.0001038343884473329,-0.00016959932132670774,-3.7602234296263387e-06
-7.443671631028022e-05,-0.00016959197190867347,-3.845021252935184e-06
-0.0002576152451905319,-0.00016967498489904866,-3.929837992137114e-06
-0.00044480144142052837,-0.00016985058907070143,-4.0147193856295515e-06
-0.0006352004675691127,-0.00017012058954794885,-4.099712180284214e-06
-0.000828119583441118,-0.00017048641956070141,-4.1848639325613766e-06
-0.0010229646195293435,-0.00017094919061144402,-4.270222835104413e-06
-0.0012192357970189488,-0.0001715097407155811,-4.355837567936169e-06
-0.0014165229369595472,-0.00017216868039907573,-4.441757173214833e-06
-0.0016145000977573231,-0.00017292643615775494,-4.5280309523540404e-06
-0.0018129196867000597,-0.00017378329110386928,-4.614708384169446e-06
-0.002011606106743199,-0.00017473942255223009,-4.701839062583471e-06
-0.0022104490171123404,-0.00017579493633319398,-4.789472652304827e-06
-0.0024093962968105695,-0.0001769498976616747,-4.877658860803544e-06
-0.002608446799486989,-0.0001782043584357491,-4.9664474248279e-06
-0.002807642980790725,-0.00017955838088081852,-5.055888109657042e-06
-0.0030070634747824277,-0.0001810120574947118,-5.146030719250925e-06
-0.003206815700302877,-0.00018256552728848312,-5.236925115446724e-06
-0.0034070285891340617,-0.00018421898836084235,-5.328621244359055e-06
-0.003607845537405436,-0.0001859727068924772,-5.4211691681723854e-06
-0.0038094176827441917,-0.0001878270226975146,-5.514619100569884e-06
-0.004011897601987936,-0.00018978235151869763,-5.6090214441239365e-06
-0.0042154335136248885,-0.00019183918429760085,-5.704426828078011e-06
-0.004420164059066918,-0.00019399808369077382,-5.8008861450751046e-06
-0.004626213723098489,-0.00019625967813631517,-5.898450585531877e-06
-0.0048336889293542915,-0.00019862465379942836,-5.997171668515813e-06
-0.0050426748123493835,-0.00020109374473485428,-6.097101268149383e-06
-0.005253232635189085,-0.0002036677215967389,-6.1982916347322815e-06
-0.005465397804355777,-0.0002063473792066251,-6.3007954099331225e-06
-0.005679178431120277,-0.0002091335232654941,-6.404665635551152e-06
-0.005894554393002572,-0.00021202695647152482,-6.509955755485407e-06
-0.006111476849356845,-0.00021502846428211468,-6.616719610673817e-06
-0.006329868162446166,-0.00021813880053506545,-6.725011426878112e-06
-0.006549622174248947,-0.00022135867311923922,-6.834885795291688e-06
-0.006770604792004375,-0.00022468872986080256,-6.946397646036699e-06
-0.00699265484207255,-0.00022812954476932179,-7.05960221469423e-06
-0.007215585161699516,-0.0002316816047702648,-7.174555002079126e-06
-0.007439183909122358,-0.0002353452970379703,-7.291311727531185e-06
-0.007663216078128496,-0.000239120897034783,-7.409928276049373e-06
-0.00788742519823506,-0.00024300855735387387,-7.530460639646537e-06
-0.008111535185697653,-0.00024700829744985707,-7.65296485334747e-06
-0.008335252289300049,-0.0002511199943186065,-7.777496926289587e-06
-0.008558267056771861,-0.00025534337415512447,-7.90411276840802e-06
-0.008780256238618793,-0.00025967800497897215,-8.032868113191543e-06
-0.009000884547639813,-0.0002641232901755368,-8.163818436980171e-06
-0.00921980620207855,-0.0002686784628629664,-8.297018875239798e-06
-0.0094366661959055,-0.0002733425809624624,-8.432524136196156e-06
-0.009651101260119546,-0.0002781145228264687,-8.570388412143388e-06
-0.009862740503979887,-0.00028299298326749355,-8.710665288666879e-06
-0.010071205753453612,-0.0002879764698318519,-8.853407651941715e-06
-0.010276111631547983,-0.0002930632991781023,-8.998667594194204e-06
-0.010477065445659848,-0.00029825159344740426,-9.14649631735058e-06
-0.010673666957042593,-0.00030353927654807987,-9.296944034849452e-06
-0.01086550810944943,-0.00030892407031470287,-9.450059871565148e-06
-0.01105217279442823,-0.0003144034905406723,-9.605891761778992e-06
-0.011233236732842227,-0.00031997484292248994,-9.764486345144784e-06
-0.011408267550519586,-0.00032563521899333037,-9.925888860623738e-06
-0.011576825112662755,-0.00033138149215912596,-1.0090143038411853e-05
-0.011738462156733881,-0.00033721031397647514,-1.0257290989945752e-05
-0.011892725236943055,-0.00034311811082489435,-1.0427373096146096e-05
-0.01203915597553643,-0.00034910108112801424,-1.0600427894134323e-05
-0.012177292608113663,-0.00035515519327392677,-1.0776491962734808e-05
-0.01230667180653134,-0.000361276184377588,-1.0955599807147687e-05
-0.012426830756193228,-0.00036745956001826916,-1.1137783743246651e-05
-0.01253730945227403,-0.00037370059507038596,-1.1323073782018814e-05
-0.012637653164570682,-0.00037999433572459714,-1.151149751471756e-05
-0.01272741500960554,-0.0003863356027681412,-1.1703079999340744e-05
-0.012806158566201525,-0.00039271899616209294,-1.1897843649073303e-05
-0.012873460477011397,-0.0003991389009228962,-1.209580812334455e-05
-0.012928912989831023,-0.0004055894942896068,-1.2296990222147676e-05
-0.012972126407349568,-0.00041206475413890195,-1.2501403784254802e-05
-0.013002731432014672,-0.000418558468598743,-1.2709059589939213e-05
-0.01302038140920099,-0.0004250642468090469,-1.291996526879116e-05
-0.013024754480591389,-0.000431575530781495,-1.3134125213188796e-05
-0.01301555566159202,-0.00043808560831704084,-1.335154049796343e-05
-0.012992518856776072,-0.0004445876269466329,-1.3572208806779348e-05
-0.012955408827448582,-0.00045107460886768905,-1.3796124365732928e-05
-0.012904023124349044,-0.0004575394668556385,-1.402327788466376e-05
-0.012838193994858383,-0.00046397502113544034,-1.425365650666153e-05
-0.012757790265993565,-0.0004703740172006533,-1.4487243766245552e-05
-0.012662719191264663,-0.00047672914456496786,-1.4724019556686957e-05
-0.012552928234059442,-0.0004830330564212989,-1.4963960106933524e-05
-0.012428406747991299,-0.0004892783901668116,-1.5207037968580552e-05
-0.012289187511227592,-0.0004954577887316163,-1.545322201330516e-05
-0.012135348079793239,-0.0005015639226293715,-1.5702477441145406e-05
-0.011967011941695124,-0.0005075895126347436,-1.5954765799961435e-05
-0.011784349473682745,-0.0005135273529885881,-1.6210045016367267e-05
-0.01158757871897657,-0.0005193703350367529,-1.6468269438373602e-05
-0.011376966010431745,-0.000525111471219105,-1.6729389889937568e-05
-0.011152826457263216,-0.0005307439193360287,-1.6993353737576352e-05
-0.010915524298720369,-0.0005362610070250246,-1.7260104969166616e-05
-0.010665473109844927,-0.0005416562563771659,-1.7529584285017163e-05
-0.010403135826874693,-0.0005469234086113458,-1.780172920126429e-05
-0.010129024549167238,-0.0005520564487053563,-1.8076474165593465e-05
-0.0098437000775211,-0.0005570496298620283,-1.8353750685235313e-05
-0.009547771164594742,-0.0005618974976725572,-1.863348746711896e-05
-0.009241893472771252,-0.0005665949138318987,-1.8915610569995073e-05
-0.008926768248921491,-0.000571137079262322,-1.9200043568268628e-05
-0.008603140729968687,-0.0005755195565070445,-1.948670772721097e-05
-0.008271798287082346,-0.0005797382912613073,-1.9775522189153056e-05
-0.007933568300370644,-0.0005837896329081706,-2.0066404170195427e-05
-0.0075893157364560525,-0.0005876703539173773,-2.0359269166901813e-05
-0.007239940389847742,-0.0005913776679489532,-2.0654031172368397e-05
-0.006886373753125985,-0.0005949092464846967,-2.0950602900976807e-05
-0.00652957549908216,-0.0005982632337977488,-2.124889602104742e-05
-0.006170529583607942,-0.0006014382600684213,-2.154882139451396e-05
-0.00581024000448177,-0.0006044334524654437,-2.1850289322647426e-05
-0.005449726270531852,-0.0006072484440341971,-2.2153209796772338e-05
-0.005090018640755137,-0.0006098833802620189,-2.245749275284639e-05
-0.004732153183649456,-0.00061233892321812,-2.2763048328716428e-05
-0.004377166690305954,-0.0006146162531866088,-2.306978712281761e-05
-0.004026091459301662,-0.0006167170677240108,-2.3377620453045265e-05
-0.0036799499628813047,-0.0006186435780795565,-2.3686460614496157e-05
-0.0033397494034204736,-0.000620398502921132,-2.399622113474633e-05
-0.003006476173875622,-0.000621985059315456,-2.4306817025305478e-05
-0.002681090240641979,-0.0006234069509190854,-2.4618165027864113e-05
-0.0023645194689413114,-0.0006246683533464812,-2.4930183853930503e-05
-0.0020576539090709674,-0.0006257738966909843,-2.524279441643987e-05
-0.0017613400566092504,-0.0006267286451824044,-2.5555920051908217e-05
-0.0014763750917965055,-0.0006275380739695058,-2.5869486731696193e-05
-0.0012035010977481282,-0.000628208043016892,-2.618342326094279e-05
-0.0009433992620233556,-0.0006287447681068348,-2.6497661463723724e-05
-0.0006966840848090803,-0.0006291547889435429,-2.681213635298632e-05
-0.0004638976434017245,-0.0006294449343755956,-2.7126786283816103e-05
-0.0002455039840028127,-0.0006296222847824468,-2.7441553088605613e-05
-4.1883720727075845e-05,-0.0006296941317086292,-2.7756382192728383e-05
0.00014667107709350058,-0.0006296679348695376,-2.8071222709372926e-05
0.00031996162485862394,-0.0006295512766940495,-2.838602751226382e-05
0.0004778866974807776,-0.0006293518146134647,-2.87007532850907e-05
0.0006204463411675553,-0.0006290772313538026,-2.9015360546582518e-05
0.0007477449300725874,-0.0006287351835359926,-2.932981365030497e-05
0.0008599934940115795,-0.0006283332489299715,-2.964408075842146e-05
0.0009575112672257064,-0.0006278788727396621,-2.995813378883887e-05
0.0010407264284860204,-0.0006273793133157342,-3.027194833535272e-05
0.0011101760141155193,-0.0006268415877050839,-3.0585503560607925e-05
0.0011665049856269276,-0.0006262724174551482,-3.0898782061897983e-05
0.0012104644235486036,-0.0006256781751028544,-3.1211769710037484e-05
0.0012429088060498482,-0.0006250648317954547,-3.152445546176206e-05
0.0012647923272699835,-0.0006244379065121247,-3.183683114633895e-05
0.0012771642228604184,-0.0006238024173745922,-3.214889122731063e-05
0.0012811630965002525,-0.000623162835544752,-3.2460632540540465e-05
0.0012780102737002773,-0.0006225230422022018,-3.2772054009977206e-05
0.0012690022420527606,-0.0006218862890732636,-3.308315634279607e-05
0.001255502265206764,-0.0006212551629464487,-3.3393941705801e-05
0.0012389312762562119,-0.0006206315545610829,-3.370441338517788e-05
0.0012207581627067968,-0.0006200166322013421,-3.401457543186849e-05
0.0012024895542857594,-0.000619410820272094,-3.4324432294986854e-05
0.0011856592232700645,-0.0006188137830777051,-3.463398844582431e-05
0.0011718172073942805,-0.000618224413970039,-3.4943247995086246e-05
0.0011625187662288939,-0.0006176408299766332,-3.5252214306072915e-05
0.0011593132797991343,-0.0006170603719651262,-3.556088960655835e-05
0.001163733189788446,-0.0006164796103477294,-3.586927460213657e-05
0.0011772830703,-0.0006158943562827072,-3.617736809379418e-05
0.001201428903621572,-0.0006152996782892268,-3.648516660243716e-05
0.0012375876324564718,-0.0006146899241552073,-3.679266400304827e-05
0.0012871170613018416,-0.0006140587479817677,-3.709985117108251e-05
0.0013513061782486537,-0.0006133991421718801,-3.740671564362092e-05
0.0014313659602447147,-0.0006127034741372567,-3.771324129769821e-05
0.0015284207141247536,-0.0006119635274686643,-3.8019408048099687e-05
0.0016435000014964445,-0.000611170547289759,-3.832519156678929e-05
0.001777531199356412,-0.0006103152894895459,-3.863056302598412e-05
0.0019313327510266242,-0.0006093880735019502,-3.8935488866731993e-05
0.002105608155397907,-0.000608378838275344,-3.923993059467632e-05
0.002300940729547014,-0.0006072772010541077,-3.9543844604508684e-05
0.0025177891708639795,-0.000606072518579005,-3.9847182034416966e-05
0.002756483945460745,-0.0006047539502999238,-4.01498886516367e-05
0.003017224535763719,-0.0006033105231796177,-4.0451904770006586e-05
0.0033000775822977094,-0.0006017311976501023,-4.075316520021402e-05
0.003604975945564204,-0.0006000049342681368,-4.105359923319358e-05
0.003931718693316244,-0.0005981207606084167,-4.1353130656912714e-05
0.004279971993695699,-0.0005960678379366637,-4.1651677806548984e-05
0.0046492708749240495,-0.0005938355272195087,-4.1949153647838025e-05
0.005039021803166209,-0.0005914134540499861,-4.22454658931554e-05
0.005448506032611702,-0.0005887915720910416,-4.2540517149690654e-05
0.005876883692849705,-0.0005859602246596762,-4.2834205098878334e-05
0.006323198593127842,-0.0005829102040881819,-4.31264227060653e-05
0.006786383732504468,-0.0005796328085067737,-4.341705845921404e-05
0.007265267501570595,-0.000576119895698255,-4.37059966352653e-05
0.007758580546090725,-0.0005723639336863396,-4.399311759261145e-05
0.008264963244175312,-0.0005683580477387731,-4.4278298087967726e-05
0.008782973733166333,-0.0005640960634944377,-4.456141161577603e-05
0.009311096406316697,-0.000559572545959567,-4.484232876813953e-05
0.00984775077762699,-0.0005547828341635811,-4.512091761317032e-05
0.010391300591298577,-0.0005497230713213497,-4.539704408954155e-05
0.010940063042601651,-0.0005443902304128746,-4.567057241497511e-05
0.011492317986355138,-0.0005387821351556354,-4.594136550636724e-05
0.012046317036209914,-0.0005328974763999942,-4.620928540925614e-05
0.01260029249684306,-0.0005267358240167309,-4.6474193734360324e-05
0.013152466114512401,-0.000520297634363892,-4.673595209895548e-05
0.013701057668633722,-0.0005135842534181055,-4.699442257090098e-05
0.014244293447734615,-0.0005065979156390134,-4.7249468113165256e-05
0.014780414653896842,-0.0004993417386136055,-4.750095302672841e-05
0.015307685767417777,-0.0004918197135082769,-4.774874338975888e-05
0.01582440288500495,-0.0004840366913451712,-4.7992707490972244e-05
0.016328902020390876,-0.0004759983651188222,-4.823271625508824e-05
0.016819567324552087,-0.0004677112477825865,-4.8468643658313596e-05
0.017294839151358987,-0.0004591826461636087,-4.8700367131800145e-05
0.017753221874775318,-0.00045042063090707516,-4.8927767951067817e-05
0.018193291361008678,-0.00044143400259812917,-4.915073160944412e-05
0.018613702007792155,-0.000432232254255929,-4.936914817365763e-05
0.019013193274698262,-0.0004228255304353064,-4.958291261983044e-05
0.019390595638833004,-0.0004132245832069236,-4.9791925148241e-05
0.019744835920578734,-0.00040344072531707065,-4.9996091475371996e-05
0.020074941935408964,-0.0003934857808530737,-5.019532310191453e-05
0.020380046437451872,-0.0003833720337598585,-5.038953755556776e-05
0.020659390325699783,-0.0003731121745690706,-5.0578658607649994e-05
0.020912325086303557,-0.0003627192457160698,-5.0762616462721276e-05
0.02113831445007544,-0.00035220658583197503,-5.094134792060829e-05
0.021336935257118172,-0.0003415877734051766,-5.111479651041758e-05
0.02150787754006879,-0.0003308765702058799,-5.128291259632034e-05
0.021650943860380165,-0.00032008686485576765,-5.144565345508575e-05
0.021766047952228435,-0.0003092326169026155,-5.160298332552535e-05
0.021853212738755554,-0.00029832780172986954,-5.175487343018347e-05
0.02191256778276809,-0.00028738635659948864,-5.190130196976581e-05
0.021944346222141455,-0.00027642212809826124,-5.204225409094025e-05
0.021948881224820162,-0.00026544882123652084,-5.217772182827395e-05
0.02192660198489193,-0.0002544799504340928,-5.2307704021191604e-05
0.021878029273984644,-0.00024352879261937366,-5.243220620695497e-05
0.021803770563428738,-0.00023260834266002032,-5.2551240490774815e-05
0.021704514740588366,-0.00022173127133401604,-5.2664825394273325e-05
0.02158102645165477,-0.00021090988603595525,-5.277298568361582e-05
0.02143414010692352,-0.00020015609439631067,-5.2875752178723886e-05
0.02126475358031473,-0.00018948137097450112,-5.2973161545066585e-05
0.021073821624011446,-0.00017889672717341957,-5.3065256069603565e-05
0.02086234900820008,-0.0001684126845153667,-5.315208342252576e-05
0.020631383395838816,-0.00015803925141435698,-5.323369640650819e-05
0.02038200798029953,-0.0001477859035703224,-5.331015269525436e-05
0.020115333944104453,-0.0001376615680892214,-5.3381514563169244e-05
0.019832492824213996,-0.0001276746113971418,-5.344784860804084e-05
0.019534628880131924,-0.00011783283097105532,-5.3509225468632885e-05
0.019222891556399998,-0.00010814345086192234,-5.356571953909113e-05
0.01889842812319565,-9.861312094202343e-05,-5.361740868204212e-05
0.018562376579534787,-8.924791976634082e-05,-5.366437394221921e-05
0.018215858913884497,-8.0053360892986e-05,-5.3706699262384043e-05
0.017859974827257923,-7.10344024577004e-05,-5.374447120322172e-05
0.017495796021969736,-6.219545974539349e-05,-5.377777866877249e-05
0.01712436114007785,-5.354042045488159e-05,-5.380671263882256e-05
0.016746671404348726,-4.507266231877494e-05,-5.383136590951597e-05
0.016363686983368146,-3.6795072721845726e-05,-5.3851832843276125e-05
0.015976324080282434,-2.8710069955933083e-05,-5.386820912894557e-05
0.015585452732901019,-2.081962575263722e-05,-5.388059155287271e-05
