frame_number,force
0,489.9340210102488
1,490.0119833217996
2,490.08970722246954
3,490.1669560631285
4,490.24349669478556
5,490.31910116067473
6,490.39354832028573
7,490.4666253857272
8,490.5381293537145
9,490.6078683195584
10,490.6756626622873
11,490.74134609233715
12,490.8047665552704
13,490.86578698706467
14,490.9242859187712
15,490.98015793046545
16,491.03331395592386
17,491.0836814404022
18,491.1312043547262
19,491.175843069935
20,491.2175740978494
21,491.2563897039047
22,491.29229739923977
23,491.32531931966633
24,491.35549150035627
25,491.3828630570221
26,491.4074952863425
27,491.42946069957543
28,491.448842003452
29,491.4657310418457
30,491.4802277108316
31,491.4924388589977
32,491.5024771842959
33,491.5104601379192
34,491.51650884425436
35,491.52074704413326
36,491.5233000671144
37,491.52429383791497
38,491.5238539222814
39,491.5221046179783
40,491.5191680966677
41,491.5151636021291
42,491.5102067097084
43,491.5044086512968
44,491.4978757097382
45,491.49070868646146
46,491.48300244616445
47,491.4748455421331
48,491.466319924851
49,491.4575007347402
50,491.4484561772815
51,491.43924747592075
52,491.42992889592983
53,491.4205478314845
54,491.411144948734
55,491.4017543788996
56,491.39240395659664
57,491.38311549932854
58,491.373905124711
59,491.36478360256353
60,491.3557567392685
61,491.34682579140167
62,491.3379879046655
63,491.32923657305906
64,491.3205621125684
65,491.3119521437274
66,491.30339207790695
67,491.2948656025087
68,491.28635515998525
69,491.2778424149184
70,491.2693087027822
71,491.2607354539666
72,491.2521045871542
73,491.2433988668472
74,491.234602220508
75,491.2257000116784
76,491.2166792670444
77,491.207528857648
78,491.19823963655415
79,491.18880453643874
80,491.17921863067977
81,491.16947916127583
82,491.159585536874
83,491.1495393043548
84,491.1393440974876
85,491.1290055659812
86,491.1185312878137
87,491.1079306670633
88,491.09721481874357
89,491.0863964417622
90,491.0754896814264
91,491.06450998394195
92,491.053473946714
93,491.0423991694184
94,491.0313041113814
95,491.0202079606936
96,491.0091305198309
97,490.99809211152933
98,490.9871135073147
99,490.9762158794399
100,490.96542077512447
101,490.9547501101868
102,490.94422617781265
103,490.93387166753973
104,490.92370968939116
105,490.9137637980456
106,490.9040580117821
107,490.89461682102933
108,490.8854651821949
109,490.87662849406075
110,490.86813255573975
111,490.8600035063477
112,490.8522677470481
113,490.8449518463601
114,490.8380824300456
115,490.83168605768077
116,490.8257890889815
117,490.8204175436599
118,490.81559695874677
119,490.81135224690047
120,490.8077075584872
121,490.8046861492514
122,490.8023102542253
123,490.8006009674569
124,490.79957812656954
125,490.7992602010488
126,490.7996641831465
127,490.80080548029196
128,490.80269780797994
129,490.8053530823515
130,490.80878131221993
131,490.8129904911616
132,490.81798649130803
133,490.82377296128607
134,490.83035123098483
135,490.8377202253271
136,490.8458763881457
137,490.8548136159798
138,490.86452320055196
139,490.8749937783046
140,490.88621128580434
141,490.8981589208026
142,490.91081710994
143,490.9241634852476
144,490.93817287230996
145,490.9528172927784
146,490.96806598291136
147,490.9838854285616
148,491.00023941613154
149,491.0170890987433
150,491.0343930772822
151,491.0521074970267
152,491.0701861618594
153,491.0885806688119
154,491.1072405654446
155,491.1261135313933
156,491.14514558376294
157,491.16428130434
158,491.18346408534916
159,491.2026363901542
160,491.2217400259148
161,491.24071642630054
162,491.2595069433725
163,491.2780531483
164,491.2962971406098
165,491.31418186535865
166,491.3316514373033
167,491.3486514710297
168,491.36512941610886
169,491.38103489667697
170,491.3963200553396
171,491.41093990164484
172,491.42485266504264
173,491.43802015100886
174,491.45040809728073
175,491.46198652574276
176,491.4727300849046
177,491.48261837781206
178,491.49163626999234
179,491.49977417149347
180,491.5070282866988
181,491.51340082594595
182,491.5189001741422
183,491.52354101309123
184,491.52734439553876
185,491.5303377696522
186,491.53255495263215
187,491.5340360514672
188,491.5348273279794
189,491.53498100504135
190,491.53455501163916
191,491.5336126661423
192,491.53222229923784
193,491.5304568200961
194,491.5283932311489
195,491.5261120980394
196,491.52369698170895
197,491.52123383951636
198,491.5188104021685
199,491.5165155332589
200,491.51443857825706
201,491.51266870964923
202,491.5112942743807
203,491.51040214888246
204,491.5100771062168
205,491.5104011996227
206,491.5114531668268
207,491.51330785940587
208,491.5160357009613
209,491.5197021771833
210,491.5243673606219
211,491.5300854732467
212,491.5369044900758
213,491.54486578674283
214,491.5540038330547
215,491.56434593403867
216,491.5759120200414
217,491.5887144878696
218,491.60275809512683
219,491.6180399093349
220,491.63454931212044
221,491.65226805716264
222,491.6711703793395
223,491.6912231519531
224,491.712386089097
225,491.73461199097994
226,491.75784703098935
227,491.78203108391415
228,491.80709809456465
229,491.83297648504873
230,491.8595895977752
231,491.8868561702705
232,491.91469083687394
233,491.94300465098064
234,491.9717056200994
235,492.0006992453769
236,492.02988905786714
237,492.0591771455894
238,492.08846466795933
239,492.11765235700045
240,492.14664100717044
241,492.1753319569825
242,492.2036275656526
243,492.23143168719827
244,492.25865014321477
245,492.2851911939566
246,492.3109660052912
247,492.335889107035
248,492.35987883689774
249,492.38285776406553
250,492.404753087011
251,492.425497000862
252,492.445027030323
253,492.4632863247952
254,492.48022391305494
255,492.4957949154608
256,492.5099607119729
257,492.52268906440895
258,492.5339541917108
259,492.5437367977998
260,492.55202405284524
261,492.5588095302401
262,492.5640931028612
263,492.56788080282473
264,492.570184648759
265,492.57102244381474
266,492.57041754661816
267,492.5683986164748
268,492.5649993336413
269,492.5602580955427
270,492.554217690308
271,492.54692494955873
272,492.53843038261095
273,492.52878779396167
274,492.51805388520626
275,492.5062878418177
276,492.4935509052029
277,492.4799059316068
278,492.465416941408
279,492.4501486641086
280,492.43416608502474
281,492.41753399937664
282,492.40031657896736
283,492.38257695669006
284,492.3643768347785
285,492.3457761233876
286,492.32683261597424
287,492.3076017067084
288,492.28813615313
289,492.2684858852436
290,492.2486978608184
291,492.2288159659078
292,492.20888095924255
293,492.1889304589012
294,492.1689989692519
295,492.1491179452582
296,492.1293158897268
297,492.109618477434
298,492.09004869917794
299,492.07062701910314
300,492.0513715397077
301,492.0322981700017
302,492.01342079312803
303,491.9947514307833
304,491.9763004032278
305,491.9580764852052
306,491.9400870591699
307,491.9223382675784
308,491.9048351657597
309,491.8875818763554
310,491.87058174581597
311,491.85383750309126
312,491.83735142031304
313,491.8211254746877
314,491.8051615100638
315,491.7894613961796
316,491.77402718367864
317,491.7588612532661
318,491.7439664573312
319,491.72934625185076
320,491.7150048157537
321,491.70094715464836
322,491.68717918610025
323,491.67370780422624
324,491.6605409218927
325,491.6476874892841
326,491.6351574882132
327,491.62296190210566
328,491.6111126617557
329,491.59962256667603
330,491.58850518163797
331,491.57777470840546
332,491.5674458339213
333,491.55753355794843
334,491.5480530047127
335,491.53901922391003
336,491.53044698645317
337,491.52235057978686
338,491.5147436068337
339,491.50763879201224
340,491.5010477975632
341,491.49498105357026
342,491.48944760526075
343,491.4844549811819
344,491.48000908552797
345,491.476114117104
346,491.47277251619005
347,491.4699849392575
348,491.46775026048806
349,491.46606559848766
350,491.46492636621565
351,491.46432634166206
352,491.4642577562269
353,491.4647113973503
354,491.4656767217645
355,491.4671419756634
356,491.469094318151
357,491.47151994469965
358,491.4744042080273
359,491.47773173456096
360,491.48148653523657
361,491.4856521096881
362,491.4902115430758
363,491.4951475952379
364,491.5004427827171
365,491.50607945525576
366,491.51203986896434
367,491.51830625812335
368,491.5248609066594
369,491.53168621942785
370,491.53876479313266
371,491.54607948708093
372,491.55361349469274
373,491.5613504173755
374,491.56927434261814
375,491.5773699276338
376,491.58562248858294
377,491.5940180936439
378,491.602543656378
379,491.61118702449596
380,491.61993705870026
381,491.6287836966714
382,491.6377179980874
383,491.64673216757063
384,491.6558195536541
385,491.6649746231059
386,491.6741929108598
387,491.68347094613233
388,491.6928061552777
389,491.7021967420136
390,491.7116415459809
391,491.7211398809594
392,491.73069135433417
393,491.7402956697156
394,491.7499524149714
395,491.7596608381359
396,491.76941961363497
397,491.77922660119987
398,491.78907860000254
399,491.7989711010557
400,491.80889804175195
401,491.8188515673344
402,491.8288218046452
403,491.8387966533497
404,491.8487615991925
405,491.8586995532206
406,491.86859072039914
407,491.8784125003035
408,491.8881394215134
409,491.89774311036683
410,491.9071922941022
411,491.91645283792053
412,491.92548781488335
413,491.93425760684886
414,491.9427200340367
415,491.9508305103941
416,491.95854222164076
417,491.96580632265864
418,491.97257215091906
419,491.97878745305337
420,491.98439862237285
421,491.9893509459443
422,491.99358886067097
423,491.9970562186179
424,491.9996965622893
425,492.00145341056776
426,492.00227055574874
427,492.00209237166354
428,492.0008641320577
429,491.99853233712247
430,491.9950450449208
431,491.990352203933
432,491.98440598288886
433,491.97716109393764
434,491.9685751050378
435,491.9586087377834
436,491.94722614804044
437,491.93439518829734
438,491.9200876517988
439,491.9042794989673
440,491.8869510663403
441,491.868087257587
442,491.84767771561917
443,491.82571697466096
444,491.8022045911806
445,491.7771452524625
446,491.75054886116266
447,491.7224305935729
448,491.6928109287656
449,491.661715645583
450,491.62917578474725
451,491.5952275742493
452,491.55991231741336
453,491.52327624418507
454,491.48537032702967
455,491.44625006358643
456,491.40597522910974
457,491.3646096025291
458,491.32222067030966
459,491.27887931208073
460,491.23465947143154
461,491.18963781465715
462,491.1438933796736
463,491.0975072166827
464,491.0505620214215
465,491.00314176134697
466,490.9553312953238
467,490.90721598837905
468,490.8588813244277
469,490.81041252089324
470,490.76189414946884
471,490.7134097670422
472,490.66504156035313
473,490.61687000743086
474,490.5689735583784
475,490.5214283377418
476,490.4743078703379
477,490.42768283169687
478,490.3816208231812
479,490.33618617069124
480,490.29143974510487
481,490.2474388025974
482,490.2042368436914
483,490.1618834907759
484,490.1204243845017
485,490.0799010999899
486,490.04035108437444
487,490.00180761762994
488,489.96429979846374
489,489.9278525561303
490,489.8924866877556
491,489.8582189196904
492,489.8250619907499
493,489.7930247548621
494,489.76211230052826
495,489.7323260845425
496,489.7036640776354
497,489.6761209201113
498,489.64968808594585
499,489.62435405394757
500,489.60010448450896
501,489.57692240042854
502,489.5547883703381
503,489.5336806932708
504,489.5135755827712
505,489.4944473487528
506,489.47626857525216
507,489.45901029243436
508,489.4426421416243
509,489.42713253270045
510,489.4124487939976
511,489.39855731597316
512,489.38542369092943
513,489.373012851497
514,489.36128921028075
515,489.350216802518
516,489.33975943326783
517,489.32988083054545
518,489.3205448056962
519,489.3117154221466
520,489.3033571736003
521,489.2954351727214
522,489.2879153512203
523,489.28076467194194
524,489.27395135294597
525,489.2674451025114
526,489.261217362538
527,489.2552415562591
528,489.24949333490116
529,489.2439508172139
530,489.2385948157726
531,489.23340904457007
532,489.2283803034505
533,489.22349863612993
534,489.2187574595853
535,489.21415366329364
536,489.20968767715425
537,489.20536350700934
538,489.20118873656804
539,489.1971744943671
540,489.19333538443993
541,489.1896893797952
542,489.186257678564
543,489.1830645234896
544,489.1801369860764
545,489.17750471720825
546,489.17519966660427
547,489.1732557742435
548,489.17170863772833
549,489.1705951602258
550,489.16995318396215
551,489.169821114189
552,489.1702375379888
553,489.1712408411724
554,489.1728688251774
555,489.1751583249747
556,489.1781448288988
557,489.1818621018969
558,489.186341814704
559,489.19161318276696
560,489.19770262017767
561,489.2046334150816
562,489.2124254335874
563,489.22109485891195
564,489.230653971636
565,489.24111097602946
566,489.25246987655703
567,489.26473040739586
568,489.2778880156252
569,489.29193389589034
570,489.3068550716015
571,489.3226345158148
572,489.3392513042064
573,489.35668079300393
574,489.3748948160466
575,489.3938618967377
576,489.4135474720737
577,489.4339141270021
578,489.4549218381199
579,489.47652822640435
580,489.4986888193916
581,489.5213573238087
582,489.54448590983833
583,489.5680255079302
584,489.59192611863136
585,489.6161371355486
586,489.6406076812803
587,489.6652869557632
588,489.6901245957034
589,489.71507104258933
590,489.74007791556335
591,489.7650983845607
592,489.79008753859443
593,489.81500274359166
594,489.8398039837506
595,489.86445418028393
596,489.88891948174756
597,489.9131695207204
598,489.93717763225993
599,489.9609210303274
600,489.98438093924057
601,490.0075426780846
602,490.03039569684495
603,490.052933563822
604,490.0751539046651
605,490.09705829417874
606,490.11865210299004
607,490.1399443023155
608,490.1609472313305
609,490.18167633260543
610,490.2021498612512
611,490.22238857276835
612,490.2424153935345
613,490.26225507694045
614,490.28193384779667
615,490.3014790379204
616,490.3209187165573
617,490.340281320031
618,490.3595952854635
619,490.37888869359614
620,490.3981889258333
621,490.41752234079695
622,490.4369139759752
623,490.45638728010385
624,490.47596388110145
625,490.49566339252925
626,490.5155032593134
627,490.5354986416359
628,490.55566233473553
629,490.57600472173374
630,490.59653375637066
631,490.6172549725254
632,490.6381715174518
633,490.65928420585664
634,490.6805915924161
635,490.7020900608811
636,490.72377392820704
637,490.7456355620117
638,490.7676655092574
639,490.78985263354826
640,490.8121842580161
641,490.8346463105373
642,490.85722346804596
643,490.87989929713507
644,490.9026563890437
645,490.9254764882397
646,490.9483406147068
647,490.97122918050457
648,490.9941221012065
649,491.01699890254116
650,491.03983882215977
651,491.0626209061882
652,491.08532410015096
653,491.1079273337822
654,491.1304095990842
655,491.15275002095314
656,491.1749279199835
657,491.19692286763205
658,491.21871473452904
659,491.24028373319237
660,491.2616104567231
661,491.2826759152091
662,491.3034615714491
663,491.3239493772299
664,491.3441218109043
665,491.36396191658315
666,491.3834533449212
667,491.4025803952222
668,491.4213280584172
669,491.4396820604499
670,491.457628905742
671,491.4751559206036
672,491.49225129656713
673,491.5089041336349
674,491.5251044833662
675,491.540843391692
676,491.55611294149395
677,491.5709062953558
678,491.5852177392599
679,491.5990427281902
680,491.61237793470247
681,491.62522130156367
682,491.6375720993307
683,491.6494309890166
684,491.66080008885615
685,491.6716830429408
686,491.68208508845237
687,491.69201311763163
688,491.7014757306708
689,491.7104832764544
690,491.71904787917083
691,491.72718344969513
692,491.734905680845
693,491.74223202527116
694,491.7491816545713
695,491.7557753986825
696,491.76203566544433
697,491.7679863408495
698,491.7736526707954
699,491.77906112556275
700,491.7842392492444
701,491.7892154978047
702,491.7940190706688
703,491.7986797410959
704,491.80322769000276
705,491.80769334672533
706,491.8121072388652
707,491.816499852134
708,491.8209014999758
709,491.82534220165195
710,491.8298515665037
711,491.83445868149647
712,491.83919199907376
713,491.84407922273164
714,491.8491471882077
715,491.8544217384581
716,491.8599275908215
717,491.8656881952567
718,491.8717255833272
719,491.87806020838616
720,491.8847107778013
721,491.89169407795356
722,491.89902479248593
723,491.9067153143017
724,491.9147755523337
725,491.92321273510635
726,491.9320312145032
727,491.94123227473483
728,491.95081395292624
729,491.96077087847124
730,491.97109413789343
731,491.9817711704466
732,491.99278569772486
733,492.0041176888765
734,492.0157433619306
735,492.02763522105437
736,492.03976212891934
737,492.0520894127559
738,492.0645790024339
739,492.077189599158
740,492.08987687369364
741,492.10259369294874
742,492.11529037318087
743,492.12791495749514
744,492.14041351503266
745,492.15273045940614
746,492.16480888431204
747,492.17659091462906
748,492.1880180716815
749,492.1990316517227
750,492.2095731169531
751,492.2195844983484
752,492.22900880919616
753,492.23779046761814
754,492.24587572560233
755,492.25321310131096
756,492.2597538107936
757,492.2654521948676
758,492.2702661369294
759,492.27415746769327
760,492.27709235295947
761,492.27904166040815
762,492.279981301469
763,492.2798925448935
764,492.2787622994684
765,492.27658336365766
766,492.2733546395507
767,492.26908130767566
768,492.26377495848806
769,492.2574536758685
770,492.25014206792275
771,492.2418712409434
772,492.23267871350674
773,492.2226082690677
774,492.21170974679364
775,492.2000387715781
776,492.18765642512074
777,492.1746288606927
778,492.16102686478666
779,492.14692536931915
780,492.13240291842266
781,492.1175410941468
782,492.10242390554157
783,492.0871371456658
784,492.07176772121863
785,492.05640295987615
786,492.0411299009368
787,492.02603457533553
788,492.01120128153315
789,491.99671186449643
790,491.98264500582064
791,491.9690755333877
792,491.95607375844844
793,491.9437048471557
794,491.932028233168
795,491.92109707818935
796,491.91095778766874
797,491.90164958875386
798,491.89320417689703
799,491.88564543658833
800,491.8789892406831
801,491.87324333145574
802,491.86840728466996
803,491.8644725557931
804,491.8614226054221
805,491.8592330994202
806,491.8578721784132
807,491.85730079111977
808,491.8574730861272
809,491.85833685672304
810,491.85983403312036
811,491.86190121618955
812,491.8644702469816
813,491.86746880667926
814,491.8708210415428
815,491.87444820669145
816,491.8782693216136
817,491.88220182968263
818,491.886162253811
819,491.89006684067266
820,491.89383218678086
821,491.89737584115784
822,491.9006168811169
823,491.90347645938573
824,491.9058783220588
825,491.90774929739257
826,491.90901975531335
827,491.9096240371077
828,491.9095008544434
829,491.9085936565498
830,491.90685096389046
831,491.9042266661304
832,491.9006802818549
833,491.89617717739003
834,491.8906887421673
835,491.8841925185054
836,491.8766722845162
837,491.86811808974676
838,491.858526243688
839,491.8478992574329
840,491.8362457391018
841,491.82358024456113
842,491.8099230862947
843,491.7953001046489
844,491.7797424067621
845,491.7632860789581
846,491.7459718779228
847,491.72784490466955
848,491.7089542636947
849,491.6893527085183
850,491.66909627438525
851,491.648243899139
852,491.62685703363024
853,491.604999242986
854,491.58273579962906
855,491.56013326847744
856,491.5372590846626
857,491.514181124527
858,491.49096727143666
859,491.4676849787361
860,491.44440083271184
861,491.421180118692
862,491.39808639357665
863,491.37518106829106
864,491.35252300378374
865,491.33016812406345
866,491.3081690494247
867,491.2865747527517
868,491.2654302418987
869,491.24477627160735
870,491.2246490890116
871,491.2050802173555
872,491.1860962829894
873,491.16771889072277
874,491.14996455178243
875,491.1328446669426
876,491.1163655653427
877,491.10052859760106
878,491.08533028025147
879,491.0707624872451
880,491.0568126832354
881,491.04346419255506
882,491.03069649729326
883,491.01848555787984
884,491.0068041500999
885,490.99562221322225
886,490.98490720460734
887,490.97462445674427
888,490.9647375333382
889,490.95520858195414
890,490.9459986817044
891,490.93706818540903
892,490.92837705655364
893,490.9198852021993
894,490.91155280346914
895,490.9033406450165
896,490.8952104439709
