frame_number,force
0,520.9404900000402
1,520.762701757755
2,520.5937685203554
3,520.4418703544943
4,520.3139026182571
5,520.2149671607003
6,520.1479841652979
7,520.1134608748306
8,520.1094749557479
9,520.1319214073301
10,520.1750235289406
11,520.2320402498685
12,520.2960495866005
13,520.3606761837547
14,520.4206563940832
15,520.4721795157557
16,520.5129953058009
17,520.5423222845028
18,520.5606148959637
19,520.5692517026966
20,520.5702053203607
21,520.5657511975364
22,520.5582553296717
23,520.5500462050011
24,520.5433408052362
25,520.5401819484953
26,520.5423576485047
27,520.5512939047932
28,520.5679284431887
29,520.5925889828214
30,520.6249144179981
31,520.6638565326675
32,520.7077791284856
33,520.7546463717941
34,520.8022778604497
35,520.8486419115725
36,520.892149699221
37,520.9318990918267
38,520.9678111368619
39,521.0006202813345
40,521.0317207009451
41,521.062911731174
42,521.0961006972389
43,521.1330097692991
44,521.1749130527083
45,521.2224180408775
46,521.2753032840326
47,521.3324217645062
48,521.3916724052044
49,521.4500376647208
50,521.5036907518592
51,521.548190243649
52,521.5787935945814
53,521.5909154659162
54,521.5807152881528
55,521.5457371529806
56,521.4854877803471
57,521.4018430157188
58,521.2991965872999
59,521.1842883576661
60,521.0656847759238
61,520.9529443044825
62,520.855571321694
63,520.7819101244645
64,520.7381350782432
65,520.7274676879197
66,520.7497228157184
67,520.8012550157623
68,520.875326949846
69,520.9628587302401
70,521.0534591095833
71,521.1365989265565
72,521.2027673166107
73,521.2444547167117
74,521.2568358434589
75,521.238078920346
76,521.1892768110749
77,521.1140632259255
78,521.0180191498495
79,520.9079812108613
80,520.7913445847364
81,520.6754228600314
82,520.5668984443803
83,520.4713793065923
84,520.3930716097798
85,520.3345769656398
86,520.2968231980724
87,520.2791332756151
88,520.2794257007544
89,520.2945310238209
90,520.3206112026975
91,520.3536653115247
92,520.3900753064723
93,520.4270992649513
94,520.4631926919477
95,520.4980574557565
96,520.532382984385
97,520.5673320605443
98,520.6038982755573
99,520.642299398086
100,520.6815670750742
101,520.7194524166008
102,520.7526925859286
103,520.7775878398205
104,520.7907489423383
105,520.7898226926188
106,520.7740070567669
107,520.7442258329789
108,520.7029258221125
109,520.6535578478725
110,520.5998819299134
111,520.545279943973
112,520.4922539284171
113,520.4422307361503
114,520.3956992061102
115,520.3526075430278
116,520.312877623657
117,520.27686546811
118,520.2456187182042
119,520.2208521337996
120,520.204662611627
121,520.1990921442629
122,520.2056763207258
123,520.2250855981481
124,520.2569157977557
125,520.2996435637095
126,520.3507325653374
127,520.4068559638821
128,520.4641970743806
129,520.5187970493037
130,520.5669186271625
131,520.6053860321247
132,520.63185834158
133,520.6450089104798
134,520.6446107213934
135,520.6315469361604
136,520.6077616075331
137,520.5761447257877
138,520.5403340542847
139,520.5044286541104
140,520.4726348640718
141,520.4488845980763
142,520.4364719935335
143,520.4377547626149
144,520.4539620015433
145,520.4851335851569
146,520.5301903644282
147,520.5871120011667
148,520.6531849734934
149,520.7252733229739
150,520.8000618229606
151,520.874233821866
152,520.944577049411
153,521.0080514006593
154,521.0618787614449
155,521.1036988465947
156,521.13177996879
157,521.1452235933888
158,521.1440985119639
159,521.1294782020346
160,521.1033900686949
161,521.06868946717
162,521.0288573192058
163,520.9877181072582
164,520.9490965778289
165,520.9164562804701
166,520.8925624013863
167,520.8791885216724
168,520.8768786419005
169,520.8848015522766
170,520.9007657954065
171,520.9214548540554
172,520.9428807997454
173,520.9609733922515
174,520.9721695647377
175,520.9738705173833
176,520.964681347873
177,520.9444149419238
178,520.9139014184166
179,520.8746817899395
180,520.8286794583132
181,520.7779395466808
182,520.7244995919609
183,520.6704025130798
184,520.6178011269926
185,520.5690640417673
186,520.5267928904448
187,520.4936940209119
188,520.4722962909229
189,520.464552911914
190,520.4713965517888
191,520.4923297793771
192,520.5251339716484
193,520.5657762058966
194,520.6085819988891
195,520.6467109785959
196,520.6729172524118
197,520.6805054000495
198,520.6643300678522
199,520.621658617115
200,520.5527379687458
201,520.4609757735119
202,520.352734435433
203,520.236801240821
204,520.1236154038444
205,520.0243194622035
206,519.9496924468588
207,519.9090358837141
208,519.9091163948641
209,519.9532996382277
210,520.0410185141393
211,520.1676920213556
212,520.325145592558
213,520.5024875975643
214,520.6873008447913
215,520.8669512559159
216,521.0298153035318
217,521.1662740736974
218,521.2693958196015
219,521.3353039279
220,521.363272994584
221,521.3556007486956
222,521.3172814846176
223,521.2554802613403
224,521.1788035243328
225,521.0964025021291
226,521.0170161695596
227,520.9481089892
228,520.8952435481394
229,520.8617578657866
230,520.8487377916763
231,520.855226845985
232,520.8786046064868
233,520.9150708798265
234,520.9601786175865
235,521.0093595763564
236,521.0583892456345
237,521.1037504148915
238,521.1428776883631
239,521.1742858749094
240,521.1975914112618
241,521.2134250749634
242,521.2232157668686
243,521.2288237959264
244,521.2320376804117
245,521.2340051494917
246,521.2347092780323
247,521.2326084430973
248,521.2245430039451
249,521.2059776167445
250,521.1715925059146
251,521.1161650217113
252,521.0356109003172
253,520.9279969459694
254,520.7943054062347
255,520.6387484095998
256,520.4685183009652
257,520.2929968003962
258,520.1225775689893
259,519.9673367647592
260,519.8358003443198
261,519.7340132073156
262,519.6650334639415
263,519.6288828583791
264,519.6229055623127
265,519.6424296391906
266,519.6815897793394
267,519.7341672005768
268,519.7943368307767
269,519.857258363554
270,519.9194767172723
271,519.9791086537407
272,520.0358023330124
273,520.090472335982
274,520.1448391231239
275,520.2008449329795
276,520.2600627457772
277,520.3232294004694
278,520.3900033068995
279,520.458984506644
280,520.5279673922132
281,520.594350981761
282,520.6556177213363
283,520.7097947493779
284,520.7558147312517
285,520.79370283497
286,520.8245512991156
287,520.8503021143591
288,520.8734094375909
289,520.8964647309255
290,520.9218413166935
291,520.9513794095117
292,520.986112902478
293,521.02604482196
294,521.0700033532577
295,521.1156319598928
296,521.1595584659264
297,521.1977441888947
298,521.2259609988573
299,521.2403132061442
300,521.2377210732648
301,521.216300714702
302,521.1755998724129
303,521.1166768634612
304,521.0420328227875
305,520.9554153899032
306,520.8615096676
307,520.7655351544608
308,520.6727825838708
309,520.5881450403172
310,520.5157103997075
311,520.4584758331794
312,520.4182161088164
313,520.3954928892429
314,520.3897496214294
315,520.399420012783
316,520.4220027281701
317,520.4541086275992
318,520.4915369268139
319,520.5294561494418
320,520.5627465572077
321,520.5865101470579
322,520.5966890446546
323,520.5906765513314
324,520.567783263538
325,520.5294478530739
326,520.4791441121656
327,520.4219991470617
328,520.364180079748
329,520.3121322293966
330,520.2717736022455
331,520.2477680740409
332,520.2429975831723
333,520.2583193738794
334,520.2926326637361
335,520.3432117692028
336,520.4062129469738
337,520.4772406744503
338,520.5518658363602
339,520.6260180529523
340,520.6962150583915
341,520.7596286478522
342,520.8140125020695
343,520.8575359519958
344,520.8885829228705
345,520.9055802922088
346,520.9069057014041
347,520.8908989545345
348,520.8559854141632
349,520.8009184616467
350,520.7251350739159
351,520.6291756683204
352,520.5150692339995
353,520.3865674261227
354,520.2491407173646
355,520.1097059099263
356,519.9761098723371
357,519.8564365993
358,519.7582326649273
359,519.6877582079002
360,519.6493618044218
361,519.6450474595524
362,519.6742627892662
363,519.733908735766
364,519.8185621399438
365,519.9209054984005
366,520.0323550657711
367,520.1438516098564
368,520.246729538757
369,520.3335386782886
370,520.3986888436365
371,520.4388248525354
372,520.4529024207862
373,520.4420013980733
374,520.40895863076
375,520.3579124233788
376,520.293828165304
377,520.2220421892915
378,520.1478414330362
379,520.07609479819
380,520.0109531365385
381,519.9556282182066
382,519.9122551440206
383,519.8818438056355
384,519.8643242652262
385,519.8586809231969
386,519.8631558626324
387,519.8754895088595
388,519.8931604026112
389,519.9135916225384
390,519.9343124094589
391,519.9530867832972
392,519.9680245675712
393,519.9776729895749
394,519.9810770587388
395,519.9778147730193
396,519.9680363077555
397,519.9525248756113
398,519.9327489153376
399,519.9108312846092
400,519.8893602720673
401,519.8710173248312
402,519.8580766199275
403,519.8519046906574
404,519.8526163901
405,519.8590101419221
406,519.8688265932642
407,519.879283085927
408,519.8877583009396
409,519.8924538380237
410,519.8928564628055
411,519.889873674976
412,519.88560571694
413,519.8828192665352
414,519.8842663703128
415,519.8920250642097
416,519.907023404674
417,519.9288528810062
418,519.955893006725
419,519.9856860524758
420,520.0154559144016
421,520.0426629623023
422,520.06549548758
423,520.083199305384
424,520.0961619991805
425,520.1057203890816
426,520.1137360774
427,520.1220517560143
428,520.1319772542936
429,520.1439476808839
430,520.1574430076643
431,520.1711752641987
432,520.1834733586361
433,520.192755076909
434,520.1979707380675
435,520.1989241498703
436,520.1964211330368
437,520.1922479128739
438,520.189011442457
439,520.1898750643472
440,520.1982187988087
441,520.2172573771524
442,520.2496530226634
443,520.297160223693
444,520.3603416721626
445,520.4383954735587
446,520.5291254625622
447,520.6290668638993
448,520.7337512930629
449,520.8380662827799
450,520.9366496918323
451,521.0242679301411
452,521.0961520661045
453,521.1482861896989
454,521.1776415234052
455,521.1823390653178
456,521.1617275749431
457,521.1163827818424
458,521.0480462462492
459,520.9595192486169
460,520.854520066718
461,520.7375132465878
462,520.6135248017393
463,520.4879579954455
464,520.3664135039753
465,520.2544988934133
466,520.1575996445657
467,520.0805888492769
468,520.0274752625712
469,520.0010241249925
470,520.0024196911025
471,520.0310513601084
472,520.0844850422706
473,520.1586385671422
474,520.2481335043482
475,520.346762160362
476,520.4480011377009
477,520.5455203000794
478,520.6336544654226
479,520.7078009882225
480,520.7646882215549
481,520.8024646094362
482,520.8206045329678
483,520.8196847872459
484,520.8011099039029
485,520.7668485312057
486,520.7192142296313
487,520.660703211357
488,520.5938886507946
489,520.5213619449651
490,520.4457089896039
491,520.3695164317206
492,520.2954067920549
493,520.2260866323671
494,520.1643680427544
495,520.1131192676761
496,520.0751228417582
497,520.0528489782673
498,520.0481726590652
499,520.0620765757532
500,520.0943916857561
501,520.143628558829
502,520.2069426928808
503,520.2802588321703
504,520.3585570278799
505,520.4362981767551
506,520.5079429116012
507,520.568500871125
508,520.6140407715313
509,520.6420970076489
510,520.6519250198722
511,520.6445789271801
512,520.6228053532377
513,520.5907692263339
514,520.5536512839516
515,520.5171733215794
516,520.4871089224209
517,520.4688323819738
518,520.4669540103448
519,520.4850767907234
520,520.5256787337851
521,520.5900897077152
522,520.6785115226908
523,520.7900307837075
524,520.9225904526112
525,521.0729166489624
526,521.2364358976783
527,521.407246737112
528,521.5782145683906
529,521.741243448681
530,521.8877520159791
531,522.0093430626081
532,522.0986058804106
533,522.1499379599585
534,522.1602407190662
535,522.1293530042062
536,522.0601367054194
537,521.958199861508
538,521.8313106092936
539,521.6886077507249
540,521.5397419027329
541,521.3940776111476
542,521.2600532003723
543,521.1447430132806
544,521.0536136327696
545,520.9904300584137
546,520.9572565184394
547,520.9545032165794
548,520.9809872036665
549,521.033996320084
550,521.1093632003244
551,521.2015720490625
552,521.3039368423102
553,521.4088943061153
554,521.5084312830401
555,521.5946203005444
556,521.6601996763068
557,521.6991249322241
558,521.7070294227782
559,521.681549004111
560,521.6224803354961
561,521.5317542384431
562,521.4132229598514
563,521.2722918159313
564,521.1154593095875
565,520.9498387252918
566,520.7827123063626
567,520.6211413703372
568,520.4716452436843
569,520.3399621638481
570,520.2308967086008
571,520.1482393523931
572,520.0947296565587
573,520.0720332140116
574,520.0807074612734
575,520.1201386065977
576,520.1884482914385
577,520.282397255123
578,520.3973385042648
579,520.5272761374664
580,520.6650709350673
581,520.8028124805738
582,520.9323477956599
583,521.045913531834
584,521.1367802089172
585,521.1998087461235
586,521.2318431070205
587,521.2318971604905
588,521.2011253490791
589,521.1425993490673
590,521.0609478051599
591,520.9619382161264
592,520.8520682559865
593,520.7381854070819
594,520.6271008781258
595,520.5251533172542
596,520.4377218480523
597,520.3687493852673
598,520.3203709758689
599,520.2927334665793
600,520.2840550010926
601,520.290923640108
602,520.3087868612783
603,520.3325484630354
604,520.3571755074997
605,520.3782304743713
606,520.3922780999495
607,520.3971541994733
608,520.3921036137905
609,520.3777896884651
610,520.3561649237289
611,520.330197404382
612,520.3034747351516
613,520.2797318204584
614,520.262351974645
615,520.253885255333
616,520.2556342893474
617,520.267371671838
618,520.2872511183261
619,520.311944339439
620,520.336989171553
621,520.3573004453929
622,520.3677895326991
623,520.3640403534065
624,520.3429668016674
625,520.3033380164618
626,520.2460491849827
627,520.1740612648373
628,520.0920106487839
629,520.005561191442
630,519.920617124298
631,519.8425355302786
632,519.7754708805353
633,519.721947331506
634,519.6826931339689
635,519.6567112432884
636,519.6415269683318
637,519.6335480043797
638,519.6284786028077
639,519.6217417882333
640,519.6088832090785
641,519.5859489332881
642,519.5498350285399
643,519.4986006074976
644,519.4317275893724
645,519.3503010817019
646,519.257070270606
647,519.1563391234898
648,519.0536497916933
649,518.955266404435
650,518.8675209978912
651,518.7961191781621
652,518.7455125790557
653,518.7184319596602
654,518.7156406209755
655,518.7359191908296
656,518.7762505686616
657,518.8321578980431
658,518.8981556576417
659,518.9682852143832
660,519.0367081330621
661,519.0983185222489
662,519.1493116843502
663,519.1876257762865
664,519.2131769258797
665,519.2278398769956
666,519.235169678968
667,519.2399007526361
668,519.247296107561
669,519.2624495985843
670,519.2896556755989
671,519.3319425986618
672,519.3908185189762
673,519.4662217023937
674,519.5566231310679
675,519.6592222361244
676,519.770197628768
677,519.8849977474288
678,519.9986658382765
679,520.1061934818118
680,520.2028944494919
681,520.2847885429433
682,520.3489799476739
683,520.394000641408
684,520.4200699139482
685,520.4292098659711
686,520.4251622113634
687,520.4130739627168
688,520.3989603610241
689,520.3890082960328
690,520.3888303097299
691,520.4027929084981
692,520.433520652439
693,520.481641445529
694,520.5458072372696
695,520.6229900176425
696,520.7090029888158
697,520.7991474482765
698,520.8888676798975
699,520.9743165627607
700,521.0527736023624
701,521.1228870259969
702,521.1847203681485
703,521.2395882593349
704,521.2896905180531
705,521.3375951572621
706,521.3856532084178
707,521.4354373038315
708,521.4872915885924
709,521.5400753293467
710,521.5911732763703
711,521.6368150049261
712,521.6726803016776
713,521.6946843758464
714,521.6997773977539
715,521.6865855937034
716,521.655758390349
717,521.609950656066
718,521.5534526427261
719,521.4915659621802
720,521.4298782318294
721,521.3735888805958
722,521.3269948560642
723,521.2931880844583
724,521.2739683206923
725,521.2699405573549
726,521.28074377738
727,521.3053449082562
728,521.3423234143254
729,521.3900697855115
730,521.4468423387085
731,521.5106816603624
732,521.5792470639249
733,521.6496726583616
734,521.718522677798
735,521.7818769393333
736,521.8355367219083
737,521.8753290088292
738,521.8974880222806
739,521.8990816049479
740,521.8784237924214
741,521.835396227744
742,521.7716083845913
743,521.6903570181539
744,521.5963838980632
745,521.4954640210925
746,521.3938776651908
747,521.2978303901878
748,521.2128891672386
749,521.1434987589915
750,521.0926259658945
751,521.0615553056302
752,521.0498434361738
753,521.0554365681053
754,521.0749503294525
755,521.1040915076302
756,521.1381723167739
757,521.1726458197055
758,521.203584727455
759,521.228036203826
760,521.2442093480216
761,521.2514850170583
762,521.2502741787661
763,521.241780442634
764,521.2277318589122
765,521.2101341727544
766,521.1910723542143
767,521.1725614792741
768,521.1564319852678
769,521.1442346292771
770,521.1371650127685
771,521.1360219031275
772,521.1412080616459
773,521.1527526461297
774,521.1703060146394
775,521.1930651772259
776,521.2196362936161
777,521.2478980523351
778,521.274956662746
779,521.2972625140658
780,521.3109058045972
781,521.3120527108745
782,521.2974425904639
783,521.264846948948
784,521.2133980822539
785,521.1437264175762
786,521.0578859378311
787,520.9590869277042
788,520.851294236032
789,520.7387787343614
790,520.6257105098135
791,520.5158508693852
792,520.4123604299615
793,520.3177161785835
794,520.2337193725011
795,520.1615660629917
796,520.1019437090804
797,520.0551196133516
798,520.0210008941626
799,519.9991639184282
800,519.9888657840206
801,519.9890585458538
802,519.9984273886772
803,520.0154644642574
804,520.0385728555422
805,520.0661811884162
806,520.0968465866772
807,520.1293245658665
808,520.1625780077837
809,520.1956904985458
810,520.2276659999021
811,520.2571498941411
812,520.2821730830352
813,520.3000518357775
814,520.3075371794109
815,520.3012134065159
816,520.2780482495348
817,520.2359454224688
818,520.1741586183812
819,520.0934799607331
820,519.9961859167158
821,519.8857795890497
822,519.7665968764003
823,519.6433553199093
824,519.520729028295
825,519.403022223777
826,519.2939777015843
827,519.1967066919893
828,519.1136873372984
829,519.0467669313623
830,518.9971240722996
831,518.9651925488022
832,518.9505907070727
833,518.9521095202398
834,518.9677920654154
835,518.9951124974774
836,519.0312459178291
837,519.0734037944701
838,519.1191894631486
839,519.1669122027978
840,519.2157923462604
841,519.2659982559427
842,519.3184882813009
843,519.3746900907659
844,519.4361113818645
845,519.5039975132559
846,519.5791170594056
847,519.6616920891936
848,519.7514317871999
849,519.84759825433
850,519.9490451636633
851,520.0542174188009
852,520.1611490318807
853,520.2675124821103
854,520.3707510670249
855,520.4682859810688
856,520.5577551101529
857,520.637226570309
858,520.7053403574708
859,520.7613563897188
860,520.8051155077353
861,520.8369479007587
862,520.8575833878161
863,520.8681128626095
864,520.8700136458399
865,520.8652021365501
866,520.8560451181819
867,520.8452683868679
868,520.8357469678481
869,520.8302151938186
870,520.8309624253185
871,520.8395755987024
872,520.856773262709
873,520.8823613772726
874,520.9153262179441
875,520.954057137989
876,520.9966582347502
877,521.0412703023223
878,521.0863071492209
879,521.1305382347531
880,521.1730169022251
881,521.2129204622302
882,521.2493945186648
883,521.2814719733985
884,521.3080916217041
885,521.3281989105516
886,521.3408841059656
887,521.3455058449322
888,521.341764852389
889,521.3297276659067
890,521.3098326664789
891,521.2829165878147
892,521.2502720641638
893,521.2137042421208
894,521.1755283679614
895,521.1384607442193
896,521.1053976228693
897,521.0791282677277
898,521.0620650335346
899,521.0560753738348
900,521.0624613270343
901,521.0820679291716
902,521.1154488508735
903,521.1630020335867
904,521.2250090000647
905,521.3015540313856
906,521.3923491101621
907,521.4965283666345
908,521.6124858095139
909,521.7378150231275
910,521.869383473363
911,522.0035495223328
912,522.1365120694052
913,522.2647628266501
914,522.3855792969476
915,522.4974618254006
916,522.6004052114383
917,522.6959217057587
918,522.7867966479208
