acceleration,velocity,displacement
-0.0482739817352866,0.0,0.0
-0.04416272670069686,-4.6218354217991734e-05,-2.3109177108995868e-08
-0.040232599891904176,-8.841601751429225e-05,-9.042636297513787e-08
-0.036642245693150034,-0.00012685344030681937,-1.980610918856937e-07
-0.03350943906518932,-0.00016192928268598904,-3.4245245338209794e-07
-0.03089989774022709,-0.00019413395108869725,-5.204840702694411e-07
-0.028824683713600828,-0.00022399624181561122,-7.295491667215954e-07
-0.02724570556469176,-0.00025203143645475753,-9.675630058567798e-07
-0.026087336734607672,-0.00027869795760440723,-1.2329277028863622e-06
-0.025251407235366126,-0.00030436732958939413,-1.5244603464832627e-06
-0.024632836077266258,-0.0003293094512457103,-1.841298736900815e-06
-0.024133632387083492,-0.0003536926854778852,-2.182799805262613e-06
-0.02367357101264957,-0.00037759628717775175,-2.5484442915904314e-06
-0.023196522977082672,-0.00040103133417261784,-2.9377581022656163e-06
-0.02267224362732582,-0.00042396571747482206,-3.3502566280893363e-06
-0.022094177970669072,-0.0004463489282738195,-3.785413950963657e-06
-0.021474266786731873,-0.00046813315065252,-4.242654990426826e-06
-0.020835857992775774,-0.0004892882130422739,-4.721365672274223e-06
-0.020205895768103676,-0.0005098090899227135,-5.220914323756717e-06
-0.019607679954867906,-0.0005297158777841993,-5.740676807610174e-06
-0.01905543643188445,-0.0005490474359775755,-6.280058464491062e-06
-0.018551467378224513,-0.00056785088788263,-6.8385076264211644e-06
-0.0180859154046268,-0.0005861695792740557,-7.415517859999507e-06
-0.017638614220862315,-0.0006040318440868002,-8.010618571679936e-06
-0.017182308546365096,-0.000621442305470414,-8.623355646458544e-06
-0.016686557536006518,-0.0006383767385115998,-9.25326516844955e-06
-0.01612175828404284,-0.0006547808964216245,-9.899843985916161e-06
-0.015462931012345759,-0.0006705732410698188,-1.0562521054661882e-05
-0.014693059388262169,-0.0006856512362701227,-1.1240633293331852e-05
-0.01380571291519582,-0.0006999006224218517,-1.193340922267784e-05
-0.012806529775791978,-0.0007132067437673456,-1.2639962905772438e-05
-0.01171315980617372,-0.0007254665885583285,-1.3359299571935276e-05
-0.01055346227931204,-0.0007365998996010714,-1.4090332816014976e-05
-0.009362045016525109,-0.00074655765324899,-1.4831911592440006e-05
-0.008175689837032879,-0.000755326520675769,-1.5582853679402387e-05
-0.007028747966244024,-0.0007629287395774074,-1.6341981309528975e-05
-0.005949771112973724,-0.0007694179991170163,-1.7108154678876186e-05
-0.004960196915811305,-0.0007748729831314089,-1.78803001700004e-05
-0.004075140435910125,-0.0007793906518072695,-1.865743198746974e-05
-0.003305730849352238,-0.0007830810874499008,-1.9438667857098325e-05
-0.0026621243218601957,-0.000786065015035507,-2.022324090834103e-05
-0.002156290547499777,-0.000788474222470187,-2.1010510527093877e-05
-0.0018038988011354513,-0.0007904543171445046,-2.1799974796901225e-05
-0.0016249656352394068,-0.000792168749362692,-2.2591286330154822e-05
-0.001643107706037494,-0.0007938027860333305,-2.3384272097852833e-05
-0.0018832338434576655,-0.000795565956808078,-2.417895646927354e-05
-0.0023675415922964453,-0.0007976913445259551,-2.4975585119940554e-05
-0.00310995432182592,-0.0008004300924830162,-2.5774645838445038e-05
-0.004109666281709062,-0.0008040399027847838,-2.657688083607894e-05
-0.005345129324119886,-0.0008087673005876982,-2.738328443776518e-05
-0.006770316863675942,-0.0008148250236815961,-2.8195080599899825e-05
-0.008315027573356329,-0.0008223676959001122,-2.9013676959690678e-05
-0.009890132183031202,-0.000831470275778306,-2.984059594552989e-05
-0.011397253323175682,-0.0008421139685314094,-3.067738806768475e-05
-0.012740980953679315,-0.0008541830856698369,-3.152553659478537e-05
-0.013840969095080787,-0.0008674740606942169,-3.2386365167967395e-05
-0.01464139006837135,-0.000881715240275943,-3.326095981845248e-05
-0.015116011201146327,-0.0008965939409107018,-3.41501144090458e-05
-0.015268197448243075,-0.0009117860452353965,-3.505430440211885e-05
-0.01512622540205441,-0.0009269832566605453,-3.597368905306682e-05
-0.014735375863763259,-0.0009419140572934541,-3.690813771004382e-05
-0.014149111513485142,-0.0009563563009820783,-3.785727288918159e-05
-0.013421703551394123,-0.000970141708514518,-3.8820521893929885e-05
-0.012603675899981978,-0.000983154398240206,-3.979716994730725e-05
-0.011739991343865995,-0.00099532623186213,-4.078641026235842e-05
-0.010870015138430198,-0.001006631235103278,-4.1787388995841125e-05
-0.010028276857068271,-0.0010170803811010273,-4.279924480394328e-05
-0.009245443185753674,-0.0010267172411224383,-4.3821143615055015e-05
-0.008549261834100418,-0.0010356145936323653,-4.485230953243242e-05
-0.007965401586183219,-0.001043871925342507,-4.589205279191986e-05
-0.007518011962051537,-0.0010516136321166245,-4.6939795570649424e-05
-0.0072295083995761785,-0.0010589873922974384,-4.799509608285646e-05
-0.007118938768249925,-0.0010661616158813515,-4.905767058694585e-05
-0.007198671764292611,-0.0010733204211476229,-5.012741160546034e-05
-0.007469941244459721,-0.001080654727651999,-5.1204399179860146e-05
-0.007918483472320145,-0.001088348940010389,-5.228890101369134e-05
-0.008511748836970014,-0.0010965640561650342,-5.3381357511779054e-05
-0.0091989118771424,-0.0011054193865220904,-5.4482349233122616e-05
-0.009914192287744717,-0.001114975938604534,-5.559254689568593e-05
-0.01058293178471068,-0.0011252245006407617,-5.671264711530858e-05
-0.011128908766960795,-0.0011360804209165974,-5.784329957608726e-05
-0.011481204876141429,-0.0011473854777381484,-5.898503252541463e-05
-0.011579706387217545,-0.001158915933369828,-6.013818323096862e-05
-0.011379361838006403,-0.00117039546748244,-6.130283893139475e-05
-0.010853854077457181,-0.0011815120754401717,-6.247879270285605e-05
-0.009999150705755641,-0.0011919385778317781,-6.366551802949203e-05
-0.008836753015748855,-0.0012013565296925303,-6.486216558325418e-05
-0.007415834523880308,-0.0012094828234623448,-6.606758525983162e-05
-0.005813179666873825,-0.0012160973305577218,-6.728037533684165e-05
-0.004129937209094745,-0.0012210688889957061,-6.849895844661837e-05
-0.0024845976274200745,-0.0012243761564139635,-6.97216809693232e-05
-0.0010022860976264623,-0.0012261195982764869,-7.094692884666842e-05
0.0001986258106664784,-0.0012265214284199668,-7.217324936001665e-05
0.0010207626398962058,-0.0012259117341946854,-7.339946594132397e-05
0.0014006640440964535,-0.001224701020852689,-7.462477231884765e-05
0.0013184509170248847,-0.0012233414633721284,-7.584879356096006e-05
0.0008029761059943066,-0.0012222807498606188,-7.707160466757643e-05
-6.801988199141866e-05,-0.0012219132717486174,-7.829370167838105e-05
-0.001172586348422941,-0.0012225335748638246,-7.951592510168727e-05
-0.0023535449660013652,-0.0012242966405210368,-8.07393402093797e-05
-0.003431148375889607,-0.0012271889871919822,-8.196508302323621e-05
-0.004218788335820913,-0.0012310139555478375,-8.319418449460612e-05
-0.004540965109338321,-0.001235393832270417,-8.442738838851525e-05
-0.004252213519002061,-0.0012397904215845873,-8.566498051544275e-05
-0.003254864165819346,-0.001243543960426998,-8.690664770644855e-05
-0.001512753626366758,-0.001245927769323091,-8.815138357132359e-05
0.0009420795310782381,-0.0012462131063707353,-8.939745400917051e-05
0.0040115369815694095,-0.0012437362981144115,-9.064242871141308e-05
0.007542159905757958,-0.0012379594496707478,-9.188327658530566e-05
0.011342088071155988,-0.0012285173256822907,-9.311651497298218e-05
0.015201064955573888,-0.001215245749168926,-9.433839651040779e-05
0.018910642181968126,-0.001198189895600155,-9.554511433279233e-05
0.0222827503227116,-0.001177593199347815,-9.673300588026632e-05
0.02516563912959213,-0.0011538690046216632,-9.789873698225107e-05
0.027456471606763167,-0.0011275579492534854,-9.903945045918864e-05
0.029109752952485062,-0.0010992748369738612,-0.00010015286685230231
0.030140669058674838,-0.0010696496259682813,-0.00010123732908377338
0.03062259966145478,-0.0010392679916082165,-0.00010229178789256163
0.0306786641522096,-0.0010086173597013844,-0.00010331573056821643
0.03046802520765344,-0.0009780440150214528,-0.00010430906125557785
0.030168484701141546,-0.0009477257600670553,-0.0001052719461431221
0.029957301453682257,-0.0009176628669896434,-0.00010620464045665046
0.029992071447783243,-0.0008876881805389106,-0.00010710731598041473
0.030393297848034847,-0.0008574954958910015,-0.00010797990781862968
0.031230361263120086,-0.000826683666335424,-0.0001088219973997429
0.032512865199545965,-0.000794812053104091,-0.00010963274525946266
0.03418911178328403,-0.000761461064612676,-0.00011041088181832105
0.03615232660092536,-0.0007262903454205713,-0.00011115475752333768
0.03825365823936946,-0.0006890873530004238,-0.00011186244637254817
0.04031985040817648,-0.0006498005986766509,-0.0001125318903483867
0.04217320177661736,-0.0006085540725842539,-0.00011316106768401716
0.043651594836574784,-0.0005656416742776579,-0.00011374816555744812
0.04462651370867038,-0.0005215026200050353,-0.00011429173770458947
0.045017086927229354,-0.00047668081968708546,-0.00011479082942443552
0.04479860649512028,-0.00043177297297591064,-0.00011524505632076702
0.044004778474395274,-0.00038737128049115283,-0.00011565462844750056
0.04272380370336748,-0.0003440069894022715,-0.00011602031758244727
0.041088918459657106,-0.00030210062832075916,-0.00011634337139130879
0.039264308787822874,-0.0002619240146970192,-0.00011662538371281768
0.0374276303599353,-0.00022357804512314008,-0.00011686813474272776
0.03575082007212685,-0.00018698881990710902,-0.0001170734181752429
0.03438133073840206,-0.00015192274450184456,-0.00011724287395744737
0.033426127647365474,-0.00011801901530896079,-0.00011737784483735277
0.03294057652408772,-8.48356632232342e-05,-0.00011747927217661887
0.03292365312515286,-5.190354839861391e-05,-0.00011754764178242979
0.03331982931458553,-1.878180717874471e-05,-0.00011758298446021846
0.034026893503277714,1.4891554230186915e-05,-0.00011758492958669274
0.03490824978777402,4.9359125875712786e-05,-0.00011755280424663979
0.03580804536235987,8.471727345077973e-05,-0.00011748576604697653
0.03656760365004023,0.00012090509795697978,-0.00011738295486127266
0.03704180880257719,0.0001577098041832885,-0.00011724364741020253
0.03711417260376046,0.0001947877948864573,-0.00011706739861066766
0.03670938041886702,0.00023169957139777104,-0.00011685415492752555
0.03580223652086326,0.00026795537986763616,-0.00011660432745189284
0.03442204914377416,0.0003030675226999549,-0.00011631881600060905
0.03265152721440814,0.00033660431087904604,-0.00011599898008381955
0.030619401403039665,0.00036823977518776995,-0.00011564655804078613
0.028486676137843607,0.0003977928139582116,-0.00011526354174621314
0.026427785031654414,0.00042525004454296064,-0.00011485202031696255
0.024609400326027656,0.0004507686372218017,-0.00011441401097608017
0.023170458453033824,0.00047465856661133243,-0.0001139512973741636
0.022206760394463558,0.0004973471760350811,-0.0001134652945028404
0.02176246878439389,0.0005193317906245098,-0.0001129569550195106
0.021829368486743213,0.0005411277092600784,-0.0001124267252695683
0.02235328467988953,0.0005632190358433948,-0.00011187455189701657
0.02324585227837506,0.000586018604322527,-0.00011129993307693361
0.02439904217681804,0.0006098410515501236,-0.00011070200324899729
0.02569951108627497,0.0006348903281816701,-0.00011007963755913139
0.0270400638733858,0.0006612601156615006,-0.0001094315623372098
0.028326500174687835,0.0006889433976855374,-0.00010875646058053628
0.029479781366082345,0.0007178465384559225,-0.00010805306561246555
0.030435105036124607,0.000747803981657026,-0.00010732024035240907
0.03114012809268267,0.0007785915982214296,-0.00010655704256246984
0.031553900097350235,0.000809938612316446,-0.00010576277745720091
0.03164686384544737,0.0008415389942878448,-0.00010493703865389877
0.031401664007922006,0.0008730632582145295,-0.00010407973752764759
0.030814629356891818,0.0009041714048969365,-0.00010319112019609186
0.029897871859671826,0.0009345276555052182,-0.00010227177066589077
0.028681438047124228,0.0009638173104586162,-0.00010132259818290886
0.027214261911733442,0.0009917651604380451,-0.00010034480694746053
0.025562593706030624,0.0010181535882469272,-9.933984757311805e-05
0.023805320529436277,0.0010428375453646608,-9.830935200631225e-05
0.022026613549525526,0.0010657535124041417,-9.725505647742785e-05
0.02030707947453871,0.0010869203589161738,-9.61787195417677e-05
0.018714998612782488,0.0011064313979598343,-9.508204366332969e-05
0.01729939211994727,0.0011244385933261991,-9.396660866768667e-05
0.016086442666500358,0.001141131510719423,-9.283382361566387e-05
0.015080061912889912,0.0011567147630091182,-9.16849004787996e-05
0.014266299096854262,0.0011713879435139903,-9.052084912553804e-05
0.013620149006101789,0.0011853311675654684,-8.934248956999831e-05
0.013112596653085076,0.001198697540395062,-8.815047521601804e-05
0.012715906007064084,0.0012116117917251364,-8.694532054995794e-05
0.012406237573074616,0.0012241728635152059,-8.572742822233777e-05
0.012163980847347659,0.001236457972725417,-8.449711280421747e-05
0.011972911035378227,0.0012485264186667799,-8.325462060852137e-05
0.011819162229042692,0.0012604224552989903,-8.200014617153848e-05
0.011690362703738662,0.001272177217765381,-8.07338463350063e-05
0.011574664677419912,0.0012838097314559604,-7.945585286039563e-05
0.01145927262796565,0.0012953267001086532,-7.816628464461332e-05
0.011328502419833771,0.001306720587632553,-7.686526100074272e-05
0.011162081083667017,0.0013179658793843034,-7.555291776723429e-05
0.010934874838226492,0.00132901435734525,-7.422942764886952e-05
0.010619138079012982,0.0013397913638038697,-7.289502478829496e-05
0.010189553078838199,0.0013501957093827953,-7.155003125170163e-05
0.009630030174703916,0.0013601055010095664,-7.019488064650545e-05
0.008940139783740078,0.0013693905859887884,-6.883013260300627e-05
0.008138801980096555,0.0013779300568707068,-6.745647228157652e-05
0.007263616193297144,0.0013856312659574037,-6.607469162016246e-05
0.006365660881902804,0.0013924459044950036,-6.468565303493626e-05
0.005501173834537322,0.0013983793218532237,-6.329024042176214e-05
0.004722536583591143,0.001403491177062288,-6.188930517230438e-05
0.004070895560045543,0.0014078878931341064,-6.048361563720618e-05
0.003571685102876248,0.0014117091834655673,-5.9073817098906347e-05
0.003233086311063157,0.001415111569172537,-5.766040672258729e-05
0.0030468361850810024,0.001418251530420609,-5.6243725172790716e-05
0.0029908285932013115,0.0014212703628097502,-5.4823964226175534e-05
0.003033094499355054,0.0014242823243560284,-5.340118788259265e-05
0.0031366451160773742,0.0014273671941637447,-5.1975363123332763e-05
0.0032644050649968826,0.0014305677192542818,-5.054639566662375e-05
0.003383347936949839,0.001433891595755255,-4.9114166009118986e-05
0.003467152107010528,0.0014373168457772353,-4.767856178835274e-05
0.0034971698417272526,0.001440799006751604,-4.623950386208832e-05
0.003462028018126754,0.001444278605681531,-4.479696505587175e-05
0.003356538240311884,0.0014476878888107503,-4.3350981808625614e-05
0.003180655699512479,0.0014509564857806624,-4.1901659621329906e-05
0.002938910937089069,0.0014540162690989632,-4.044917324389009e-05
0.0026401234974517745,0.0014568057863162335,-3.8993762216182495e-05
0.00229663037890779,0.0014592741632544132,-3.7535722241397174e-05
0.0019221435765603358,0.0014613835502321473,-3.6075393384653895e-05
0.0015278984199459367,0.0014631085712304005,-3.461314732392262e-05
0.0011178214652474501,0.0014644314311729972,-3.3149377322720924e-05
0.000684474099427249,0.0014653325789553346,-3.168449531765676e-05
0.00020774927374558587,0.001465778690641921,-3.021893968285813e-05
-0.00034259053462487257,0.0014657112700114815,-2.875319470253143e-05
-0.0010008881683444826,0.0014650395306599969,-2.728781930219569e-05
-0.0017975897990723537,0.0014636402916762884,-2.5823479391027546e-05
-0.0027512606923066956,0.0014613658664305988,-2.4360976311974103e-05
-0.003862453026689183,0.001458059009571101,-2.2901263873973253e-05
-0.005110617138779547,0.0014535724744883665,-2.144544813194352e-05
-0.006454418747796987,0.0014477899565450783,-1.9994766916426796e-05
-0.00783515571034784,0.0014406451693160058,-1.8550549353496253e-05
-0.009182584359718153,0.001432136299280973,-1.7114158619197766e-05
-0.010422213792127447,0.00142233390020505,-1.5686923519454756e-05
-0.01148285229373871,0.001411381367162117,-1.4270065885771172e-05
-0.012303034079070475,0.0013994884239757126,-1.2864630990202258e-05
-0.012835241463517477,0.0013869192862044186,-1.1471427135112193e-05
-0.013047644020029572,0.001373977843462645,-1.009097857027866e-05
-0.012924033108718343,0.001360992004898271,-8.723493646098202e-06
-0.012463163908186196,0.0013482984063898187,-7.368848440454157e-06
-0.011678464744644452,0.0013362275920634032,-6.026585441227546e-06
-0.010598175850432092,0.001325089271765865,-4.695927009312912e-06
-0.009265027704082267,0.0013151576699886077,-3.3758035384356755e-06
-0.007734211613260272,0.0013066580503299364,-2.0648956782764035e-06
-0.006068901165120364,0.0012997564939407462,-7.61688406141062e-07
-0.004333682505545508,0.0012945552021054133,5.354674418820177e-07
-0.0025873289293692437,0.001291094696387956,1.8282923911287024e-06
-0.000876797701228182,0.0012893626330726573,3.118521055859009e-06
0.0007661246074318216,0.0012893072965257592,4.407856020658217e-06
0.0023251546502560394,0.0012908529361546032,5.6979361369983985e-06
0.0037974758748287357,0.0012939142514171455,6.990319730784273e-06
0.005190489524812225,0.001298408234116966,8.28648097355133e-06
0.006518380740049245,0.0013042626692493968,9.587816425234511e-06
0.007799016710809179,0.001311421367974826,1.0895658443846623e-05
0.009051213023772766,0.001319846482842117,1.2211292369255095e-05
0.01029226183334554,0.001329518220270676,1.3535974720811492e-05
0.01153579352925302,0.0013404322479519753,1.4870949954922818e-05
0.012790207145963892,0.0013525952482895838,1.6217463703043598e-05
0.014057787541235526,0.0013660192456331835,1.7576770950004983e-05
0.015334375449632792,0.0013807153271286176,1.8950138236385883e-05
0.016609361660680944,0.0013966871956837745,2.033883949779208e-05
0.01786583415276407,0.001413924793590497,2.1744145492429215e-05
0.019080744425651913,0.001432398082879705,2.3167306930664316e-05
0.020225014709193433,0.0014520509624471275,2.460953145332773e-05
0.021263744745222576,0.0014727953421743356,2.6071954605638462e-05
0.022157003124100422,0.0014945057161089971,2.7555605134780128e-05
0.02286178479579652,0.0015170151100689455,2.90613655478691e-05
0.023335455548938507,0.001540113730241313,3.058992996802423e-05
0.023540536361950838,0.0015635517261967577,3.214176269624326e-05
0.02345013160444909,0.0015870470601799577,3.371706208943162e-05
0.023052748777333005,0.0016102985003708487,3.531573486970703e-05
0.022354986333616128,0.0016330023679263232,3.6937385303855616e-05
0.021380975308442213,0.0016548703487473523,3.8581321662192455e-05
0.020168533155544375,0.0016756451029793457,4.02465793880558e-05
0.018763176033147123,0.0016951109575736915,4.193195741833232e-05
0.01721180909020631,0.0017130984501353681,4.363606212218685e-05
0.015557779147606208,0.0017294832442542743,4.5357352969381675e-05
0.013838175042278819,0.0017441812213492168,4.709418520218342e-05
0.01208325095165488,0.0017571419343461836,4.8844846780031126e-05
0.010317111481320291,0.0017683421155626712,5.0607588804985554e-05
0.008558613476899353,0.001777779978041781,5.238064985178778e-05
0.0068217932193706254,0.001785470181389916,5.416227493150363e-05
0.005115735551705154,0.0017914389457754538,5.595072949508632e-05
0.00344430378350019,0.0017957189654430564,5.7744308450695576e-05
0.0018063601821879194,0.0017983442974259004,5.954134008213006e-05
0.00019703248976009444,0.0017993459937618744,6.134018522772394e-05
-0.0013897309004262727,0.0017987496445565413,6.313923304688315e-05
-0.0029575496326524745,0.001796576004290002,6.493689587130642e-05
-0.004503646681372193,0.0017928454061329896,6.673160657651792e-05
