frame_number,force
0,878.4785200110684
1,878.4928554767015
2,878.5070351835132
3,878.5209044037733
4,878.5343104628778
5,878.5471037442409
6,878.5591386702039
7,878.5702746530287
8,878.580377010402
9,878.5893178399923
10,878.5969768476137
11,878.603242123273
12,878.6080108587815
13,878.6111899999655
14,878.6126968260147
15,878.6124594483953
16,878.6104172223758
17,878.6065210658184
18,878.6007336821968
19,878.5930296870963
20,878.5833956391698
21,878.5718299776014
22,878.5583428686787
23,878.5429559641716
24,878.5257020739135
25,878.5066247545059
26,878.485777815846
27,878.4632247478107
28,878.4390380713158
29,878.4132986206525
30,878.386094766302
31,878.35752158848
32,878.3276800118034
33,878.2966759116007
34,878.2646192028145
35,878.2316229226536
36,878.1978023176225
37,878.1632739444887
38,878.1281547937364
39,878.0925614432356
40,878.0566092487104
41,878.0204115759585
42,877.9840790783841
43,877.9477190229348
44,877.9114346676619
45,877.87532469404
46,877.8394826967176
47,877.803996733014
48,877.7689489344349
49,877.734415182326
50,877.7004648492773
51,877.667160607413
52,877.6345583048507
53,877.6027069121436
54,877.5716485404813
55,877.5414185322547
56,877.5120456227679
57,877.4835521701305
58,877.4559544489279
59,877.4292630016453
60,877.4034830397443
61,877.3786148842269
62,877.3546544343951
63,877.3315936539659
64,877.309421065599
65,877.2881222474496
66,877.2676803276145
67,877.2480764737028
68,877.2292903752327
69,877.2113007166628
70,877.1940856390014
71,877.1776231880428
72,877.1618917469036
73,877.1468704495634
74,877.1325395707951
75,877.1188808864603
76,877.105877996851
77,877.093516604902
78,877.0817847411871
79,877.0706729289342
80,877.0601742846919
81,877.050284553272
82,877.0410020786079
83,877.0323277147249
84,877.0242646828304
85,877.0168183814881
86,877.0099961569668
87,877.0038070403142
88,876.9982614567543
89,876.9933709120156
90,876.9891476596254
91,876.9856043533395
92,876.9827536892477
93,876.9806080420025
94,876.9791790988338
95,876.9784774940036
96,876.9785124458227
97,876.9792913986814
98,876.9808196734483
99,876.9831001305852
100,876.9861328512109
101,876.9899148419345
102,876.9944397693706
103,876.9996977297338
104,877.0056750578251
105,877.0123541781783
106,877.0197134994276
107,877.0277273515508
108,877.0363659650234
109,877.0455954913346
110,877.05537806547
111,877.065671911929
112,877.0764314957431
113,877.0876077188177
114,877.0991481602904
115,877.1109973581856
116,877.1230971289718
117,877.1353869219676
118,877.1478042066525
119,877.1602848920436
120,877.1727637776576
121,877.1851750350812
122,877.1974527182709
123,877.2095312998438
124,877.2213462299366
125,877.2328345134815
126,877.2439353008521
127,877.2545904858384
128,877.2647453039758
129,877.2743489234135
130,877.2833550199293
131,877.291722327534
132,877.2994151563552
133,877.3064038699902
134,877.3126653154934
135,877.3181832007734
136,877.3229484157495
137,877.3269592941094
138,877.3302218118833
139,877.3327497183124
140,877.3345645946358
141,877.335695837747
142,877.3361805678204
143,877.3360634612765
144,877.3353965123421
145,877.3342387281133
146,877.3326557636667
147,877.3307195051523
148,877.3285076092942
149,877.3261030069349
150,877.3235933765984
151,877.3210705925069
152,877.3186301505468
153,877.316370574997
154,877.3143928080467
155,877.3127995835605
156,877.311694786558
157,877.3111828003315
158,877.3113678436724
159,877.3123533013212
160,877.3142410516663
161,877.317130796688
162,877.3211193997375
163,877.3263002367654
164,877.3327625662553
165,877.3405909225662
166,877.3498645368235
167,877.3606567891496
168,877.3730346961686
169,877.3870584383601
170,877.4027809326684
171,877.4202474563157
172,877.4394953279393
173,877.4605536522253
174,877.4834431340886
175,877.5081759676629
176,877.534755803834
177,877.5631777984042
178,877.5934287415545
179,877.6254872677839
180,877.6593241435577
181,877.6949026276325
182,877.7321788969234
183,877.7711025292186
184,877.8116170331747
185,877.8536604158172
186,877.8971657780138
187,877.9420619286747
188,877.988274008365
189,878.0357241125266
190,878.0843319039587
191,878.1340152039804
192,878.1846905519237
193,878.2362737232195
194,878.2886801973344
195,878.341825568497
196,878.3956258947159
197,878.449997983604
198,878.5048596163903
199,878.5601297141037
200,878.6157284523341
201,878.6715773327734
202,878.7275992208032
203,878.7837183590487
204,878.8398603669765
205,878.8959522355514
206,878.9519223236047
207,879.0077003600154
208,879.063217453997
209,879.118406114575
210,879.173200279209
211,879.2275353505522
212,879.2813482398545
213,879.334577415583
214,879.3871629564852
215,879.439046609652
216,879.4901718556707
217,879.5404839840072
218,879.5899301819073
219,879.6384596392795
220,879.6860236702316
221,879.7325758495565
222,879.7780721600672
223,879.8224711448572
224,879.8657340579531
225,879.9078250078761
226,879.9487110907249
227,879.9883625110972
228,880.0267526896127
229,880.0638583553164
230,880.09965962065
231,880.1341400363676
232,880.167286623708
233,880.1990898810624
234,880.2295437620091
235,880.2586456209842
236,880.2863961225959
237,880.3127991112473
238,880.3378614392315
239,880.3615927534001
240,880.3840052424607
241,880.405113348621
242,880.4249334483707
243,880.4434835075997
244,880.4607827162306
245,880.476851107416
246,880.491709166425
247,880.5053774347873
248,880.5178761159024
249,880.5292246888614
250,880.5394415374432
251,880.5485436008388
252,880.5565460512552
253,880.5634620014237
254,880.5693022432008
255,880.5740750177384
256,880.5777858180347
257,880.5804372253373
258,880.5820287812862
259,880.582556897673
260,880.582014805286
261,880.5803925428479
262,880.5776769868843
263,880.5738519234097
264,880.5688981621608
265,880.5627936936858
266,880.5555138893199
267,880.5470317442547
268,880.5373181643713
269,880.5263422976957
270,880.5140719107494
271,880.5004738087779
272,880.4855142974516
273,880.4691596827315
274,880.4513768051147
275,880.4321336038432
276,880.411399705388
277,880.3891470288069
278,880.3653503990686
279,880.3399881585511
280,880.3130427666351
281,880.284501377508
282,880.2543563869797
283,880.2226059401451
284,880.1892543926651
285,880.154312718721
286,880.1177988583544
287,880.0797379967988
288,880.0401627692656
289,879.9991133862303
290,879.956637675868
291,879.912791041651
292,879.867636334524
293,879.8212436407583
294,879.7736899883995
295,879.7250589768552
296,879.6754403354802
297,879.624929418139
298,879.5736266417032
299,879.5216368771946
300,879.4690688027796
301,879.4160342280874
302,879.3626473995275
303,879.3090242963044
304,879.2552819262544
305,879.2015376292635
306,879.1479083942088
307,879.0945101935341
308,879.0414573378723
309,878.9888618517784
310,878.936832870852
311,878.8854760602853
312,878.8348930550133
313,878.7851809220648
314,878.736431646391
315,878.6887316423466
316,878.6421612942331
317,878.5967945306458
318,878.5526984383104
319,878.5099329211673
320,878.4685504094874
321,878.4285956220697
322,878.3901053827275
323,878.3531084909472
324,878.317625645809
325,878.2836694218013
326,878.2512442952129
327,878.2203467206178
328,878.1909652580492
329,878.1630807517589
330,878.1366665605003
331,878.1116888377155
332,878.0881068589736
333,878.0658733941153
334,878.044935122364
335,878.025233089209
336,878.0067032036009
337,877.9892767733021
338,877.9728810759149
339,877.9574399634596
340,877.942874498948
341,877.9291036235113
342,877.9160448520644
343,877.9036149944933
344,877.8917308982366
345,877.8803102068505
346,877.8692721275788
347,877.8585381991081
348,877.8480330488561
349,877.8376851277183
350,877.8274274096177
351,877.8171980435953
352,877.8069409472931
353,877.7966063322679
354,877.7861511534409
355,877.7755394768617
356,877.7647427616381
357,877.7537400534089
358,877.7425180881463
359,877.7310713063231
360,877.719401778548
361,877.7075190444351
362,877.6954398665783
363,877.6831879015787
364,877.6707932912404
365,877.6582921797271
366,877.6457261655967
367,877.6331416996692
368,877.6205894399699
369,877.6081235740927
370,877.5958011181189
371,877.5836812002783
372,877.5718243372185
373,877.5602917111569
374,877.5491444568851
375,877.5384429678201
376,877.5282462297196
377,877.5186111895928
378,877.5095921661759
379,877.5012403073158
380,877.493603098675
381,877.4867239272307
382,877.4806417019435
383,877.4753905326847
384,877.4709994673113
385,877.4674922857619
386,877.4648873489808
387,877.4631974991524
388,877.4624300064207
389,877.4625865564494
390,877.4636632732162
391,877.4656507724999
392,877.468534243391
393,877.4722935569444
394,877.4769034017863
395,877.4823334458658
396,877.4885485222267
397,877.4955088354113
398,877.5031701843108
399,877.5114841971523
400,877.5203985748519
401,877.5298573398168
402,877.5398010879582
403,877.5501672418254
404,877.5608903026028
405,877.5719020987978
406,877.5831320299632
407,877.5945073044555
408,877.6059531708397
409,877.6173931432617
410,877.6287492219245
411,877.6399421103132
412,877.6508914305933
413,877.6615159377055
414,877.6717337317529
415,877.6814624680376
416,877.690619564833
417,877.6991224105237
418,877.7068885736933
419,877.713836021446
420,877.7198833521094
421,877.7249500482833
422,877.7289567551404
423,877.7318255872118
424,877.7334804647527
425,877.7338474784892
426,877.7328552797834
427,877.7304354926092
428,877.7265231442275
429,877.7210571126353
430,877.7139805902312
431,877.7052415640958
432,877.6947933135059
433,877.6825949246459
434,877.6686118209008
435,877.652816304797
436,877.6351881051121
437,877.6157149204205
438,877.5943929486987
439,877.5712273916301
440,877.546232921927
441,877.5194341022535
442,877.4908657451373
443,877.4605732045053
444,877.428612591062
445,877.3950509053276
446,877.3599660834868
447,877.3234469523172
448,877.2855930906242
449,877.2465145960008
450,877.2063317571648
451,877.165174633101
452,877.123182540427
453,877.0805034503594
454,877.0372932973129
455,876.9937152026727
456,876.9499386190129
457,876.9061384017381
458,876.8624938168931
459,876.8191874953875
460,876.7764043444633
461,876.734330426691
462,876.6931518154792
463,876.6530534346489
464,876.6142178886357
465,876.5768242898315
466,876.5410470904959
467,876.5070549281152
468,876.4750094944366
469,876.4450644392689
470,876.4173643205688
471,876.3920436125685
472,876.3692257835776
473,876.349022454132
474,876.331532644318
475,876.3168421171307
476,876.3050228233698
477,876.2961324527671
478,876.2902140951868
479,876.2872960147325
480,876.287391538785
481,876.2904990634926
482,876.2966021765085
483,876.3056698962973
484,876.3176570253271
485,876.3325046126008
486,876.350140519736
487,876.37048008395
488,876.3934268703348
489,876.4188735046669
490,876.4467025771935
491,876.4767876077559
492,876.5089940630645
493,876.543180417561
494,876.579199249812
495,876.6168983664928
496,876.6561219454055
497,876.6967116876921
498,876.7385079681974
499,876.7813509727013
500,876.8250818116363
501,876.8695436013778
502,876.9145825055504
503,876.9600487294869
504,877.0057974606898
505,877.0516897471664
506,877.0975933047616
507,877.1433832448588
508,877.1889427150215
509,877.2341634467095
510,877.2789462057884
511,877.3232011432024
512,877.3668480448822
513,877.4098164814255
514,877.4520458592315
515,877.4934853759355
516,877.5340938844054
517,877.5738396708163
518,877.6127001526113
519,877.65066150125
520,877.6877181933488
521,877.723872493265
522,877.759133870882
523,877.7935183599938
524,877.8270478644667
525,877.8597494204407
526,877.891654423
527,877.9227978254405
528,877.9532173189011
529,877.9829524997068
530,878.0120440313661
531,878.040532808392
532,878.068459130416
533,878.0958618969687
534,878.1227778348274
535,878.149240770425
536,878.1752809594147
537,878.200924484486
538,878.2261927314918
539,878.2511019532234
540,878.275662929519
541,878.2998807313624
542,878.3237545950572
543,878.3472779105523
544,878.3704383257576
545,878.3932179663354
546,878.415593768024
547,878.4375379160552
548,878.4590183835337
549,878.4799995576444
550,878.5004429398126
551,878.5203079043837
552,878.539552500394
553,878.5581342820662
554,878.5760111549254
555,878.5931422252506
556,878.6094886408567
557,878.6250144113378
558,878.6396871961826
559,878.6534790495601
560,878.6663671112453
561,878.6783342345761
562,878.6893695444991
563,878.699468921086
564,878.7086354056061
565,878.7168795270364
566,878.7242195471621
567,878.7306816228065
568,878.7362998847263
569,878.7411164341146
570,878.7451812588957
571,878.7485520726219
572,878.7512940786304
573,878.7534796611008
574,878.755188003115
575,878.7565046307478
576,878.7575208822789
577,878.758333302638
578,878.759042964733
579,878.759754721174
580,878.7605763917385
581,878.7616178932583
582,878.7629903195132
583,878.7648049798199
584,878.7671724067854
585,878.770201345897
586,878.773997741506
587,878.7786637347541
588,878.7842966891981
589,878.7909882597489
590,878.798823520308
591,878.8078801649818
592,878.8182277967181
593,878.8299273156728
594,878.8430304179584
595,878.8575792137331
596,878.8736059716437
597,878.891132994316
598,878.9101726269304
599,878.9307273977951
600,878.9527902862527
601,878.976345109846
602,879.0013670202246
603,879.0278230959091
604,879.0556730191
605,879.0848698227732
606,879.1153606936397
607,879.1470878167812
608,879.1799892488326
609,879.2139998075396
610,879.2490519654672
611,879.2850767347524
612,879.3220045291248
613,879.3597659897172
614,879.3982927622508
615,879.437518214399
616,879.4773780833275
617,879.5178110449108
618,879.5587591981513
619,879.6001684607269
620,879.6419888741018
621,879.6841748190636
622,879.7266851446648
623,879.7694832151276
624,879.8125368802047
625,879.8558183748548
626,879.8993041543247
627,879.9429746712527
628,879.986814102257
629,880.03081003217
630,880.074953104173
631,880.1192366437003
632,880.1636562636901
633,880.2082094587394
634,880.2528951954283
635,880.2977135048899
636,880.3426650817669
637,880.3877508917863
638,880.4329717890093
639,880.4783281435934
640,880.5238194814676
641,880.5694441383007
642,880.6151989310373
643,880.6610788507686
644,880.7070767809896
645,880.7531832457565
646,880.7993861928035
647,880.8456708166586
648,880.8920194257049
649,880.9384113551378
650,880.9848229254461
651,881.0312274439482
652,881.0775952455832
653,881.123893768533
654,881.1700876598147
655,881.2161389055514
656,881.2620069805351
657,881.3076490121013
658,881.3530199539389
659,881.3980727660434
660,881.4427585975001
661,881.4870269691568
662,881.530825953403
663,881.5741023482906
664,881.6168018433492
665,881.6588691750613
666,881.7002482711396
667,881.7408823842956
668,881.780714217636
669,881.8196860446947
670,881.8577398273363
671,881.8948173347079
672,881.9308602663293
673,881.9658103822698
674,881.9996096430225
675,882.0322003610256
676,882.0635253646363
677,882.0935281741004
678,882.1221531883745
679,882.149345881859
680,882.1750530104887
681,882.1992228263542
682,882.2218052990013
683,882.2427523404635
684,882.262018030635
685,882.27955884007
686,882.2953338485979
687,882.3093049595816
688,882.3214371103621
689,882.3316984792109
690,882.3400606883147
691,882.3464990014021
692,882.3509925137815
693,882.3535243317386
694,882.3540817372882
695,882.3526563331947
696,882.3492441624246
697,882.3438457964473
698,882.3364663882178
699,882.3271156876046
700,882.315808018451
701,882.3025622169646
702,882.287401531459
703,882.270353484657
704,882.2514497019695
705,882.2307257114351
706,882.208220722563
707,882.1839773920588
708,882.1580415845141
709,882.1304621355127
710,882.1012906231183
711,882.0705811514628
712,882.0383901473543
713,882.0047761679244
714,881.9697997150544
715,881.9335230514104
716,881.8960100134742
717,881.8573258185017
718,881.8175368642965
719,881.7767105228081
720,881.7349149305035
721,881.6922187794062
722,881.6486911119923
723,881.6044011211462
724,881.5594179542694
725,881.5138105192269
726,881.4676472890653
727,881.4209961021072
728,881.3739239542952
729,881.3264967816137
730,881.2787792315811
731,881.2308344237107
732,881.1827236996093
733,881.1345063639532
734,881.0862394175648
735,881.0379772831637
736,880.9897715237312
737,880.9416705534468
738,880.8937193419981
739,880.8459591144355
740,880.7984270501869
741,880.7511559861299
742,880.704174129795
743,880.6575047898285
744,880.6111661315326
745,880.5651709653177
746,880.5195265750949
747,880.4742345921348
748,880.4292909181008
749,880.38468569925
750,880.34040335248
751,880.2964226429524
752,880.2527168122804
753,880.2092537558577
754,880.1659962480531
755,880.1229022146148
756,880.0799250521658
757,880.0370139947319
758,879.9941145267537
759,879.9511688410244
760,879.9081163384277
761,879.8648941645348
762,879.8214377766817
763,879.7776815345311
764,879.7335593070175
765,879.689005088301
766,879.6439536146538
767,879.598340973342
768,879.5521051940229
769,879.5051868131447
770,879.4575294021305
771,879.4090800507025
772,879.3597897981662
773,879.3096140082914
774,879.2585126869583
775,879.2064507446822
776,879.1533982078305
777,879.0993303830347
778,879.0442279795712
779,878.9880771944796
780,878.9308697647137
781,878.8726029897389
782,878.8132797271445
783,878.7529083633809
784,878.6915027617863
785,878.6290821905678
786,878.5656712340526
787,878.5012996909502
788,878.4360024632687
789,878.3698194387227
790,878.3027953679313
791,878.2349797358154
792,878.1664266252017
793,878.0971945702847
794,878.0273463982071
795,877.9569490578912
796,877.8860734357398
797,877.8147941576528
798,877.7431893763313
799,877.6713405427446
800,877.5993321613721
801,877.5272515300338
802,877.4551884660086
803,877.3832350202267
804,877.3114851808141
805,877.240034566536
806,877.1689801098744
807,877.0984197287548
808,877.0284519856768
809,876.959175733437
810,876.8906897475824
811,876.8230923467576
812,876.756481002918
813,876.6909519439325
814,876.6265997514435
815,876.563516957112
816,876.5017936406125
817,876.441517032843
818,876.3827711276966
819,876.3256363054962
820,876.2701889709192
821,876.2165012078511
822,876.1646404530537
823,876.1146691900963
824,876.0666446649601
825,876.0206186250613
826,875.9766370839893
827,875.9347401149072
828,875.8949616759555
829,875.8573294706478
830,875.8218648450086
831,875.7885827215316
832,875.7574915684796
833,875.7285934020481
834,875.7018838185995
835,875.6773520544367
836,875.6549810712733
837,875.6347476667255
838,875.6166226108032
839,875.600570811166
840,875.5865515111587
841,875.5745185247698
842,875.5644205115262
843,875.5562012922542
844,875.5498002040118
845,875.5451524898983
846,875.5421897174996
847,875.5408402190649
848,875.5410295472133
849,875.542680941461
850,875.5457158021657
851,875.5500541688432
852,875.555615199127
853,875.5623176434568
854,875.5700803095193
855,875.5788225098606
856,875.588464486199
857,875.5989278050791
858,875.610135721518
859,875.6220135093921
860,875.6344887586913
861,875.6474916403528
862,875.6609551397463
863,875.6748152604146
864,875.6890112002949
865,875.7034855030814
866,875.7181841874121
867,875.733056856125
868,875.7480567871238
869,875.7631410068694
870,875.7782703474269
871,875.7934094880968
872,875.8085269826278
873,875.8235952729941
874,875.8385906910081
875,875.8534934495144
876,875.8682876252612
877,875.8829611355642
878,875.8975057104788
879,875.9119168614575
880,875.926193846694
881,875.9403396326587
882,875.9543608504779
883,875.9682677447158
884,875.9820741111826
885,875.9957972202565
886,876.0094577231413
887,876.0230795399748
888,876.0366897298833
889,876.0503183433622
890,876.0639982568706
891,876.0777649887976
892,876.0916564954249
893,876.1057129452728
894,876.1199764702413
895,876.1344908924102
896,876.1493014263735
897,876.1644543581019
898,876.1799967019683
899,876.1959758378069
900,876.2124391303822
901,876.2294335347924
902,876.2470051927465
903,876.2651990256772
904,876.2840583311
905,876.3036243887839
906,876.3239360832279
907,876.3450295485391
908,876.3669378411493
909,876.3896906451218
910,876.4133140140498
911,876.4378301523689
912,876.4632572372245
913,876.4896092803936
914,876.5168960288792
915,876.545122902537
916,876.5742909665624
917,876.6043969355585
918,876.6354332052383
