acceleration,velocity,displacement
-0.001549278536642711,0.0,0.0
-0.0018648974607206614,-8.535439993408432e-07,-2.133859998352108e-10
-0.0021691898126850306,-1.862065817692266e-06,-8.922884540934881e-10
-0.0024628481594336517,-3.020075310721937e-06,-2.1128237361970386e-09
-0.0027466164837242,-4.3224414715114e-06,-3.948452931755373e-09
-0.0030212832018838235,-5.764416392913406e-06,-6.470167397861575e-09
-0.003287674102029208,-7.341655718891664e-06,-9.746685425812843e-09
-0.003546645265408649,-9.050235560751128e-06,-1.3844658245723541e-08
-0.0037990760209534926,-1.0886665882341664e-05,-1.8828883606496738e-08
-0.004045861977926326,-1.2847900382061618e-05,-2.476252517259756e-08
-0.004287908178507908,-1.4931342921170177e-05,-3.170733599840551e-08
-0.00452612240907957,-1.7134850568067048e-05,-3.972388437071482e-08
-0.004761408703251115,-1.945673334614972e-05,-4.887178034926901e-08
-0.004994661059625292,-2.189575078686882e-05,-5.920990138252365e-08
-0.005226757389406335,-2.445110539912673e-05,-7.079661542902253e-08
-0.0054585537128819415,-2.7122433174698797e-05,-8.369000007247892e-08
-0.005690878637951399,-2.9909791262407133e-05,-9.79480561817554e-08
-0.005924528163813548,-3.281364296284837e-05,-1.1362891473806928e-07
-0.0061602608473283055,-3.583484021563383e-05,-1.3079103553268983e-07
-0.006398793352818167,-3.897460376567045e-05,-1.494933965280159e-07
-0.006640796390235543,-4.223450120143388e-05,-1.6979567276979198e-07
-0.006886891037461707,-4.5616423058358194e-05,-1.9175840383474e-07
-0.007137645435856129,-4.9122557176687656e-05,-2.1544314889350148e-07
-0.007393571836259521,-5.2755361494716565e-05,-2.409126285613525e-07
-0.007655123954175947,-5.6517535442325434e-05,-2.68230852795613e-07
-0.007922694577936703,-6.04119900753536e-05,-2.9746323417503274e-07
-0.008196613374670208,-6.444181706350533e-05,-3.2867668595974746e-07
-0.008477144856948235,-6.861025662140994e-05,-3.6193970438097626e-07
-0.008764486499276686,-7.292066446046617e-05,-3.9732243465144526e-07
-0.009058767019015672,-7.737647784003925e-05,-4.348967202265716e-07
-0.009360044855545431,-8.198118080867952e-05,-4.747361348887513e-07
-0.009668306893513702,-8.67382687459443e-05,-5.169159972774073e-07
-0.009983467482200845,-9.165121233987295e-05,-5.615133675488616e-07
-0.010305367803179347,-9.672342116121799e-05,-6.086070259241344e-07
-0.010633775629615639,-0.00010195820701941673,-6.58277432969293e-07
-0.010968385504324826,-0.00010735874730290185,-7.106066715498727e-07
-0.011308819349161513,-0.00011292804851627344,-7.656783705046665e-07
-0.011654627513118826,-0.00011866891023184352,-8.235776101916958e-07
-0.01200529026741123,-0.00012458388967697605,-8.843908101689007e-07
-0.012360219753784981,-0.0001306752671822751,-9.482055993837135e-07
-0.012718762382864162,-0.00013694501271643738,-1.0151106693583916e-06
-0.013080201666159504,-0.0001433947537286933,-1.0851956109696742e-06
-0.013443761455564857,-0.0001500257445091244,-1.1585507355291287e-06
-0.013808609562712772,-0.0001568388372636938,-1.2352668809723332e-06
-0.01417386173724271,-0.00016383445508868268,-1.3154352040604273e-06
-0.014538585993980347,-0.00017101256702148845,-1.39914695958797e-06
-0.014901807290890917,-0.00017837266534270627,-1.4864932676790188e-06
-0.01526251256866068,-0.00018591374530759416,-1.577564870341594e-06
-0.015619656162681015,-0.00019363428749042958,-1.6724518785411e-06
-0.015972165585079707,-0.00020153224292736977,-1.7712435111455497e-06
-0.016318947655923094,-0.00020960502123762046,-1.8740278271867972e-06
-0.016658894951611575,-0.00021784948188950412,-1.9808914529685782e-06
-0.01699089253719535,-0.00022626192876170584,-2.0919193056313808e-06
-0.017313824948087895,-0.00023483810813302667,-2.207194314855064e-06
-0.017626583378074642,-0.0002435732102145673,-2.3267971444419624e-06
-0.017928073018522353,-0.0002524618743137165,-2.4508059155740332e-06
-0.018217220487325037,-0.0002614981976901784,-2.579295933575007e-06
-0.01849298129011897,-0.0002706757481345394,-2.7123394200311866e-06
-0.018754347266803008,-0.0002799875802737699,-2.850005252133264e-06
-0.019000353985718164,-0.0002894262555869002,-2.9923587110984313e-06
-0.019230088054538415,-0.00029898386609696434,-3.1394612415193973e-06
-0.019442694324782885,-0.00030865206169179466,-3.291370223466587e-06
-0.019637382972462588,-0.00031842208101610605,-3.448138759143562e-06
-0.019813436429865935,-0.00032828478586668816,-3.609815475864261e-06
-0.019970216119960485,-0.0003382306990041448,-3.776444347081969e-06
-0.020107168915456154,-0.00034825004526299895,-3.948064533148755e-06
-0.020223833222012388,-0.0003583327957973661,-4.1247102434138455e-06
-0.02031984457715503,-0.00036846871524715794,-4.306410621174977e-06
-0.020394940664861923,-0.00037864741155766216,-4.493189652876182e-06
-0.02044896566460982,-0.0003888583881400301,-4.685066102800605e-06
-0.020481873870497297,-0.00039909109802380686,-4.882053474341564e-06
-0.020493732523755557,-0.0004093349996223701,-5.084159998753108e-06
-0.020484723806317592,-0.0004195796137048884,-5.291388652084923e-06
-0.0204551459531415,-0.0004298145811447532,-5.503737200797334e-06
-0.02040541345601008,-0.0004400297209970411,-5.721198276332783e-06
-0.02033605634450718,-0.0004502150884471704,-5.9437594786938355e-06
-0.020247718536854507,-0.0004603610321675108,-6.171403508847506e-06
-0.020141155253563487,-0.0004704582506151153,-6.404108329543163e-06
-0.020017229481279215,-0.00048049784679882597,-6.641847353896648e-06
-0.019876907469651574,-0.0004904713810365587,-6.884589660855493e-06
-0.019721253250248778,-0.0005003709212165338,-7.132300236418766e-06
-0.019551422187017664,-0.0005101890900758504,-7.384940239241862e-06
-0.019368653597047453,-0.0005199191090218667,-7.642467289016291e-06
-0.019174262509462883,-0.0005295548380484943,-7.904835775783882e-06
-0.018969630651365733,-0.0005390908113387015,-8.17199718813068e-06
-0.018756196759550835,-0.0005485222681914306,-8.443900458013214e-06
-0.018535446317449335,-0.0005578451789606806,-8.720492319801242e-06
-0.01830890081249078,-0.0005670562657431657,-9.001717680977204e-06
-0.018078106604216448,-0.0005761530175973425,-9.28752000181233e-06
-0.01784462349260163,-0.0005851337001215469,-9.577841681242052e-06
-0.017610013080452448,-0.0005939973592648105,-9.872624446088641e-06
-0.017375827029704447,-0.0006027438192923497,-1.0171809740727932e-05
-0.017143595315295777,-0.0006113736748785997,-1.0475339114270668e-05
-0.016914814582097853,-0.0006198882773529482,-1.0783154602328555e-05
-0.016690936712652805,-0.0006282897151766359,-1.1095199100460951e-05
-0.016473357717871544,-0.0006365807887842669,-1.1411416726451176e-05
-0.016263407067957137,-0.0006447649799807241,-1.1731753168642423e-05
-0.016062337583353566,-0.0006528464161435518,-1.2056156017673493e-05
-0.015871316003864194,-0.0006608298295403563,-1.238457507909447e-05
-0.01569141434803492,-0.000668720512128331,-1.2716962664511641e-05
-0.01552360216127949,-0.0006765242662556596,-1.305327385910764e-05
-0.015368739726744967,-0.0006842473517276658,-1.3393466763603472e-05
-0.015227572280502762,-0.0006918964297294777,-1.3737502708967758e-05
-0.0151007252421791,-0.0006994785041101482,-1.4085346442427665e-05
-0.014988700454766813,-0.0007070008605343847,-1.4436966283588797e-05
-0.0148918734289029,-0.0007144710040053021,-1.479233424972372e-05
-0.014810491603377583,-0.0007218965952633722,-1.5151426149540888e-05
-0.01474467365203401,-0.0007292853865772251,-1.5514221645001036e-05
-0.014694409873126908,-0.0007366451574585153,-1.588070428100997e-05
-0.01465956368344447,-0.0007439836508476581,-1.6250861483086512e-05
-0.014639874209376763,-0.0007513085103208635,-1.6624684523378642e-05
-0.01463495993050703,-0.0007586272188558344,-1.7002168455672816e-05
-0.0146443232986315,-0.000765947039663119,-1.7383312020302556e-05
-0.014667356232259319,-0.0007732749595458418,-1.7768117520104796e-05
-0.014703346374328687,-0.0007806176351974887,-1.815659066879063e-05
-0.014751483999922372,-0.0007879813427910515,-1.8548740413287765e-05
-0.014810869473230974,-0.0007953719311593399,-1.8944578731775363e-05
-0.01488052117380427,-0.0008027947788210987,-1.9344120409270472e-05
-0.014959383828030448,-0.0008102547550715573,-1.9747382792743635e-05
-0.01504633718348185,-0.0008177561853244354,-2.0154385527842632e-05
-0.015140204953655935,-0.0008253028208587198,-2.056515027938842e-05
-0.01523976394794862,-0.000832897813084121,-2.097970043787413e-05
-0.015343753296790406,-0.0008405436923953057,-2.139806081424399e-05
-0.015450883689783224,-0.0008482423516419491,-2.1820257325253304e-05
-0.015559846557858319,-0.0008559950342038595,-2.2246316671714757e-05
-0.015669323134203,-0.0008638023266268748,-2.267626601192244e-05
-0.015777993320074558,-0.0008716641557404443,-2.3110132632514272e-05
-0.0158845442748533,-0.0008795797901391762,-2.3547943618984176e-05
-0.01598767865847209,-0.0008875478458725076,-2.39897255279871e-05
-0.016086122474742306,-0.0008955662961558112,-2.4435504063494177e-05
-0.01617863247954764,-0.0009036324848943837,-2.4885303758756727e-05
-0.016264003117577797,-0.000911743143793665,-2.533914766592874e-05
-0.016341072940660402,-0.0009198944128082245,-2.579705705507921e-05
-0.016408730454300306,-0.0009280818636569647,-2.6259051124195508e-05
-0.01646591934642169,-0.0009363005261071452,-2.6725146721636535e-05
-0.016511643072953816,-0.000944544916711989,-2.719535808234132e-05
-0.016544968803554442,-0.0009528090696811161,-2.7669696578939595e-05
-0.016565030759443516,-0.0009610865695718656,-2.814817048875284e-05
-0.01657103299247688,-0.0009693705855098457,-2.863078477752327e-05
-0.01656225165138471,-0.0009776539066708111,-2.9117540900568435e-05
-0.016538036761297295,-0.0009859289787739816,-2.9608436621929633e-05
-0.016497813521769274,-0.0009941879413447484,-3.0103465851959316e-05
-0.01644108312096129,-0.001002422665505431,-3.060261850367186e-05
-0.016367423072281832,-0.0010106247920537417,-3.110588036806165e-05
-0.016276487096888337,-0.0010187857695960342,-3.161323300847409e-05
-0.016168004590305447,-0.0010268968925178327,-3.212465367400256e-05
-0.01604177971658176,-0.0010349493385945544,-3.264011523178066e-05
-0.015897690167004697,-0.001042934206065451,-3.315958611794566e-05
-0.01573568560669769,-0.0010508425500088767,-3.368303030696424e-05
-0.015555785821469359,-0.0010586654178659186,-3.421040729893294e-05
-0.01535807857788345,-0.0010663938839657568,-3.4741672124390864e-05
-0.015142717220417237,-0.001074019082915332,-3.527677536611114e-05
-0.014909918043183748,-0.0010815322417312323,-3.581566319727278e-05
-0.014659957485940314,-0.0010889247106135134,-3.635827743535897e-05
-0.01439316921448663,-0.0010961879922886202,-3.69045556110845e-05
-0.01410994114963843,-0.0011033137698796514,-3.745443105162657e-05
-0.013810712502333377,-0.0011102939332926444,-3.800783297741965e-05
-0.013495970858116765,-0.001117120604132757,-3.8564686611776e-05
-0.013166249338152648,-0.0011237861591818243,-3.9124913302604646e-05
-0.012822123845748424,-0.0011302832524777995,-3.968843065551955e-05
-0.012464210384098109,-0.001136604836035261,-4.0255152677647814e-05
-0.012093162404243775,-0.0011427441792323464,-4.082498993146472e-05
-0.011709668118026824,-0.001148694886862914,-4.1397849697988535e-05
-0.01131444769494752,-0.0011544509158161577,-4.19736361486583e-05
-0.010908250258286263,-0.0011600065903044662,-4.255225052518845e-05
-0.010491850605674284,-0.0011653566155204564,-4.313359132664468e-05
-0.010066045600273466,-0.0011704960895719434,-4.371755450291778e-05
-0.009631650206704053,-0.001175420513523688,-4.4304033653691685e-05
-0.00918949317595772,-0.0011801257993693534,-4.4892920231914944e-05
-0.008740412410406524,-0.0011846082757659446,-4.548410375069877e-05
-0.008285250058120234,-0.0011888646913830762,-4.607747199248602e-05
-0.007824847392047075,-0.001192892215745618,-4.6672911219268195e-05
-0.007360039526744445,-0.001196688437475316,-4.727030638257343e-05
-0.006891650020805898,-0.0012002513598622035,-4.786954133190781e-05
-0.00642048541314352,-0.0012035793937206908,-4.8470499020303536e-05
-0.005947329746435311,-0.0012066713475105855,-4.9073061705611353e-05
-0.00547293913874439,-0.0012095264147318804,-4.967711114617197e-05
-0.004998036471352665,-0.0012121441586344047,-5.0282528789513544e-05
-0.004523306264453155,-0.0012145244943183562,-5.088919595275173e-05
-0.0040493898100073256,-0.0012166676683369713,-5.149699399341557e-05
-0.0035768806204332423,-0.0012185742359445814,-5.210580446948596e-05
-0.0031063202344469953,-0.0012202450361583014,-5.271550928751168e-05
-0.002638194406087529,-0.001221681164818435,-5.332599083775586e-05
-0.0021729297010856827,-0.0012228839458452282,-5.3937132115421775e-05
-0.0017108905393867816,-0.0012238549009053463,-5.454881682710942e-05
-0.0012523767444224388,-0.0012245957177262987,-5.516092948176733e-05
-0.0007976216735024353,-0.00122510821733078,-5.57733554655316e-05
-0.0003467910013692951,-0.001225394320499498,-5.638598109998917e-05
0.00010001778187047364,-0.0012254560138043726,-5.699869368356514e-05
0.0005427751025455667,-0.0012252953155832684,-5.761138151591205e-05
0.000981518206882913,-0.0012249142422559114,-5.822393390537185e-05
0.0014163491810288943,-0.0012243147754089335,-5.883624115978806e-05
0.0018474320504401269,-0.0012234988301010662,-5.9448194561165556e-05
0.002274988949899636,-0.0012224682248509811,-6.005968632490357e-05
0.0026992953821870012,-0.0012212246537679594,-6.06706095445583e-05
0.003120674600627765,-0.0012197696612722558,-6.128085812331836e-05
0.003539491159340168,-0.0012181046198322639,-6.189032669359449e-05
0.003956143684304006,-0.0012162307111213528,-6.249891052633289e-05
0.004371056939407341,-0.001214148910965425,-6.310650543185459e-05
0.004784673295913455,-0.001211859978406595,-6.371300765419759e-05
0.005197443749065136,-0.0012093644491453504,-6.431831376108558e-05
0.005609818647237267,-0.0012066626335462747,-6.49223205317585e-05
0.006022238303730746,-0.0012037546193085326,-6.55249248449722e-05
0.0064351236556115425,-0.001200640278818697,-6.612602356950401e-05
0.0068488671237740715,-0.0011973192811238506,-6.672551345948964e-05
0.007263823816722066,-0.0011937911083887266,-6.732329105686778e-05
0.007680303211793647,-0.0011900550766315977,-6.791925260312287e-05
0.008098561445308709,-0.0011861103604673222,-6.85132939623976e-05
0.008518794345954955,-0.0011819560215195063,-6.91053105578943e-05
0.008941131349738462,-0.0011775910400955829,-6.969519732329807e-05
0.009365630435564097,-0.0011730143496492572,-7.028284867073428e-05
0.009792274210272107,-0.0011682248734877982,-7.086815847651854e-05
0.010220967242974143,-0.0011632215631244866,-7.145102008567161e-05
0.010651534702473221,-0.0011580034376381246,-7.203132633586227e-05
0.01108372230086247,-0.0011525696233872908,-7.260896960111863e-05
0.011517197503734733,-0.0011469193934361415,-7.318384185532449e-05
0.011951551936700678,-0.0011410522060760326,-7.375583475520253e-05
0.012386304893975304,-0.0011349677418683636,-7.432483974218863e-05
0.012820907831763444,-0.0011286659386869288,-7.489074816232746e-05
0.013254749708174139,-0.0011221470243019443,-7.545345140307468e-05
0.013687163020883904,-0.0011154115461196798,-7.601284104568008e-05
0.01411743039938954,-0.0011084603977646115,-7.656880903165116e-05
0.014544791624452071,-0.0011012948422586511,-7.712124784165698e-05
0.014968450961699785,-0.0010939165316121132,-7.767005068512467e-05
0.015387584705238001,-0.0010863275226953787,-7.821511169870154e-05
0.015801348835320316,-0.0010785302893102392,-7.875632615170294e-05
0.016208886704029268,-0.001070527730425402,-7.929359065663684e-05
0.016609336669698292,-0.00106232317458197,-7.982680338288869e-05
0.017001839601428533,-0.0010539203805141884,-8.035586427166273e-05
0.017385546174966165,-0.0010453235340700897,-8.088067525030879e-05
0.01775962388850814,-0.0010365372415542212,-8.140114044421487e-05
0.018123263743478765,-0.0010275665196462244,-8.191716638451498e-05
0.01847568655593637,-0.0010184167820713706,-8.242866220994438e-05
0.018816148881207775,-0.0010090938232120846,-8.293553986126525e-05
0.019143948543339357,-0.000999603798855948,-8.343771426678226e-05
0.019458429765720268,-0.000989953204278683,-8.393510351756591e-05
0.019758987905492797,-0.0009801488498608797,-8.44276290311008e-05
0.020045073799520405,-0.0009701978344346264,-8.491521570217468e-05
0.020316197728032906,-0.0009601075165527381,-8.539779203992152e-05
0.020571932996124132,-0.0009498854838716988,-8.587529029002763e-05
0.02081191913138249,-0.0009395395208398222,-8.634764654120551e-05
0.021035864698280764,-0.0009290775748824064,-8.681480081513606e-05
0.0212435497259212,-0.0009185077212763559,-8.727669713917576e-05
0.02143482772670568,-0.0009078381269131991,-8.773328360122315e-05
0.021609627256301046,-0.0008970770131674474,-8.81845123862433e-05
0.021767952947009905,-0.0008862326181166197,-8.863033979406433e-05
0.021909885946273227,-0.0008753131583932989,-8.90707262381918e-05
0.022035583703583165,-0.0008643267909808348,-8.950563622553534e-05
0.022145279064423023,-0.0008532815752888332,-8.993503831710276e-05
0.02223927864960432,-0.0008421854358603263,-9.035890506989005e-05
0.022317960524923512,-0.0008310461260666943,-9.07772129603718e-05
0.02238177119466019,-0.0008198711931367983,-9.118994229017267e-05
0.02243122197517451,-0.0008086679448443397,-9.159707707466796e-05
0.022466884817993152,-0.0007974434181460477,-9.199860491541557e-05
0.022489387657146663,-0.0007862043500272628,-9.239451685745889e-05
0.022499409358936254,-0.000774957150773242,-9.278480723265901e-05
0.022497674358084876,-0.0007637078798439867,-9.316947349031331e-05
0.02248494706841399,-0.0007524622244873619,-9.354851601639615e-05
0.022462026151522693,-0.0007412254811823778,-9.392193794281358e-05
0.022429738713792422,-0.000730002539966049,-9.428974494810069e-05
0.022388934487463426,-0.000718797871665735,-9.465194505100864e-05
0.022340480039722273,-0.0007076155180339385,-9.500854839843355e-05
0.022285253044850285,-0.0006964590847627954,-9.535956704913274e-05
0.02222413665042406,-0.0006853317373389768,-9.570501475465818e-05
0.02215801397334467,-0.0006742361996830347,-9.604490673891368e-05
0.0220877627754244,-0.0006631747554958424,-9.63792594777084e-05
0.022014250384342546,-0.0006521492522059007,-9.670809047963383e-05
0.021938328932259898,-0.0006411611073767501,-9.703141806952949e-05
0.021860830971715466,-0.0006302113174007563,-9.734926117572386e-05
0.021782565497453887,-0.0006193004682834639,-9.766163912214492e-05
0.021704314367211448,-0.0006084287483172976,-9.796857142629511e-05
0.021626829090708673,-0.0005975959624528176,-9.827007760398764e-05
0.02155082794845456,-0.0005868015481930267,-9.856617698164911e-05
0.021476993402187314,-0.0005760445928553663,-9.88568885169112e-05
0.02140596976005303,-0.0005653238520648063,-9.914223062814124e-05
0.02133836106395201,-0.000554637769358805,-9.942222103349714e-05
0.02127472917583368,-0.0005439844967988586,-9.969687660003655e-05
0.021215592048658166,-0.0005333619164927356,-9.996621320335945e-05
0.021161422169395115,-0.0005227676629382224,-0.00010023024559821719
0.02111264515723751,-0.0005121991461065642,-0.00010048898730047838
0.021069638497886425,-0.0005016535751927832,-0.00010074245048080322
0.021032730400555352,-0.0004911279829681727,-0.00010099064587034346
0.0210021987783061,-0.00048061925067345736,-0.00010123358267875386
0.020978270370288207,-0.00047012413338630877,-0.0001014712685247688
0.020961120042434705,-0.00045963928578312803,-0.00010170370937956117
0.02095087031661071,-0.0004491612881933667,-0.0001019309095230553
0.020947591180694204,-0.0004386866728190405,-0.0001021528715133084
0.020951300220819105,-0.0004282119499686622,-0.00010236959616900533
0.020961963097654513,-0.0004177336341390438,-0.00010258108256503226
0.020979494368125785,-0.0004072482697725987,-0.00010278732804101017
0.021003758636320893,-0.00039675245652148706,-0.0001029883282225837
0.021034572007332077,-0.0003862428738605738,-0.00010318407705517922
0.02107170381884086,-0.0003757163049040306,-0.00010337456684987038
0.021114878629799567,-0.0003651696592918705,-0.00010355978834091935
0.021163778440582405,-0.000354599995024275,-0.00010373973075449838
