acceleration,velocity,displacement
-0.0020613386902914523,0.0,0.0
-0.002341363813130644,-1.1006756258555241e-06,-2.7516890646388105e-10
-0.0026069544818475027,-2.3377551996000607e-06,-1.1347766128277772e-09
-0.0028591161303878933,-3.70427285265891e-06,-2.64528362589252e-09
-0.0030989185473910934,-5.193781522103656e-06,-4.869797219583162e-09
-0.00332748498989653,-6.800382406425562e-06,-7.868338201715467e-09
-0.00354598143723605,-8.518749013208707e-06,-1.1698121056624034e-08
-0.0037556060981085793,-1.0344145897044865e-05,-1.6413844784187428e-08
-0.003957579251128293,-1.2272442234354084e-05,-2.2067991817037165e-08
-0.004153133484676922,-1.4300120418305388e-05,-2.8711132480202033e-08
-0.00434350439287577,-1.642427988769356e-05,-3.639223255670177e-08
-0.004529921775863572,-1.8642636429878398e-05,-4.515896163609476e-08
-0.004713601377560854,-2.0953517218234503e-05,-5.505800004812299e-08
-0.004895737168978108,-2.3355851854869242e-05,-6.613534231639893e-08
-0.00507749416553321,-2.584915968849707e-05,-7.84365952022405e-08
-0.00526000177637488,-2.8433533673974092e-05,-9.200726854285828e-08
-0.005444347718741483,-3.1109621047753185e-05,-1.068930572232901e-07
-0.005631572555303771,-3.38786011162645e-05,-1.2314011276429452e-07
-0.005822664899684886,-3.6742160480011666e-05,-1.4079530316336356e-07
-0.006018557295545667,-3.97024660288193e-05,-1.599064597905713e-07
-0.0062201227373390325,-4.276213603704048e-05,-1.8052261030703623e-07
-0.0064281717801154626,-4.59242096664041e-05,-2.0269419673289737e-07
-0.006643450171597552,-4.919211515433235e-05,-2.264732779380815e-07
-0.006866636912801545,-5.2569636925432126e-05,-2.519137159580226e-07
-0.007098342610760533,-5.6060881806322645e-05,-2.790713456409613e-07
-0.007339107953171947,-5.9670244447305764e-05,-3.080041272043684e-07
-0.007589402140164058,-6.340237197063977e-05,-3.3877228130885476e-07
-0.007849621155776683,-6.726212779462496e-05,-3.7143840625017095e-07
-0.008120085829479916,-7.125455454093911e-05,-4.06067576834062e-07
-0.008401039703690973,-7.538483592423183e-05,-4.4272742445035473e-07
-0.008692646774071123,-7.965825754367236e-05,-4.814881978173308e-07
-0.008994989202479405,-8.408016653780999e-05,-5.224228038377014e-07
-0.009308065121549629,-8.865593011881725e-05,-5.656068280018582e-07
-0.009631786654061184,-9.339089306271995e-05,-6.111185337972425e-07
-0.00996597825271411,-9.829033428941377e-05,-6.590388406352759e-07
-0.010310375430076913,-0.00010335942271011153,-7.094512798851572e-07
-0.010664623917023967,-0.00010860317254688675,-7.624419286994067e-07
-0.01102827927917629,-0.00011402639834593681,-8.180993214226126e-07
-0.011400807027072933,-0.00011963366992249912,-8.765143384897216e-07
-0.011781583254730915,-0.00012542926749295008,-9.377800728435839e-07
-0.012169895822026286,-0.0001314171372621394,-1.0019916740323562e-06
-0.012564946067742609,-0.00013760084773458163,-1.0692461702815364e-06
-0.012965851019738074,-0.0001439835470064518,-1.1396422689667948e-06
-0.013371646068644246,-0.0001505679212785474,-1.2132801360380445e-06
-0.01378128809102795,-0.00015735615481846544,-1.2902611550622978e-06
-0.01419365903795252,-0.00016434989160071055,-1.3706876666670918e-06
-0.014607570036681465,-0.00017155019886936905,-1.4546626892846116e-06
-0.015021766077963941,-0.0001789575328980304,-1.5422896222264615e-06
-0.01543493136343381,-0.00018657170725837983,-1.633671932265564e-06
-0.015845695357670185,-0.00019439186393865583,-1.728912825064823e-06
-0.01625263954578641,-0.00020241644766451998,-1.828114902965617e-06
-0.016654304871730082,-0.0002106431837688991,-1.9313798108239717e-06
-0.01704919983045608,-0.00021906905994444563,-2.0388078717523077e-06
-0.01743580918476477,-0.00022769031219825085,-2.150497714787982e-06
-0.017812603257134074,-0.00023650241530872557,-2.266545896664726e-06
-0.018178047717508396,-0.0002455000780523862,-2.387046520005004e-06
-0.018530613772055456,-0.0002546772434247771,-2.5120908503742947e-06
-0.01886878866707481,-0.00026402709403455966,-2.641766934739129e-06
-0.01919108644689196,-0.00027354206281305135,-2.776159223951032e-06
-0.019496058925907243,-0.00028321384915625116,-2.9153482019433576e-06
-0.01978230684956934,-0.0002930334406001203,-3.0594100243824504e-06
-0.020048491236142843,-0.00030299114012154833,-3.2084161695628675e-06
-0.020293344902270603,-0.0003130765991561517,-3.3624331043822927e-06
-0.020515684154072875,-0.00032327885642023755,-3.52152196827639e-06
-0.020714420564717555,-0.00033358638259993516,-3.6857382780314333e-06
-0.020888572683734334,-0.00034398713091204815,-3.855131656409429e-06
-0.021037277464341853,-0.0003544685934490672,-4.029745587499708e-06
-0.02115980117151452,-0.0003650178631080313,-4.2096172016389825e-06
-0.021255549549786482,-0.00037562170078835657,-4.394777092613079e-06
-0.02132407707123058,-0.00038626660744361084,-4.585249169671071e-06
-0.021365095120577365,-0.0003969389004915628,-4.781050546654865e-06
-0.021378478988361083,-0.0004076247940187974,-4.982191470282455e-06
-0.021364273548576316,-0.00041831048215303177,-5.188675289325413e-06
-0.021322697516799754,-0.0004289822249193758,-5.4004984660935145e-06
-0.021254146216393495,-0.0004396264358526741,-5.617650631286527e-06
-0.02115919280692085,-0.0004502297706085027,-5.8401146829018215e-06
-0.021038587940950204,-0.00046077921579547044,-6.067866929502815e-06
-0.020893257810965096,-0.0004712621772334493,-6.300877277760045e-06
-0.0207243005295219,-0.00048166656681857104,-6.53910946377305e-06
-0.02053298076982855,-0.0004919808871434087,-6.782521327263545e-06
-0.02032072260450084,-0.000502194312986991,-7.0310651272961445e-06
-0.02008910052595305,-0.0005122967687696045,-7.2846878977352936e-06
-0.019839828699445554,-0.0005222790010759542,-7.543331840196683e-06
-0.019574748567172853,-0.0005321326453926088,-7.806934751813824e-06
-0.019295814969864086,-0.000541850286276868,-8.075430484731193e-06
-0.019005080973367405,-0.0005514255102626758,-8.348749433866079e-06
-0.018704681586642444,-0.0005608529509026782,-8.626819049157417e-06
-0.01839681654489996,-0.0005701283254355638,-8.909564368241977e-06
-0.018083732317817503,-0.0005792484626512433,-9.196908565263678e-06
-0.017767703499204594,-0.0005882113216054988,-9.488773511327863e-06
-0.017451013744320242,-0.00059701600091638,-9.785080341958333e-06
-0.017135936435214612,-0.0006056627384612638,-1.0085750026802744e-05
-0.01682471526380825,-0.0006141529013860195,-1.0390703936764565e-05
-0.016519544927421574,-0.000622488966433827,-1.0699864403719527e-05
-0.016222552137978803,-0.0006306744907001771,-1.1013155268003029e-05
-0.01593577715829845,-0.0006387140730242465,-1.1330502408934135e-05
-0.015661156093395554,-0.0006466133063371699,-1.165183425377449e-05
-0.015400504173210107,-0.0006543787214038213,-1.1977082260709738e-05
-0.01515550026201739,-0.0006620177225126282,-1.230618137168885e-05
-0.014927672818090139,-0.0006695385157826551,-1.2639070431262672e-05
-0.014718387497424795,-0.0006769500308615339,-1.2975692567923719e-05
-0.01452883653939385,-0.0006842618368707385,-1.3315995534856787e-05
-0.014360029997020326,-0.0006914840535048421,-1.3659932007450682e-05
-0.014212788804553294,-0.0006986272582052355,-1.4007459835378201e-05
-0.014087739637171847,-0.0007057023903156667,-1.4358542247508428e-05
-0.013985311526503787,-0.0007127206531065857,-1.471314800836399e-05
-0.013905734241074543,-0.0007196934145484803,-1.5071251525277757e-05
-0.013849038491177534,-0.0007266321077315433,-1.5432832905847764e-05
-0.013815058037400524,-0.0007335481318636878,-1.579787796574657e-05
-0.013803433753770182,-0.0007404527548114805,-1.6166378187415362e-05
-0.013813619628059992,-0.0007473570181569381,-1.6538330630657465e-05
-0.013844890597469336,-0.0007542716457133204,-1.691373779662503e-05
-0.013896352043184087,-0.0007612069563734838,-1.729260744714673e-05
-0.013966950716347699,-0.0007681727820633668,-1.7674952381755945e-05
-0.014055486842778327,-0.0007751783914531483,-1.8060790175135074e-05
-0.014160627156141973,-0.0007822324199528784,-1.845014287798658e-05
-0.014280918644188676,-0.0007893428064029611,-1.884303668457554e-05
-0.014414802847855178,-0.000796516736775972,-1.9239501570370273e-05
-0.014560630595732049,-0.0008037605951368688,-1.9639570903348484e-05
-0.014716677064107966,-0.0008110799220518288,-2.004328103264566e-05
-0.014881157031195965,-0.0008184793805756548,-2.045067085830253e-05
-0.015052240165928396,-0.0008259627298749358,-2.0861781385915175e-05
-0.015228066181992603,-0.0008335328064619161,-2.1276655269999388e-05
-0.015406759709203936,-0.0008411915129347152,-2.1695336349848545e-05
-0.015586444768113222,-0.0008489398140540445,-2.2117869181595735e-05
-0.015765258744078917,-0.0008567777399320926,-2.254429857009227e-05
-0.01594136573656088,-0.0008647043960522525,-2.2974669104088356e-05
-0.016112969143196876,-0.0008727179797721919,-2.3409024698044468e-05
-0.01627832335959646,-0.0008808158028978903,-2.3847408143711987e-05
-0.01643574452517622,-0.0008889943198690834,-2.428986067440373e-05
-0.01658362028227956,-0.0008972491610709474,-2.4736421544638736e-05
-0.01672041851382755,-0.0009055751707699742,-2.5187127627598968e-05
-0.01684469499702631,-0.0009139664491476876,-2.5642013032578383e-05
-0.016955099892925846,-0.0009224163978701756,-2.610110874433285e-05
-0.017050383007319318,-0.0009309177685952369,-2.6564442285949203e-05
-0.01712939780636756,-0.0009394627137986586,-2.7032037406547675e-05
-0.01719110423764189,-0.0009480428393096609,-2.7503913794824755e-05
-0.017234570474276747,-0.0009566492579876405,-2.7980086819149082e-05
-0.017258973738545152,-0.000965272644040846,-2.8460567294656202e-05
-0.017263600349711788,-0.0009739032875629103,-2.894536127755714e-05
-0.017247845088773424,-0.0009825311489225315,-2.94344698866785e-05
-0.017211209917600428,-0.000991145912674125,-2.9927889152077663e-05
-0.017153302067475236,-0.0009997370406703938,-3.0425609890413794e-05
-0.01707383152909137,-0.0010082938240695354,-3.0927617606598774e-05
-0.01697260801383556,-0.001016805433955267,-3.143389242110497e-05
-0.016849537488312603,-0.001025260970330804,-3.194440902217649e-05
-0.016704618392645906,-0.0010336495093010436,-3.2459136642084456e-05
-0.01653793763322423,-0.0010419601483075112,-3.2978039056486596e-05
-0.016349666402977796,-0.0010501820493165617,-3.3501074605892614e-05
-0.01614005585147213,-0.0010583044798801742,-3.40281962381918e-05
-0.01590943262468724,-0.001066316851999214,-3.455935157116165e-05
-0.015658194317372663,-0.0010742087587347288,-3.5094482973845135e-05
-0.015386804910489434,-0.0010819700085416943,-3.563352766566424e-05
-0.01509579029289537,-0.0010895906573425405,-3.61764178321353e-05
-0.014785733988625786,-0.0010970610384129207,-3.6723080756074165e-05
-0.01445727321812261,-0.0011043717902146078,-3.7273438963231046e-05
-0.01411109540275302,-0.0011115138823698267,-3.782741038137716e-05
-0.01374793518435895,-0.0011184786400166046,-3.8384908511973765e-05
-0.01336857198993288,-0.0011252577668101776,-3.894584261368046e-05
-0.012973828124988162,-0.0011318433668389078,-3.9510117897092736e-05
-0.012564567320468985,-0.001138227965700272,-4.007763573022753e-05
-0.012141693591197732,-0.0011444045309281887,-4.064829385438465e-05
-0.011706150203419622,-0.001150366491876843,-4.12219866100859e-05
-0.01125891850924864,-0.00115610775905501,-4.179860517281887e-05
-0.010801016396599644,-0.0011616227427814721,-4.237803779827799e-05
-0.01033349612701138,-0.001166906370912375,-4.296017007670145e-05
-0.009857441385192586,-0.001171954105290426,-4.354488519575215e-05
-0.009373963432959678,-0.0011767619564949639,-4.4132064211198496e-05
-0.00888419633467216,-0.0011813264964368718,-4.472158632443146e-05
-0.00838929128796478,-0.001185644868342531,-4.5313329165626306e-05
-0.007890410139248391,-0.0011897147936993343,-4.590716908113677e-05
-0.007388718180520714,-0.0011935345757792765,-4.6502981423506424e-05
-0.006885376318797988,-0.0011971030994041062,-4.710064084230227e-05
-0.006381532700576486,-0.0012004198266589497,-4.7700021573818037e-05
-0.005878313876022955,-0.0012034847883030996,-4.8300997727558546e-05
-0.005376815602891747,-0.0012062985706728282,-4.8903443567302527e-05
-0.00487809341183474,-0.0012088622979265099,-4.950723378445236e-05
-0.004383153075005929,-0.00121117760954822,-5.011224376132104e-05
-0.0038929411319963162,-0.0012132466330999705,-5.071834982198309e-05
-0.0034083356247251863,-0.0012150719522891508,-5.132542946833037e-05
-0.0029301371704821555,-0.0012166565704879527,-5.193336159902465e-05
-0.0024590604634699745,-0.0012180038698964407,-5.254202670912075e-05
-0.0019957262615218343,-0.0012191175665776887,-5.315130706823928e-05
-0.001540653913892392,-0.0012200016616215421,-5.376108687528908e-05
-0.0010942545257489962,-0.0012206603887314526,-5.437125238787733e-05
-0.000656824912174838,-0.0012210981585909335,-5.498169202470793e-05
-0.00022854253206206884,-0.0012213195004519928,-5.559229643946866e-05
0.00019053840966970766,-0.001221329001482591,-5.620295856495231e-05
0.0006004895259625309,-0.0012211312444986829,-5.6813573626447625e-05
0.0010015093214807418,-0.001220730744786822,-5.7424039123769e-05
0.0013939226116506647,-0.0012201318868035392,-5.803425478166659e-05
0.0017781781261218049,-0.001219338861619096,-5.864412246877225e-05
0.0021548441767889957,-0.0012183556060433684,-5.925354608568786e-05
0.002524602337389392,-0.0012171857444148238,-5.986243142330241e-05
0.0028882391448192594,-0.0012158325340442717,-6.0470685992917184e-05
0.00324663587226904,-0.0012142988152899997,-6.107821883025075e-05
0.003600756443438383,-0.0012125869672110728,-6.168494027587603e-05
0.0039516335783883185,-0.0012106988697056162,-6.22907617351052e-05
0.0043003533119411975,-0.0012086358729830337,-6.289559542077735e-05
0.004648038108684295,-0.0012063987751278773,-6.349935408280508e-05
0.004995828884657902,-0.0012039878083795418,-6.410195072868193e-05
0.005344866298907985,-0.0012014026345836502,-6.470329833942273e-05
0.005696271689893777,-0.0011986423500864498,-6.530330958559026e-05
0.0060511280185949175,-0.0011957055001593276,-6.590189654815171e-05
0.006410461156293626,-0.0011925901028656055,-6.649897044890795e-05
0.006775221827852151,-0.001189293682119569,-6.709444139515424e-05
0.007146268501771243,-0.0011858133095371632,-6.768821814306842e-05
0.0075243515150245546,-0.0011821456545329642,-6.828020788408595e-05
0.007910098730123598,-0.001178287041971677,-6.887031605821211e-05
0.008304003034543471,-0.0011742335165305104,-6.945844619783765e-05
0.00870641199747304,-0.0011699809127725064,-7.004449980516341e-05
0.009117519977250159,-0.0011655249297788256,-7.062837626580125e-05
0.009537362905305184,-0.0011608612090581868,-7.12099728005105e-05
0.009965815863423138,-0.0011559854143660046,-7.178918445636655e-05
0.010402593450753247,-0.0011508933120374606,-7.236590413796742e-05
0.010847252836564937,-0.001145580850465631,-7.294002267859319e-05
0.01129919932339208,-0.0011400442374256419,-7.351142895056601e-05
0.011757694190649875,-0.0011342800140471314,-7.40800100134342e-05
0.012221864536316669,-0.0011282851243653897,-7.464565129803733e-05
0.01269071478678646,-0.001122056979534614,-7.520823682401232e-05
0.013163139523066513,-0.0011155935159571507,-7.576764944788526e-05
0.013637937288858567,-0.0011088932467541695,-7.632377113856309e-05
0.014113825088197243,-0.0011019553061599055,-7.68764832767916e-05
0.01458945331875092,-0.0010947794865581685,-7.742566697497113e-05
0.015063420911688594,-0.0010873662680005586,-7.797120341361081e-05
0.015534290471865447,-0.00107971684015467,-7.851297419064963e-05
0.016000603238811195,-0.001071833116727001,-7.905086167987005e-05
0.01646089370783542,-0.0010637177424903394,-7.958474939467438e-05
0.016913703753950512,-0.001055374093124893,-8.01145223535782e-05
0.01735759610259093,-0.0010468062681607577,-8.064006744389961e-05
0.017791167010195882,-0.001038019077382561,-8.116127378028545e-05
0.01821305805897146,-0.001029018021115269,-8.167803305490991e-05
0.018621967020994452,-0.0010198092648452776,-8.219023987640004e-05
0.019016657788510284,-0.0010103996086429014,-8.26977920947721e-05
0.019395969389014698,-0.0010007964518485202,-8.320059110989495e-05
0.019758824114886296,-0.000991007753472545,-8.369854216122521e-05
0.020104234811717824,-0.0009810419887408938,-8.419155459677857e-05
0.020431311380929934,-0.0009709081021927319,-8.467954211951198e-05
0.020739266546651144,-0.0009606154577108366,-8.516242300948788e-05
0.021027420920543462,-0.000950173785844038,-8.56401203203766e-05
0.021295207391473864,-0.0009395931287660336,-8.611256204902912e-05
0.021542174870452208,-0.0009288837832005521,-8.657968127702077e-05
0.021767991408833797,-0.0009180562416307306,-8.704141628322859e-05
0.021972446658419513,-0.0009071211321139172,-8.749771062666475e-05
0.02215545357268926,-0.0008960891570561401,-8.794851319895727e-05
0.022317049200608664,-0.0008849710313628156,-8.8393778246062e-05
0.022457394420455534,-0.0008737774204575495,-8.883346535901709e-05
0.022576772486122672,-0.0008625188787309049,-8.92675394338142e-05
0.022675586292707176,-0.0008512057890361974,-8.969597060075598e-05
0.022754354313278245,-0.0008398483038847011,-9.01187341239862e-05
0.022813705220455196,-0.0008284562890012677,-9.05358102722077e-05
0.022854371273268562,-0.0008170392698778367,-9.094718416192748e-05
0.022877180602254698,-0.0008056063819089559,-9.135284557487419e-05
0.022883048554835472,-0.0007941663246196834,-9.175278875150634e-05
0.022872968273198638,-0.0007827273204126748,-9.214701216276443e-05
0.022848000682472107,-0.0007712970781737571,-9.253551826241104e-05
0.02280926407843395,-0.0007598827619835306,-9.291831322245036e-05
0.02275792351177511,-0.0007484909650859782,-9.329540665421774e-05
0.02269518015219017,-0.0007371276891699869,-9.366681131778174e-05
0.022622260781262428,-0.0007257983289366238,-9.40325428223084e-05
0.022540407525570582,-0.0007145076618599155,-9.439261932000752e-05
0.02245086791083865,-0.0007032598430008132,-9.474706119622271e-05
0.022354885294791002,-0.0006920584046994058,-9.509589075814777e-05
0.022253689725231677,-0.0006809062609444001,-9.543913192455871e-05
0.02214848928067669,-0.000669805716192923,-9.577680991884304e-05
0.02204046198428297,-0.0006587584783766831,-9.610895096748544e-05
0.021930748420816493,-0.0006477656757754082,-9.643558200602346e-05
0.02182044520198615,-0.0006368278773697076,-9.675673039430974e-05
0.021710599394459705,-0.0006259451162205961,-9.707242364270731e-05
0.02160220394927716,-0.0006151169153846619,-9.738268915060862e-05
0.021496194084633147,-0.0006043423158761844,-9.768755395842383e-05
0.021393444516366853,-0.0005936199062259343,-9.798704451394935e-05
0.02129476741264005,-0.0005829478532436826,-9.828118645381676e-05
0.021200910950842207,-0.0005723239336528121,-9.857000440054089e-05
0.02111255835908524,-0.0005617455663253303,-9.885352177553543e-05
0.021030327336524473,-0.0005512098449014279,-9.913176062834211e-05
0.020954769771180402,-0.0005407135706245017,-9.94047414822236e-05
0.020886371697327037,-0.0005302532852573749,-9.967248319619407e-05
0.020825553440295717,-0.0005198253039729692,-9.993500284350165e-05
0.020772669888006405,-0.0005094257481408937,-0.00010019231560653012
0.020728010824724835,-0.0004990505779627109,-0.00010044443468805602
0.02069180127864271,-0.000488695624936869,-0.00010069137123878092
0.020664201870955867,-0.00047835662414946934,-0.0001009331343010525
0.020645309200107178,-0.0004680292463817036,-0.00010116973076868529
0.020635156340806367,-0.00045770912999647516,-0.00010140116536277984
0.020633713572404497,-0.00044739191251817246,-0.0001016274406234085
0.020640889459137054,-0.00043707326176028706,-0.00010184855691697811
0.020656532379202334,-0.0004267489063007022,-0.00010206451245899336
0.02068043255412177,-0.00041641466506737117,-0.00010227530335183538
0.0207123245815201,-0.0004060664757834607,-0.00010248092363704809
0.02075189043297969,-0.00039570042202983574,-0.00010268136536150142
0.0207987628558604,-0.0003853127587076257,-0.00010287661865668579
0.02085252912223425,-0.00037489993571310204,-0.00010306667183029096
0.020912735080685047,-0.0003644586196623722,-0.00010325151146913483
0.02097888945603624,-0.0003539857135281919,-0.00010343112255243247
