acceleration,velocity,displacement
-0.0019435406965826333,0.0,0.0
-0.002231662073947701,-1.0438006926325835e-06,-2.609501731581459e-10
-0.002506013746701263,-2.2282196477948243e-06,-1.078955258264998e-09
-0.0027675211798850645,-3.5466033794414064e-06,-2.5226610150740555e-09
-0.003017172581814531,-4.992776819866305e-06,-4.657506064900984e-09
-0.0032560091373335016,-6.561072249653313e-06,-7.545968332280887e-09
-0.0034851152900375756,-8.246353356496082e-06,-1.1247824733818237e-08
-0.0037056091711610553,-1.004403447179574e-05,-1.5820421690891192e-08
-0.003918633246946953,-1.1950095076322741e-05,-2.1318954077920813e-08
-0.004125345244996873,-1.3961089699308698e-05,-2.7796750271828672e-08
-0.004326909413146263,-1.607415336384448e-05,-3.5305561037616966e-08
-0.004524488157637605,-1.828700275654045e-05,-4.38958500677132e-08
-0.004719234095577828,-2.0597933319844308e-05,-5.3617084086809386e-08
-0.004912282536521227,-2.3005812477869072e-05,-6.451802053623773e-08
-0.0051047443923317205,-2.5510069210082308e-05,-7.664699095822557e-08
-0.0052976995222024665,-2.8110680188715854e-05,-9.005217830792512e-08
-0.005492190547830233,-3.080815270622403e-05,-1.0478188653166008e-07
-0.005689217193674835,-3.3603504641600294e-05,-1.2088480086861617e-07
-0.005889731196865925,-3.649824173923548e-05,-1.3841023746382512e-07
-0.006094631799115596,-3.949433248823086e-05,-1.574083810206917e-07
-0.006304761802764418,-4.259418088870087e-05,-1.7793050936492464e-07
-0.006520904156183441,-4.580059737843783e-05,-2.0002920393170931e-07
-0.006743779022003377,-4.9116768172984534e-05,-2.2375854531956491e-07
-0.006974041259629563,-5.254622324339277e-05,-2.4917429317365923e-07
-0.007212278218728644,-5.609280311298232e-05,-2.76334049762753e-07
-0.007459007712798545,-5.9760624595864115e-05,-3.0529740668996464e-07
-0.007714676045770793,-6.355404553550644e-05,-3.361260742228073e-07
-0.007979656002201897,-6.747762854749962e-05,-3.688839927435588e-07
-0.008254244765520977,-7.153610373943034e-05,-4.036374258152913e-07
-0.008538661780985324,-7.57343303760569e-05,-4.404550343441631e-07
-0.008833046620275774,-8.007725747637219e-05,-4.794079313072704e-07
-0.009137456930657288,-8.456988336410545e-05,-5.205697165173898e-07
-0.009451866566318442,-8.921721423834939e-05,-5.640164909180035e-07
-0.009776164002241365,-9.402422188048934e-05,-6.098268499477132e-07
-0.010110151116125104,-9.899580066008096e-05,-6.580818555828558e-07
-0.01045354239442099,-0.00010413672403771748,-7.088649867573054e-07
-0.010805964592538818,-0.00010945160078445744,-7.622620679628492e-07
-0.011166956871497746,-0.00011494483115046658,-8.183611759465801e-07
-0.011535971437624195,-0.00012062056322774707,-8.772525245411336e-07
-0.01191237471034195,-0.0001264826497647386,-9.39028327789255e-07
-0.012295449026951661,-0.000132534605699062,-1.0037826416552052e-06
-0.012684394869658777,-0.0001387795666732146,-1.0716111847482744e-06
-0.013078333583071627,-0.0001452202487863972,-1.1426111386131774e-06
-0.013476310549696582,-0.00015185890981958926,-1.216880928264674e-06
-0.013877298806077387,-0.00015869731215853276,-1.2945199837592045e-06
-0.014280203105777834,-0.00016573668763649656,-1.3756284837079619e-06
-0.01468386446042354,-0.0001729777045280469,-1.4603070817490977e-06
-0.01508706520939846,-0.0001804204369455024,-1.5486566171174851e-06
-0.01548853467000147,-0.00018806433691535238,-1.6407778105826987e-06
-0.015886955395337635,-0.00019590820943168717,-1.7367709471694587e-06
-0.01628097003172441,-0.0002039501907884527,-1.8367355472244936e-06
-0.016669188746435176,-0.00021218773048299258,-1.940770027542355e-06
-0.017050197194714217,-0.00022061757696827992,-2.0489713544051734e-06
-0.01742256499288091,-0.00022923576751517871,-2.161434690526038e-06
-0.017784854647748087,-0.00023803762242533596,-2.278253038011167e-06
-0.018135630868882553,-0.0002470177438044936,-2.3995168795686242e-06
-0.018473470177431065,-0.000256170019066072,-2.5253138202862657e-06
-0.01879697073263414,-0.00026548762929358834,-2.6557282323761806e-06
-0.019104762317094195,-0.0002749630625560204,-2.790840905338583e-06
-0.019395516439250964,-0.0002845881322451067,-2.9307287040388645e-06
-0.019667956523480187,-0.0002943540004857895,-3.0754642372215887e-06
-0.019920868172348064,-0.00030425120665974656,-3.2251155390079727e-06
-0.020153109494889163,-0.00031426970107655585,-3.3797457659420483e-06
-0.020363621478166935,-0.0003243988838198199,-3.5394129121661423e-06
-0.020551438330982594,-0.00033462764877210726,-3.7041695453141243e-06
-0.02071569766839778,-0.00034494443277195236,-3.874062565700139e-06
-0.020855650358936693,-0.00035533726977878596,-4.049132991337824e-06
-0.020970669838100777,-0.00036579384982804534,-4.229415771239532e-06
-0.02106026070567292,-0.00037630158246398877,-4.41493962931254e-06
-0.02112406645845503,-0.0003868476642550208,-4.605726940992293e-06
-0.021161876240283685,-0.00039741914992970546,-4.801793644538475e-06
-0.02117363050324954,-0.0004080030266155888,-5.003149188674799e-06
-0.02115942547948061,-0.00041858629061127136,-5.2097965179815134e-06
-0.021119516379457953,-0.000429156026076006,-5.421732097153332e-06
-0.021054319259189352,-0.0004396994849856678,-5.638945974918751e-06
-0.020964411520913682,-0.00045020416768069355,-5.861421888085341e-06
-0.020850531022618968,-0.0004606579033165767,-6.0891374058346586e-06
-0.02071357376903569,-0.0004710489295144904,-6.322064114042425e-06
-0.02055459014278768,-0.00048136597049244626,-6.5601678390441594e-06
-0.02037477962242285,-0.0004915983129337489,-6.8034089099007086e-06
-0.020175483943461064,-0.0005017358788252199,-7.051742457840451e-06
-0.019958178696174,-0.0005117692944851286,-7.3051187511680375e-06
-0.01972446340895079,-0.0005216899550114098,-7.563483563542172e-06
-0.019476050220985888,-0.000531490083418894,-7.826778573149747e-06
-0.019214751287411718,-0.0005411627837959934,-8.094941789953469e-06
-0.018942465077464735,-0.0005507020878872125,-8.367908007874271e-06
-0.018661161725996203,-0.0005601029945880777,-8.645609278493093e-06
-0.018372867588841452,-0.0005693615019167871,-8.92797540261931e-06
-0.01807964914190973,-0.0005784746310994749,-9.214934435873375e-06
-0.017783596361220757,-0.0005874404424752576,-9.506413204267059e-06
-0.01748680572925288,-0.000596258042997876,-9.802337825635342e-06
-0.017191363024451182,-0.000604927585186302,-1.0102634232681387e-05
-0.01689932605828331,-0.0006134502574569856,-1.040722869334221e-05
-0.01661270752815437,-0.000621828265853595,-1.0716048324169855e-05
-0.01633345815952946,-0.000630064807275516,-1.1029021592452133e-05
-0.01606345032018872,-0.0006381640343954456,-1.1346078802869874e-05
-0.01580446230082062,-0.0006461310125506979,-1.1667152564606409e-05
-0.015558163462543661,-0.000653971668991539,-1.1992178234991968e-05
-0.015326100450465768,-0.0006616927349697914,-1.23210943359823e-05
-0.015109684662419735,-0.0006693016812480127,-1.265384294003675e-05
-0.014910181137374004,-0.0006768066476979612,-1.2990370022273244e-05
-0.014728698982259062,-0.0006842163677278695,-1.3330625776129702e-05
-0.014566183394745347,-0.0006915400883221206,-1.3674564890142199e-05
-0.014423409282248363,-0.000698787486491369,-1.4022146783845572e-05
-0.014300976446200228,-0.0007059685829234811,-1.4373335801199284e-05
-0.014199306306701784,-0.0007130936536117067,-1.472810136033308e-05
-0.01411864017826434,-0.0007201731402329483,-1.5086418058794245e-05
-0.01405903914681923,-0.0007272175600642191,-1.5448265733868536e-05
-0.014020385613099132,-0.0007342374162541988,-1.581362947794814e-05
-0.014002386543651468,-0.0007412431092933865,-1.6182499609335035e-05
-0.014004578414776384,-0.0007482448505329934,-1.655487159929163e-05
-0.014026333765863153,-0.0007552525785781534,-1.6930745956569415e-05
-0.014066869217498078,-0.0007622758793239937,-1.731012807104495e-05
-0.014125254767851007,-0.000769323910320331,-1.7693028018456033e-05
-0.014200424159603212,-0.0007764053300521945,-1.8079460328549165e-05
-0.014291186110772491,-0.0007835282326197885,-1.846944371921716e-05
-0.014396236230016752,-0.0007907000882049858,-1.8863000799423355e-05
-0.0145141694806273,-0.0007979276896326468,-1.9260157743882764e-05
-0.014643493091053129,-0.0008052171052755669,-1.966094394260982e-05
-0.014782639815392669,-0.0008125736385021783,-2.0065391628554254e-05
-0.014929981429340617,-0.0008200017938133617,-2.047353548663314e-05
-0.015083842323907838,-0.0008275052497516738,-2.0885412247524397e-05
-0.015242513051039571,-0.0008350868385954107,-2.130106026961117e-05
-0.015404263692143155,-0.0008427485327812065,-2.1720519112455325e-05
-0.015567356947476508,-0.0008504914379411114,-2.2143829105135904e-05
-0.01573006085251269,-0.0008583157923911087,-2.257103091271896e-05
-0.015890661010855806,-0.0008662209728569508,-2.3002165104030976e-05
-0.016047472220233287,-0.0008742055061647231,-2.3437271723786395e-05
-0.016198849385388375,-0.0008822670865661285,-2.3876389871969106e-05
-0.016343197651568876,-0.0008904025983253678,-2.431955729319198e-05
-0.016478981722209133,-0.0008986081431688123,-2.4766809978565525e-05
-0.016604734323105205,-0.0009068790721801409,-2.5218181782402765e-05
-0.016719063753454808,-0.0009152100216992809,-2.567370405587262e-05
-0.016820660450325157,-0.0009235949527502258,-2.6133405299484995e-05
-0.01690830250618723,-0.000932027193489354,-2.659731083604489e-05
-0.016980860118232265,-0.0009404994841454589,-2.7065442505453594e-05
-0.017037299002894815,-0.0009490040239257407,-2.7537818382471393e-05
-0.01707668286350547,-0.0009575325193923407,-2.8014452518300913e-05
-0.017098175030691453,-0.0009660762338658899,-2.849535470661547e-05
-0.017101039386687833,-0.0009746260374702347,-2.89805302744495e-05
-0.017084640643362826,-0.0009831724574777473,-2.9469979898186497e-05
-0.017048444000243898,-0.000991705728638649,-2.9963699444715597e-05
-0.016992014191451365,-0.001000215843186573,-3.04616798376719e-05
-0.01691501394497045,-0.0010086926002206783,-3.0963906948523717e-05
-0.01681720190876339,-0.0010171256541841118,-3.147036151212491e-05
-0.016698430124887653,-0.0010255045621925245,-3.1981019066219074e-05
-0.016558641140392565,-0.0010338188300088446,-3.2495849914269415e-05
-0.016397864828581157,-0.001042057956501088,-3.30148191108969e-05
-0.016216214964684745,-0.0010502114764494046,-3.353788646913452e-05
-0.016013885575996308,-0.0010582690015845748,-3.4065006588643015e-05
-0.015791147085206816,-0.0010662202597498756,-3.459612890397663e-05
-0.015548342284866123,-0.0010740551320923939,-3.51311977519372e-05
-0.015285882205336197,-0.0010817636882149444,-3.5670152457014036e-05
-0.01500424196064567,-0.0010893362192564398,-3.621292743388188e-05
-0.014703956675032333,-0.0010967632689153593,-3.675945230592483e-05
-0.014385617599108298,-0.0011040356624838945,-3.730965203877464e-05
-0.014049868509760415,-0.0011111445340111117,-3.7863447087898394e-05
-0.013697402458116958,-0.001118081351753081,-3.842075355933944e-05
-0.01332895889675651,-0.0011248379420917994,-3.898148338280066e-05
-0.01294532118031046,-0.0011314065121110662,-3.954554449635138e-05
-0.012547314386641936,-0.0011377796710028043,-4.011284104212985e-05
-0.01213580335227674,-0.001143950450437534,-4.0683273572489935e-05
-0.011711690767298453,-0.0011499123239674279,-4.125673926609117e-05
-0.011275915143160679,-0.0011556592254450427,-4.183313215344429e-05
-0.010829448459455939,-0.0011611855663456968,-4.2412343351391975e-05
-0.010373293314910858,-0.0011664862517892884,-4.2994261305925725e-05
-0.009908479449137574,-0.0011715566949803006,-4.3578772042618124e-05
-0.009436059557003246,-0.0011763928297318358,-4.416575942379616e-05
-0.008957104377134881,-0.0011809911207153704,-4.475510541140796e-05
-0.008472697089529819,-0.0011853485710820366,-4.5346690334357315e-05
-0.007983927093737497,-0.0011894627271278534,-4.594039315890979e-05
-0.007491883252462993,-0.0011933316797144036,-4.653609176062035e-05
-0.006997646680923272,-0.0011969540621977503,-4.713366319609839e-05
-0.006502283154685578,-0.0012003290446566525,-4.773298397281199e-05
-0.006006835210138856,-0.0012034563242478587,-4.833393031503812e-05
-0.0055123140235387265,-0.001206336111556278,-4.893637842398915e-05
-0.005019691171447629,-0.0012089691128550246,-4.954020473009198e-05
-0.004529890391093702,-0.00121135650824566,-5.014528613536715e-05
-0.00404377946829696,-0.0012134999257105076,-5.0751500243856195e-05
-0.0035621623780504354,-0.0012154014111720945,-5.135872557807685e-05
-0.0030857717840950187,-0.0012170633947126309,-5.196684177954803e-05
-0.002615261971901886,-0.00121848865315163,-5.257572979151409e-05
-0.0021512022616757393,-0.0012196802692100244,-5.31852720221045e-05
-0.0016940709466391453,-0.0012206415875121032,-5.3795352486285036e-05
-0.0012442498330357133,-0.0012213761677070218,-5.440585692508982e-05
-0.0008020195035644901,-0.0012218877350411719,-5.5016672900776864e-05
-0.0003675554553856296,-0.0012221801287809093,-5.5627689866732385e-05
5.907473844624368e-05,-0.0012222572489601442,-5.623879921116765e-05
0.00047791311435129406,-0.0012221230019969448,-5.6849894273906924e-05
0.0008891117289325951,-0.0012217812457861238,-5.746087033585269e-05
0.0012929316672597871,-0.0012212357349370756,-5.807162458103349e-05
0.0016897405248135304,-0.0012204900668890573,-5.868205603149003e-05
0.00208000827267221,-0.0012195476296896859,-5.9292065455634715e-05
0.002464301469813634,-0.0012184115522540645,-5.990155525112065e-05
0.0028432758376981653,-0.0012170846579271865,-6.051042930366596e-05
0.0032176672447967185,-0.0012155694221565629,-6.11185928236869e-05
0.003588281164540513,-0.0012138679350542285,-6.17259521629896e-05
0.003955980687555805,-0.0012119818695912044,-6.233241461415097e-05
0.00432167320976369,-0.0012099124561168746,-6.293788819557798e-05
0.0046862959849350095,-0.0012076604638182,-6.354228142556175e-05
0.005050800799534557,-0.0012052261896220826,-6.414550308892182e-05
0.005416138070341894,-0.0012026094549046134,-6.474746200005348e-05
0.005783240674781458,-0.0011998096102183325,-6.534806676633423e-05
0.0061530078131345305,-0.0011968255480963536,-6.594722555591289e-05
0.006526289182330089,-0.0011936557238474874,-6.654484587389886e-05
0.006903869718896936,-0.0011902981841221806,-6.714083435089127e-05
0.007286455152511431,-0.0011867506029043285,-6.77350965476479e-05
0.007674658608456412,-0.0011830103244640866,-6.832753677949001e-05
0.008068988504398493,-0.001179074412685873,-6.89180579637775e-05
0.00846983799643989,-0.0011749397060606633,-6.950656149346413e-05
0.00887747623270605,-0.0011706028775033768,-7.009294713935514e-05
0.009292041654564747,-0.0011660604980315591,-7.067711298323887e-05
0.009713537530597388,-0.0011613091032352685,-7.125895538355558e-05
0.010141829819956153,-0.0011563452613976301,-7.18383689747138e-05
0.010576647364181093,-0.0011511656421015959,-7.241524670058862e-05
0.011017584324954996,-0.0011457670841793118,-7.298947988215885e-05
0.011464104727060678,-0.0011401466619163079,-7.356095831868276e-05
0.011915548921134706,-0.0011343017485042591,-7.41295704212879e-05
0.012371141737772824,-0.0011282300758395322,-7.469520337737385e-05
0.012830002065560881,-0.0011219297898886987,-7.52577433438059e-05
0.013291153567192501,-0.0011153995009805103,-7.58170756665232e-05
0.01375353626108715,-0.0011086383285234403,-7.637308512389919e-05
0.014216018729066346,-0.001101645939775902,-7.692565619097402e-05
0.014677410740922806,-0.0010944225824084045,-7.747467332152009e-05
0.015136476106046308,-0.0010869691106966623,-7.802002124479636e-05
0.015591945580129675,-0.0010792870052751182,-7.856158527378931e-05
0.01604252967596939,-0.0010713783864610934,-7.909925162172336e-05
0.016486931242125892,-0.0010632460212315696,-7.963290772364652e-05
0.01692385767556706,-0.0010548933240021464,-8.016244255995495e-05
0.01735203263521375,-0.0010463243514244511,-8.068774697881159e-05
0.017770207138464552,-0.0010375437914810315,-8.120871401453796e-05
0.01817716995577131,-0.0010285569472074725,-8.172523919921009e-05
0.018571757259257637,-0.0010193697154037152,-8.223722086486289e-05
0.018952861514888127,-0.0010099885607101789,-8.274456043389136e-05
0.0193194396252862,-0.0010004204854251353,-8.324716269542519e-05
0.01967052033946979,-0.0009906729954339464,-8.374493606563996e-05
0.020005210957558917,-0.0009807540626096893,-8.423779283015087e-05
0.020322703368056423,-0.0009706720840282854,-8.472564936681036e-05
0.020622279451129644,-0.0009604358383234889,-8.52084263473983e-05
0.02090331586864019,-0.0009500544394935465,-8.568604891685256e-05
0.021165288256713065,-0.0009395372884622082,-8.61584468488415e-05
0.021407774839978,-0.0009288940226880354,-8.662555467662905e-05
0.02163045947716423,-0.0009181344641087498,-8.708731179832825e-05
0.021833134108665678,-0.0009072685657122924,-8.754366255578351e-05
0.02201570052148259,-0.0008963063570547553,-8.799455628647527e-05
0.02217817130917715,-0.0008852578890970903,-8.843994734801323e-05
0.022320669901897166,-0.0008741331787943217,-8.887979511498607e-05
0.022443429562328348,-0.0008629421539282653,-8.931406394816671e-05
0.022546791271733382,-0.0008516945987197498,-8.974272313632871e-05
0.022631200467113893,-0.000840400100785038,-9.01657468112049e-05
0.022697202640865815,-0.0008290680000080431,-9.058311383640318e-05
0.0227454378686615,-0.0008177073398806612,-9.099480767137535e-05
0.022776634374126928,-0.0008063268218199642,-9.140081621180051e-05
0.022791601262872385,-0.0007949347629107144,-9.180113160798318e-05
0.022791220567150727,-0.0007835390574532086,-9.219575006307416e-05
0.022776438747448197,-0.0007721471426245589,-9.25846716130936e-05
0.022748257806984477,-0.0007607659684859508,-9.296789989087122e-05
0.0227077261817967,-0.0007494019724887554,-9.334544187611489e-05
0.02265592955843025,-0.0007380610585536987,-9.37173076338755e-05
0.02259398174403086,-0.0007267485807280834,-9.408351004369594e-05
0.02252301568371223,-0.0007154693313711476,-9.444406452172075e-05
0.022444174695746954,-0.0007042275337762828,-9.47989887380076e-05
0.022358603976674465,-0.0006930268391081775,-9.514830233122871e-05
0.02226744241960533,-0.0006818703275091075,-9.549202662288303e-05
0.02217181479779178,-0.0006707605132047583,-9.583018433306149e-05
0.022072824392461447,-0.0006596993534071949,-9.616279929971447e-05
0.02197154617522613,-0.000648688260765273,-9.648989620325759e-05
0.021869020667858226,-0.0006377281190545019,-9.681150029821253e-05
0.021766248577239928,-0.0006268193017432273,-9.712763715341196e-05
0.021664186242300827,-0.0006159616930383421,-9.743833240210736e-05
0.02156374185982222,-0.0006051547110128113,-9.774361150312014e-05
0.021465772409473574,-0.0005943973324454874,-9.804349951398472e-05
0.021371081183783776,-0.000583688119047173,-9.833802087685789e-05
0.02128041582972502,-0.0005730252447937958,-9.862719921781813e-05
0.021194466811779233,-0.0005624065241334197,-9.891105716004994e-05
0.02111386621554099,-0.0005518294408765897,-9.918961615130244e-05
0.021039186830231767,-0.0005412911776151465,-9.946289630592537e-05
0.020970941466921054,-0.0005307886455408583,-9.973091626171438e-05
0.020909582473535037,-0.0005203185145557443,-9.999369305173853e-05
0.020855501400481057,-0.0005098772435872403,-0.00010025124199127428
0.020809028767257893,-0.0004994611110453055,-0.00010050357657993242
0.0207704338929604,-0.000489066245380251,-0.00010075070841903881
0.020739924782234066,-0.0004786886557114524,-0.00010099264714431174
0.02071764809480027,-0.0004683242624921938,-0.00010122940037386265
0.020703689263265913,-0.0004579689281526772,-0.00010146097367152387
0.020698072851669313,-0.0004476184876239434,-0.00010168737052546802
0.02070076325326695,-0.0004372687785977093,-0.00010190859234202343
0.020711665805168554,-0.0004269156713331004,-0.00010212463845450613
0.020730628360494347,-0.0004165550977916847,-0.00010233550614678733
0.02075744331960979,-0.0004061830798716586,-0.00010254119069120316
0.02079185008834568,-0.00039579575651966977,-0.00010274168540030099
0.02083353791256161,-0.00038538940951944297,-0.00010293698169181077
0.020882149041587025,-0.0003749604877809058,-0.00010312706916613586
0.020937282183013373,-0.00036450562997475573,-0.00010331193569557477
0.020998496202539692,-0.00035402168537836744,-0.00010349156752441306
