acceleration,velocity,displacement
-0.0019435406854100793,0.0,0.0
-0.002231662063467763,-1.0438006872194604e-06,-2.6095017180486513e-10
-0.002506013736907519,-2.228219637313281e-06,-1.0789552529380505e-09
-0.002767521170761535,-3.5466033642305446e-06,-2.522661003324007e-09
-0.003017172573330896,-4.992776800253652e-06,-4.657506044445056e-09
-0.0032560091294498842,-6.561072225948847e-06,-7.54596830099568e-09
-0.0034851152827061337,-8.246353328987852e-06,-1.1247824689729856e-08
-0.0037056091643291704,-1.0044034440746678e-05,-1.582042163216349e-08
-0.003918633240558822,-1.1950095041968676e-05,-2.1318954002842327e-08
-0.0041253452389967,-1.3961089661857556e-05,-2.7796750178798885e-08
-0.004326909407483033,-1.607415332347749e-05,-3.5305560925132645e-08
-0.004524488152271465,-1.8287002713416114e-05,-4.389584993435604e-08
-0.0047192340904832685,-2.0597933274104797e-05,-5.361708393123627e-08
-0.00491228253167912,-2.3005812429645393e-05,-6.451802035717381e-08
-0.005104744387724534,-2.5510069159496307e-05,-7.664699075445924e-08
-0.005297699517822234,-2.8110680135883e-05,-9.005217807830407e-08
-0.005492190543680147,-3.08081526512586e-05,-1.0478188627508946e-07
-0.005689217189769248,-3.360350458462095e-05,-1.2088480058405934e-07
-0.005889731193230346,-3.649824168037085e-05,-1.3841023715030729e-07
-0.006094631795780318,-3.949433242762351e-05,-1.574083806773059e-07
-0.006304761799758144,-4.259418082650813e-05,-1.779305089908388e-07
-0.006520904153541252,-4.580059731483298e-05,-2.0002920352617408e-07
-0.006743779019760355,-4.911676810815838e-05,-2.2375854488192192e-07
-0.00697404125782398,-5.254622317755446e-05,-2.491742927033501e-07
-0.0072122782173955876,-5.6092803046359354e-05,-2.7633404925932857e-07
-0.00745900771196673,-5.976062452869993e-05,-3.052974061530934e-07
-0.007714676045464153,-6.355404546805766e-05,-3.361260736522828e-07
-0.007979656002439587,-6.747762848003359e-05,-3.688839921393056e-07
-0.008254244766318966,-7.153610367222323e-05,-4.036374251773698e-07
-0.008538661782350021,-7.573433030939048e-05,-4.404550336727733e-07
-0.008833046622204025,-8.0077257410529e-05,-4.794079306027532e-07
-0.009137456933134785,-8.45698832993637e-05,-5.205697157802264e-07
-0.009451866569318129,-8.921721417497693e-05,-5.640164901488115e-07
-0.009776164005726623,-9.402422181873812e-05,-6.098268491472403e-07
-0.010110151120044968,-9.899580060018102e-05,-6.580818547519702e-07
-0.010453542398706968,-0.00010413672397986901,-7.088649858969826e-07
-0.010805964597109667,-0.00010945160072882316,-7.622620670741556e-07
-0.011166956876265845,-0.00011494483109716704,-8.183611750306532e-07
-0.011535971442498736,-0.00012062056317685818,-8.772525235991595e-07
-0.01191237471522575,-0.00012648264971628931,-9.390283268224464e-07
-0.01229544903174275,-0.00013253460565303143,-1.0037826406647766e-06
-0.012684394874256778,-0.0001387795666295313,-1.0716111837354174e-06
-0.013078333587379344,-0.00014522024874494033,-1.1426111375790353e-06
-0.01347631055362479,-0.00015185890978019136,-1.2168809272103182e-06
-0.013877298809541631,-0.00015869731212098296,-1.2945199826856117e-06
-0.01428020310869685,-0.00016573668760054257,-1.375628482615993e-06
-0.014683864462722426,-0.0001729777044933974,-1.460307080639478e-06
-0.015087065211021444,-0.00018042043691183336,-1.5486566159907856e-06
-0.015488534670907106,-0.0001880643368823155,-1.6407778094393228e-06
-0.015886955395494045,-0.00019590820939891578,-1.7367709460096307e-06
-0.016280970031112455,-0.0002039501907555674,-1.8367355460482513e-06
-0.01666918874504527,-0.00021218773044960683,-1.940770026349545e-06
-0.01705019719254156,-0.00022061757693400355,-2.0489713531954477e-06
-0.01742256498992069,-0.0002292357674796191,-2.1614346892988532e-06
-0.017784854643997077,-0.00023803762238809855,-2.2782530367657828e-06
-0.01813563086434709,-0.00024701774376518457,-2.3995168783041036e-06
-0.018473470172120674,-0.0002561700190243015,-2.525313819001475e-06
-0.018796970726564697,-0.0002654876292489729,-2.6557282310697937e-06
-0.01910476231028956,-0.00027496306250818643,-2.7908409040090833e-06
-0.019395516431739757,-0.00028458813219369377,-2.9307287026845533e-06
-0.01966795651529741,-0.00029435400043045307,-3.07546423584059e-06
-0.01992086816353508,-0.0003042512066001612,-3.2251155375982435e-06
-0.020153109485493714,-0.0003142697010124184,-3.3797457645013885e-06
-0.020363621468243127,-0.0003243988837508526,-3.5394129106922063e-06
-0.020551438320590903,-0.00033462764869806114,-3.7041695438044346e-06
-0.02071569765759869,-0.00034494443269260855,-3.874062564152102e-06
-0.02085565034778589,-0.00035533726969395467,-4.0491329897487424e-06
-0.020970669826647585,-0.00036579384973756303,-4.229415769606622e-06
-0.021060260693960272,-0.000376301582367715,-4.414939627632941e-06
-0.021124066446519495,-0.00038684766415283495,-4.6057269392630785e-06
-0.021161876228152264,-0.0003974191498215029,-4.801793642756663e-06
-0.021173630490938084,-0.0004080030265012755,-5.003149186837357e-06
-0.021159425466998588,-0.0004185862904907597,-5.209796516085366e-06
-0.02111951636681324,-0.00042915602594921265,-5.421732095195359e-06
-0.021054319246383464,-0.0004396994848525118,-5.6389459728957905e-06
-0.02096441150794175,-0.00045020416754109314,-5.861421885994191e-06
-0.020850531009469753,-0.00046065790317044604,-6.089137403672076e-06
-0.020713573755694773,-0.00047104892936173715,-6.322064111805122e-06
-0.020554590129245424,-0.0004813659703329722,-6.560167836728799e-06
-0.020374779608679183,-0.0004915983127674533,-6.803408907503905e-06
-0.020175483929517513,-0.0005017358786520025,-7.051742455358769e-06
-0.019958178682035282,-0.0005117692943048907,-7.305118748597993e-06
-0.01972446339462163,-0.000521689954824055,-7.563483560880229e-06
-0.01947605020647261,-0.0005314900832243285,-7.826778570392325e-06
-0.01921475127271906,-0.0005411627835941264,-8.094941787096938e-06
-0.018942465062603817,-0.0005507020876779572,-8.36790800491496e-06
-0.018661161710981335,-0.0005601029943713534,-8.645609275427288e-06
-0.01837286757369333,-0.000569361501692522,-8.927975399443257e-06
-0.018079649126652237,-0.0005784746308676084,-9.214934432583289e-06
-0.017783596345882568,-0.0005874404422357421,-9.506413200859127e-06
-0.01748680571385949,-0.0005962580427506777,-9.802337822105732e-06
-0.017191363009024907,-0.0006049275849313988,-1.010263422902625e-05
-0.01689932604284488,-0.0006134502571943663,-1.0407228689557692e-05
-0.016612707512729297,-0.0006218282655832598,-1.0716048320252099e-05
-0.016333458144149653,-0.0006300648069974795,-1.1029021588397283e-05
-0.016063450304890852,-0.0006381640341097396,-1.1346078798674088e-05
-0.01580446228564298,-0.000646131012257373,-1.1667152560265866e-05
-0.015558163447524538,-0.000653971668690665,-1.1992178230502876e-05
-0.015326100435643458,-0.000661692734661457,-1.2321094331340907e-05
-0.015109684647830947,-0.0006693016809323256,-1.2653842935239352e-05
-0.014910181123049072,-0.0006768066473750456,-1.2990370017316196e-05
-0.014728698968231514,-0.0006842163673978657,-1.3330625771009424e-05
-0.014566183381048715,-0.0006915400879851857,-1.3674564884855187e-05
-0.01442340926892096,-0.0006987874861476781,-1.4022146778388403e-05
-0.014300976433291528,-0.0007059685825732312,-1.437333579556863e-05
-0.01419930629427082,-0.0007130936532551217,-1.472810135452572e-05
-0.01411864016637493,-0.0007201731398702832,-1.508641805280707e-05
-0.014059039135538375,-0.0007272175596957615,-1.5448265727698582e-05
-0.014020385602487462,-0.0007342374158802679,-1.581362947159259e-05
-0.014002386533764833,-0.000741243108914331,-1.618249960279124e-05
-0.014004578405667439,-0.0007482448501491891,-1.655487159255712e-05
-0.014026333757574996,-0.0007552525781899998,-1.693074594964192e-05
-0.014066869210064236,-0.0007622758789319095,-1.7310128063922397e-05
-0.014125254761295449,-0.0007693239099247495,-1.7693028011136564e-05
-0.014200424153940336,-0.0007764053296535584,-1.807946032103114e-05
-0.014291186106008723,-0.0007835282322185457,-1.8469443711499165e-05
-0.01439623622615533,-0.0007907000878015867,-1.8863000791504197e-05
-0.014514169477674645,-0.0007979276892275442,-1.926015773576148e-05
-0.014643493089023619,-0.0008052171048692188,-1.966094393428567e-05
-0.014782639814303868,-0.0008125736380950507,-2.0065391620026736e-05
-0.014929981429211679,-0.0008200017934059296,-2.047353547790198e-05
-0.015083842324756312,-0.0008275052493444216,-2.088541223858957e-05
-0.015242513052879818,-0.0008350868381888306,-2.1301060260472883e-05
-0.01540426369498156,-0.0008427485323757959,-2.172051910311404e-05
-0.015567356951308292,-0.0008504914375373684,-2.214382909559233e-05
-0.01573006085731873,-0.0008583157919895252,-2.2571030902974052e-05
-0.015890661016601037,-0.0008662209724580051,-2.3002165094085935e-05
-0.016047472226876257,-0.0008742055057688745,-2.3437271713642653e-05
-0.016198849392886044,-0.000882267086173815,-2.3876389861628325e-05
-0.016343197659871814,-0.0008904025979370045,-2.431955728265603e-05
-0.01647898173125516,-0.0008986081427847862,-2.4766809967836477e-05
-0.01660473433282417,-0.000906879071800806,-2.5218181771482877e-05
-0.016719063763773367,-0.0009152100213249554,-2.5673704044764318e-05
-0.01682066046116836,-0.0009235949523811909,-2.6133405288190854e-05
-0.016908302517478543,-0.0009320271931258525,-2.6597310824567615e-05
-0.016980860129895137,-0.0009404994837876959,-2.7065442493796002e-05
-0.017037299014852698,-0.0009490040235738829,-2.7537818370636395e-05
-0.017076682875686595,-0.0009575325190465178,-2.8014452506291494e-05
-0.01709817504302564,-0.0009660762335261958,-2.8495354694434672e-05
-0.01710103939910649,-0.0009746260371367288,-2.8980530262100404e-05
-0.017084640655797362,-0.000983172457150455,-2.9469979885672198e-05
-0.01704844401262572,-0.0009917057283175606,-2.9963699432039204e-05
-0.01699201420371188,-0.001000215842871645,-3.0461679824836506e-05
-0.0169150139570315,-0.0010086925999118308,-3.096390693553237e-05
-0.016817201920537254,-0.001017125653881223,-3.1470361498980634e-05
-0.016698430136280234,-0.0010255045618954273,-3.19810190529248e-05
-0.01655864115130658,-0.001033818829717324,-3.2495849900827985e-05
-0.016397864838917735,-0.0010420579562148802,-3.3014819097311034e-05
-0.016216214974345007,-0.001050211476168196,-3.35378864554068e-05
-0.0160138855848766,-0.0010582690013080014,-3.406500657477585e-05
-0.015791147093195516,-0.0010662202594775194,-3.4596128889972234e-05
-0.015548342291845233,-0.0010740551318237795,-3.513119773779756e-05
-0.01528588221118772,-0.0010817636879495377,-3.567015244274089e-05
-0.015004241965256397,-0.0010893362189936487,-3.621292741947668e-05
-0.014703956678298612,-0.0010967632686545376,-3.675945229138873e-05
-0.014385617600939234,-0.0011040356622243471,-3.730965202410845e-05
-0.014049868510081049,-0.0011111445337521023,-3.7863447073102565e-05
-0.01369740245686986,-0.00111808135149384,-3.842075354441405e-05
-0.013328958893901786,-0.001124837941831533,-3.898148336774539e-05
-0.01294532117582734,-0.0011314065118489653,-3.954554448116552e-05
-0.012547314380531966,-0.0011377796707380552,-4.011284102681227e-05
-0.012135803344560589,-0.0011439504501693284,-4.068327355703912e-05
-0.011711690758012733,-0.0011499123236949718,-4.125673925050519e-05
-0.011275915132351563,-0.0011556592251675628,-4.183313213772083e-05
-0.010829448447183948,-0.0011611855660624466,-4.241234333552833e-05
-0.010373293301242892,-0.0011664862514995534,-4.299426128991883e-05
-0.009908479434146909,-0.001171556694683401,-4.357877202646457e-05
-0.009436059540779097,-0.0011763928294271323,-4.41657594074922e-05
-0.008957104359779219,-0.0011809911204022719,-4.475510539494955e-05
-0.008472697071155772,-0.0011853485707600056,-4.534669031774012e-05
-0.007983927074466164,-0.001189462726796411,-4.594039314212923e-05
-0.00749188323241707,-0.001193331679373132,-4.6536091743671616e-05
-0.006997646660227056,-0.001196954061846293,-4.7133663178976474e-05
-0.006502283133460178,-0.0012003290442947148,-4.7732983955511724e-05
-0.006006835188499012,-0.0012034563238752045,-4.83339302975542e-05
-0.005512314001597589,-0.0012063361111727287,-4.893637840631618e-05
-0.005019691149310383,-0.0012089691124604557,-4.954020471222448e-05
-0.004529890368857568,-0.0012113565078399977,-5.014528611729959e-05
-0.004043779446060755,-0.0012134999252937273,-5.0751500225583024e-05
-0.0035621623559145715,-0.0012154014107442213,-5.135872555959251e-05
-0.0030857717621599126,-0.00121706339427374,-5.1966841760847e-05
-0.0026152619502743295,-0.0012184886527018485,-5.257572977259089e-05
-0.002151202240470495,-0.0012196802687495347,-5.3185272002953737e-05
-0.0016940709259821323,-0.0012206415870411479,-5.3795352466901405e-05
-0.0012442498130656014,-0.0012213761672259097,-5.440585690546817e-05
-0.0008020194844326988,-0.0012218877345502844,-5.501667288091222e-05
-0.0003675554372531404,-0.0012221801282807057,-5.562768984661997e-05
5.907475541366777e-05,-0.0012222572484511657,-5.623879919080294e-05
0.0004779131299862968,-0.0012221230014798157,-5.684989425328568e-05
0.0008891117430694143,-0.0012217812452615519,-5.7460870314971026e-05
0.001292931679739036,-0.0012212357344058497,-5.807162455988788e-05
0.0016897405354853853,-0.0012204900663520435,-5.868205601007735e-05
0.002080008281401191,-0.0012195476291478218,-5.929206543395232e-05
0.002464301476481793,-0.001218411551708351,-5.990155522916636e-05
0.0028432758422098675,-0.0012170846573786782,-6.051042928143812e-05
0.0032176672470802356,-0.0012155694216063556,-6.111859280118438e-05
0.003588281164549617,-0.0012138679345034481,-6.172595214021183e-05
0.003955980685263394,-0.001211981869040995,-6.233241459109794e-05
0.004321673205163383,-0.0012099124555683882,-6.293788817225029e-05
0.004686295978039551,-0.0012076604632725875,-6.354228140196053e-05
0.005050800790372633,-0.0012052261890804846,-6.41455030650488e-05
0.005416138058954942,-0.0012026094543681526,-6.474746197591096e-05
0.005783240661225259,-0.0011998096096881075,-6.534806674192503e-05
0.006153007797476026,-0.0011968255475734322,-6.594722553124041e-05
0.006526289164647377,-0.0011936557233329015,-6.654484584896699e-05
0.006903869699280868,-0.0011902981836169194,-6.714083432570444e-05
0.007286455131070392,-0.0011867506024093317,-6.7735096522211e-05
0.00767465858531472,-0.0011830103239802354,-6.832753675380839e-05
0.008068988479690033,-0.0011790744122139843,-6.891805793785695e-05
0.008469837970311301,-0.001174939705601484,-6.950656146731082e-05
0.008877476205313525,-0.0011706028770575778,-7.009294711297558e-05
0.009292041626072455,-0.0011660604975997314,-7.06771129566399e-05
0.009713537501177462,-0.001161309102817919,-7.125895535674432e-05
0.010141829789782321,-0.001156345260995179,-7.183836894769759e-05
0.010576647333428673,-0.0011511656417143763,-7.241524667337498e-05
0.011017584293800902,-0.001145767083807569,-7.298947985475546e-05
0.011464104695683415,-0.001140146661560198,-7.35609582910974e-05
0.011915548889707995,-0.0011343017481638502,-7.412957039352841e-05
0.012371141706459225,-0.0011282300755148084,-7.469520334944808e-05
0.0128300020345118,-0.0011219297895795656,-7.525774331572168e-05
0.013291153536543403,-0.001115399500686802,-7.581707563828827e-05
0.013753536230960749,-0.001108638328244926,-7.63730850955212e-05
0.0142160186995726,-0.0011016459395122927,-7.69256561624605e-05
0.014677410712152547,-0.0010944225821593614,-7.747467329287842e-05
0.015136476078076024,-0.0010869691104618041,-7.802002121603372e-05
0.015591945553019909,-0.00107928700505403,-7.856158524491268e-05
0.016042529649763156,-0.0010713783862533342,-7.909925159273952e-05
0.016486931216845475,-0.001063246021036682,-7.963290769456202e-05
0.016923857651218812,-0.001054893323819666,-8.016244253077611e-05
0.017352032611788075,-0.0010463243512539144,-8.06877469495445e-05
0.017770207115935924,-0.0010375437913219833,-8.120871398518848e-05
0.018177169934103034,-0.0010285569470594735,-8.172523916978384e-05
0.01857175723840824,-0.0010193697152663457,-8.22372208353653e-05
0.018952861494812935,-0.0010099885605830403,-8.274456040432764e-05
0.01931943960593417,-0.0010004204853078535,-8.324716266580037e-05
0.01967052032078669,-0.0009906729953261732,-8.374493603595887e-05
0.020005210939485724,-0.0009807540625111051,-8.423779280041818e-05
0.020322703350530928,-0.000970672083938601,-8.472564933703061e-05
0.02062227943408804,-0.0009604358382424462,-8.520842631757587e-05
0.0209033158520107,-0.0009500544394209215,-8.568604888699171e-05
0.02116528824041754,-0.0009395372883978145,-8.61584468189464e-05
0.02140777482393669,-0.0009288940226317259,-8.662555464670379e-05
0.021630459461302168,-0.0009181344640604162,-8.708731176837682e-05
0.02183313409291586,-0.0009072685656718617,-8.754366252580989e-05
0.022015700505787585,-0.0008963063570221858,-8.79945562564834e-05
0.022178171293490666,-0.0008852578890723663,-8.843994731800705e-05
0.022320669886179298,-0.0008741331787774488,-8.88797950849695e-05
0.02244342954654397,-0.000862942153919268,-8.931406391814368e-05
0.02254679125584577,-0.0008516945987186705,-8.974272310630316e-05
0.022631200451089524,-0.0008404001007919367,-9.016574678118081e-05
0.022697202624682306,-0.0008290680000229937,-9.058311380638455e-05
0.02274543785230605,-0.0008177073399037466,-9.099480764136624e-05
0.02277663435759947,-0.0008063268218512702,-9.140081618180499e-05
0.02279160124617765,-0.0007949347629503259,-9.180113157800539e-05
0.022791220550303005,-0.0007835390575012057,-9.219575003311828e-05
0.022776438730476124,-0.0007721471426810109,-9.258467158316383e-05
0.02274825778993103,-0.0007607659685509091,-9.296789986097181e-05
0.0227077261647224,-0.0007494019725622458,-9.33454418462501e-05
0.02265592954140677,-0.0007380610586357135,-9.371730760404958e-05
0.02259398172714103,-0.0007267485808185765,-9.408351001391316e-05
0.022523015667043667,-0.0007154693314700304,-9.444406449198531e-05
0.022444174679401626,-0.0007042275338834191,-9.479898870832368e-05
0.022358603960762308,-0.0006930268392233781,-9.514830230160038e-05
0.022267442404237878,-0.000681870327632128,-9.549202659331426e-05
0.02217181478307897,-0.0006707605133352988,-9.583018430355612e-05
0.02207282437851005,-0.0006596993535449016,-9.616279927027618e-05
0.02197154616213972,-0.0006486882609097391,-9.648989617388983e-05
0.02186902065574038,-0.0006377281192052691,-9.681150026891858e-05
0.021766248566189455,-0.0006268193018997867,-9.712763712419484e-05
0.02166418623240697,-0.0006159616932001375,-9.743833237296982e-05
0.021563741851164664,-0.0006051547111792446,-9.774361147406466e-05
0.021465772402122447,-0.0005943973326159228,-9.804349948501346e-05
0.021371081177801243,-0.0005836881192209419,-9.833802084797267e-05
0.021280415825163677,-0.0005730252449702007,-9.862719918902046e-05
0.021194466808683723,-0.0005624065243117389,-9.891105713134095e-05
0.021113866213941606,-0.0005518294410560826,-9.91896161226829e-05
0.02103918683013491,-0.0005412911777950635,-9.946289627739569e-05
0.020970941468306026,-0.0005307886457204533,-9.973091623327456e-05
0.020909582476357238,-0.0005203185147342874,-9.999369302338825e-05
0.02085550140467677,-0.0005098772437640289,-0.00010025124196301283
0.02080902877274427,-0.0004994611112196736,-0.00010050357655175875
0.020770433899633893,-0.0004890662455515791,-0.00010075070839095157
0.020739924789975175,-0.0004786886558791768,-0.00010099264711630925
0.02071764810347994,-0.00046832426265581306,-0.000101229400345943
0.020703689272747128,-0.0004579689283117563,-0.0001014609736436849
0.02069807286181664,-0.00044761848777811537,-0.00010168737049770737
0.020700763263949738,-0.0004372687787466738,-0.00010190859231433857
0.020711665816265722,-0.00042691567147661995,-0.00010212463842689439
0.02073062837189596,-0.0004165550979295795,-0.00010233550611924593
0.020757443331213883,-0.00040618308000380204,-0.00010254119066372928
0.02079185010006304,-0.0003957957566459828,-0.00010274168537289172
0.020833537924310985,-0.00038538940963988926,-0.0001029369816644632
0.02088214905329513,-0.0003749604878954877,-0.00010312706913884704
0.02093728219461649,-0.00036450563008350983,-0.00010331193566834178
0.020998496213978878,-0.000354021685481361,-0.000103491567497233
