frame_number,force
0,723.8057800056649
1,723.9088696101243
2,724.0116972832818
3,724.1140027826726
4,724.2155292187025
5,724.3160246703931
6,724.415243732183
7,724.5129489750713
8,724.6089123095729
9,724.7029162413655
10,724.79475501296
11,724.8842356268258
12,724.9711787477103
13,725.0554194842907
14,725.1368080522101
15,725.2152103213942
16,725.290508250212
17,725.3626002078757
18,725.4314011851812
19,725.4968428930465
20,725.5588737486967
21,725.617458750287
22,725.6725792414509
23,725.7242325675029
24,725.7724316251988
25,725.8172043082461
26,725.8585928512057
27,725.8966530754055
28,725.9314535423478
29,725.9630746225861
30,725.9916074906722
31,726.0171530591164
32,726.0398208659789
33,726.0597279313237
34,726.0769975974072
35,726.0917583667488
36,726.1041427516519
37,726.1142861481832
38,726.1223257464686
39,726.1283994869895
40,726.1326450693604
41,726.1351990164851
42,726.1361957941383
43,726.1357669849098
44,726.1340405161059
45,726.1311399426922
46,726.1271837875437
47,726.1222849415458
48,726.1165501256842
49,726.1100794168335
50,726.1029658389125
51,726.0952950214466
52,726.0871449283767
53,726.0785856610353
54,726.0696793399794
55,726.0604800701124
56,726.0510339923192
57,726.0413794234006
58,726.0315470847341
59,726.021560418331
60,726.0114359864965
61,726.0011839488081
62,725.9908086085895
63,725.98030902066
64,725.96967965223
65,725.9589110885829
66,725.9479907743437
67,725.9369037801902
68,725.9256335844524
69,725.9141628589235
70,725.9024742477587
71,725.8905511277217
72,725.878378337949
73,725.8659428680584
74,725.8532344946242
75,725.8402463576962
76,725.8269754708356
77,725.8134231592312
78,725.7995954203672
79,725.7855032012358
80,725.7711625863478
81,725.7565948920644
82,725.7418266646368
83,725.7268895814344
84,725.7118202569424
85,725.696659957086
86,725.6814542273014
87,725.6662524414803
88,725.6511072802132
89,725.6360741476191
90,725.6212105368417
91,725.6065753551833
92,725.5922282206585
93,725.5782287423366
94,725.5646357971394
95,725.5515068155449
96,725.5388970876957
97,725.5268590998992
98,725.5154419099563
99,725.5046905685343
100,725.4946455928286
101,725.4853424977271
102,725.4768113885564
103,725.4690766184912
104,725.462156513112
105,725.4560631640547
106,725.450802292375
107,725.4463731800691
108,725.442768666171
109,725.4399752027641
110,725.4379729659627
111,725.436736016871
112,725.4362325073408
113,725.4364249249461
114,725.4372703714283
115,725.4387208696197
116,725.4407236955709
117,725.4432217346858
118,725.4461538625246
119,725.4494553522226
120,725.4530583106712
121,725.4568921442606
122,725.4608840523972
123,725.4649595443601
124,725.4690429736163
125,725.4730580838153
126,725.4769285614997
127,725.4805785910288
128,725.4839334069177
129,725.4869198381272
130,725.4894668385483
131,725.491505998464
132,725.492972032841
133,725.4938032430452
134,725.4939419484502
135,725.4933348837565
136,725.4919335575038
137,725.4896945676254
138,725.4865798706777
139,725.4825570021823
140,725.4775992462904
141,725.4716857538307
142,725.4648016086478
143,725.4569378427773
144,725.448091401309
145,725.4382650579295
146,725.4274672824439
147,725.415712062324
148,725.4030186814231
149,725.3894114599359
150,725.3749194599945
151,725.3595761613088
152,725.3434191118778
153,725.3264895602558
154,725.308832077229
155,725.2904941750656
156,725.2715259316262
157,725.251979624912
158,725.2319093813803
159,725.2113708386755
160,725.1904208207001
161,725.1691170209211
162,725.147517689012
163,725.1256813162984
164,725.1036663165296
165,725.0815306998513
166,725.0593317393057
167,725.0371256305847
168,725.0149671469035
169,724.9929092916574
170,724.971002952096
171,724.9492965577689
172,724.9278357479019
173,724.906663051915
174,724.8858175870417
175,724.8653347769704
176,724.8452460959417
177,724.8255788435432
178,724.8063559558265
179,724.7875958579152
180,724.7693123621078
181,724.7515146140886
182,724.7342070887069
183,724.7173896361988
184,724.7010575796651
185,724.6852018645418
186,724.6698092601354
187,724.6548626120756
188,724.6403411432543
189,724.6262207995907
190,724.612474635685
191,724.5990732341248
192,724.5859851510869
193,724.5731773799748
194,724.5606158242724
195,724.5482657708973
196,724.5360923565571
197,724.5240610220137
198,724.5121379520391
199,724.50029050082
200,724.4884876028583
201,724.4767001685477
202,724.4649014626749
203,724.4530674634973
204,724.4411771995697
205,724.4292130609377
206,724.4171610807435
207,724.4050111825835
208,724.3927573881704
209,724.3803979794061
210,724.3679356092387
211,724.3553773564876
212,724.3427347208094
213,724.3300235549352
214,724.3172639321407
215,724.3044799474977
216,724.2916994520633
217,724.2789537203913
218,724.2662770538797
219,724.2537063249458
220,724.2412804690828
221,724.2290399333306
222,724.2170260909111
223,724.2052806329236
224,724.1938449489138
225,724.1827595084221
226,724.172063255168
227,724.1617930247276
228,724.15198299586
229,724.1426641848416
230,724.1338639907535
231,724.1256057975907
232,724.1179086369015
233,724.1107869130232
234,724.104250191791
235,724.0983030525003
236,724.0929450019208
237,724.0881704486595
238,724.0839687361973
239,724.0803242331107
240,724.0772164789564
241,724.0746203838702
242,724.0725064789837
243,724.0708412132615
244,724.0695872905892
245,724.06870403976
246,724.0681478101071
247,724.0678723867403
248,724.0678294206798
249,724.0679688699155
250,724.0682394476793
251,724.068589074486
252,724.0689653304443
253,724.0693159031888
254,724.0695890245165
255,724.0697338865011
256,724.0697010267872
257,724.0694426736205
258,724.068913043732
259,724.0680685895513
260,724.0668681954162
261,724.0652733250234
262,724.0632481243937
263,724.0607594862354
264,724.0577770827839
265,724.0542733747868
266,724.0502236042553
267,724.0456057778622
268,724.0404006464651
269,724.0345916844109
270,724.0281650708039
271,724.0211096744441
272,724.0134170443838
273,724.005081407932
274,723.9960996767919
275,723.9864714601775
276,723.9761990821203
277,723.9652875995248
278,723.9537448180854
279,723.941581304345
280,723.9288103929415
281,723.9154481878497
282,723.9015135553293
283,723.8870281048638
284,723.8720161532683
285,723.8565046668623
286,723.8405231772873
287,723.8241036678522
288,723.807280428934
289,723.790089882904
290,723.772570381057
291,723.7547619764476
292,723.7367061770263
293,723.7184456833108
294,723.7000241146868
295,723.6814857286265
296,723.6628751374398
297,723.6442370270719
298,723.6256158815559
299,723.6070557153314
300,723.5885998146749
301,723.5702904897764
302,723.552168840509
303,723.5342745404846
304,723.5166456439918
305,723.4993184182819
306,723.4823272004289
307,723.4657042754391
308,723.4494797717333
309,723.4336815715936
310,723.4183352366131
311,723.4034639502406
312,723.3890884803135
313,723.3752271639659
314,723.3618959159459
315,723.3491082597848
316,723.336875380048
317,723.3252061932925
318,723.3141074351295
319,723.3035837605454
320,723.2936378542051
321,723.2842705471573
322,723.2754809367037
323,723.2672665073205
324,723.2596232519971
325,723.2525457944536
326,723.2460275127373
327,723.2400606634689
328,723.2346365041737
329,723.2297454100107
330,723.2253769816385
331,723.221520142697
332,723.2181632273299
333,723.2152940595167
334,723.2129000264076
335,723.210968147307
336,723.209485138568
337,723.2084374732251
338,723.207811433641
339,723.2075931559629
340,723.2077686662882
341,723.2083239097309
342,723.2092447748554
343,723.2105171170874
344,723.2121267854932
345,723.2140596573407
346,723.2163016838731
347,723.2188389489625
348,723.2216577402579
349,723.2247446303077
350,723.2280865631109
351,723.2316709401414
352,723.235485699596
353,723.2395193835187
354,723.2437611891455
355,723.2482010028391
356,723.2528294169717
357,723.2576377317862
358,723.2626179453629
359,723.2677627353195
360,723.2730654358164
361,723.2785200127728
362,723.2841210390661
363,723.2898636705186
364,723.2957436233395
365,723.301757154582
366,723.3079010487456
367,723.3141726152113
368,723.3205697016648
369,723.3270907273319
370,723.3337347370332
371,723.3405014740324
372,723.3473914674391
373,723.3544061286942
374,723.3615478511292
375,723.3688201066243
376,723.3762275338835
377,723.3837760134895
378,723.3914727255117
379,723.3993261861485
380,723.4073462607646
381,723.4155441514677
382,723.423932357731
383,723.4325246085931
384,723.4413357652253
385,723.4503816935581
386,723.4596791078445
387,723.4692453868497
388,723.479098364553
389,723.4892560970646
390,723.4997366070936
391,723.5105576068792
392,723.5217362002759
393,723.5332885649902
394,723.5452296170084
395,723.5575726611503
396,723.5703290342746
397,723.5835077502477
398,723.5971151573913
399,723.6111546191327
400,723.6256262273675
401,723.6405265565556
402,723.6558484654392
403,723.671580952335
404,723.687709068904
405,723.7042138960733
406,723.7210725843387
407,723.7382584590763
408,723.755741189968
409,723.7734870221897
410,723.7914590654152
411,723.8096176350209
412,723.8279206383863
413,723.846323997925
414,723.8647821014258
415,723.883248269649
416,723.9016752310048
417,723.9200155933332
418,723.9382223030669
419,723.9562490825866
420,723.9740508378118
421,723.9915840300351
422,724.0088070081168
423,724.025680298716
424,724.0421668530629
425,724.0582322490386
426,724.0738448473198
427,724.0889759003992
428,724.1035996135855
429,724.1176931575673
430,724.1312366328118
431,724.1442129871732
432,724.1566078895835
433,724.1684095642207
434,724.1796085908669
435,724.1901976785107
436,724.2001714207316
437,724.2095260426953
438,724.2182591502342
439,724.2263694913335
440,724.2338567395541
441,724.2407213077682
442,724.2469641993032
443,724.2525869024486
444,724.2575913333524
445,724.2619798311557
446,724.2657552070467
447,724.2689208456343
448,724.2714808535512
449,724.2734402476628
450,724.2748051741472
451,724.2755831495303
452,724.2757833145434
453,724.2754166907489
454,724.2744964283788
455,724.2730380326307
456,724.2710595557528
457,724.2685817439741
458,724.2656281311653
459,724.2622250741283
460,724.2584017269634
461,724.2541899541365
462,724.2496241839912
463,724.2447412065654
464,724.2395799215152
465,724.2341810434818
466,724.2285867730498
467,724.2228404412508
468,724.2169861344995
469,724.2110683053048
470,724.2051313726189
471,724.1992193147781
472,724.1933752579737
473,724.1876410639261
474,724.1820569215679
475,724.1766609486801
476,724.1714888101401
477,724.1665733593916
478,724.1619443089426
479,724.1576279342289
480,724.1536468131037
481,724.1500196007297
482,724.1467608372806
483,724.1438807842776
484,724.1413852851085
485,724.1392756463994
486,724.1375485390124
487,724.1361959197335
488,724.135204976463
489,724.1345581006738
490,724.1342328913105
491,724.1342021944928
492,724.134434183249
493,724.1348924807088
494,724.1355363287906
495,724.1363208031643
496,724.1371970747953
497,724.1381127183831
498,724.1390120673904
499,724.139836613689
500,724.1405254479718
501,724.1410157360033
502,724.1412432254226
503,724.1411427773885
504,724.1406489165932
505,724.1396963924922
506,724.138220744517
507,724.1361588645931
508,724.1334495509981
509,724.1300340479736
510,724.1258565654201
511,724.1208647727927
512,724.1150102616391
513,724.1082489725358
514,724.1005415841532
515,724.0918538639022
516,724.0821569804351
517,724.0714277782678
518,724.0596490144948
519,724.0468095576202
520,724.0329045492331
521,724.0179355302837
522,724.0019105343463
523,723.9848441499555
524,723.9667575529461
525,723.9476785081469
526,723.9276413383988
527,723.9066868581984
528,723.8848622692524
529,723.8622210154492
530,723.8388225949948
531,723.8147323279456
532,723.790021078204
533,723.7647649297136
534,723.7390448166506
535,723.7129461071454
536,723.6865581402556
537,723.6599737169681
538,723.6332885479558
539,723.6066006634018
540,723.5800097928247
541,723.5536167243785
542,723.5275226527407
543,723.5018285229169
544,723.4766343753927
545,723.4520386968796
546,723.4281377804651
547,723.4050250992271
548,723.3827906980696
549,723.3615206090507
550,723.3412962953582
551,723.3221941285902
552,723.3042849036748
553,723.2876333956609
554,723.2722979623467
555,723.2583301962002
556,723.2457746284517
557,723.2346684875682
558,723.225041513659
559,723.2169158301874
560,723.2103058747161
561,723.2052183905738
562,723.2016524808158
563,723.199599724954
564,723.1990443579393
565,723.199963509642
566,723.2023275015857
567,723.2061001963708
568,723.2112393943512
569,723.2176972714548
570,723.2254208513796
571,723.2343525051541
572,723.2444304715889
573,723.255589393156
574,723.2677608626192
575,723.2808739760025
576,723.2948558873455
577,723.3096323604004
578,723.3251283122556
579,723.3412683441719
580,723.3579772559129
581,723.3751805414325
582,723.3928048653073
583,723.4107785200902
584,723.4290318646939
585,723.4474977434118
586,723.4661118845718
587,723.4848132770462
588,723.5035445216987
589,723.5222521534819
590,723.5408869290067
591,723.5594040746408
592,723.5777634912688
593,723.5959299129524
594,723.6138730176755
595,723.6315674895341
596,723.6489930332091
597,723.6661343427533
598,723.6829810270332
599,723.6995274935074
600,723.7157727910613
601,723.7317204121848
602,723.7473780551609
603,723.7627573475907
604,723.7778735329464
605,723.7927451220406
606,723.8073935117267
607,723.8218425737709
608,723.8361182172523
609,723.8502479278138
610,723.8642602867579
611,723.8781844728902
612,723.892049750793
613,723.9058849508209
614,723.91971794762
615,723.9335751443571
616,723.9474809691536
617,723.9614573895361
618,723.9755234508177
619,723.9896948448213
620,724.0039835154427
621,724.0183973070692
622,724.0329396610584
623,724.047609364229
624,724.0624003515633
625,724.0773015636611
626,724.0922968587244
627,724.1073649789809
628,724.1224795716091
629,724.1376092638257
630,724.1527177910942
631,724.1677641770315
632,724.1827029637918
633,724.1974844923985
634,724.2120552330698
635,724.2263581654455
636,724.2403332076229
637,724.253917691457
638,724.2670468800206
639,724.2796545217576
640,724.291673434901
641,724.3030361151477
642,724.3136753592754
643,724.3235248975216
644,724.3325200282401
645,724.3405982491868
646,724.3476998802452
647,724.3537686725284
648,724.3587523990107
649,724.3626034223585
650,724.365279236186
651,724.366742976167
652,724.3669638972877
653,724.3659178134068
654,724.3635874955185
655,724.3599630257168
656,724.3550421046527
657,724.3488303109083
658,724.3413413106343
659,724.3325970147519
660,724.3226276793068
661,724.3114719430569
662,724.2991767958205
663,724.2857974716646
664,724.2713972622129
665,724.2560472468548
666,724.2398259383358
667,724.2228188440503
668,724.2051179452643
669,724.1868210983422
670,724.1680313638379
671,724.1488562711472
672,724.1294070283772
673,724.109797688899
674,724.0901442870111
675,724.0705639547228
676,724.0511740301284
677,724.032091165957
678,724.0134304451399
679,723.9953045087125
680,723.977822700275
681,723.961090231007
682,723.9452073699482
683,723.9302686654663
684,723.9163622049001
685,723.9035689199914
686,723.8919619459447
687,723.8816060419308
688,723.8725570807984
689,723.8648616158933
690,723.8585565331413
691,723.8536687965001
692,723.850215293999
693,723.8482027895305
694,723.847627982596
695,723.8484776750356
696,723.8507290412274
697,723.8543499965853
698,723.859299658002
699,723.8655288885568
700,723.8729809171773
701,723.8815920224348
702,723.8912922689935
703,723.9020062858426
704,723.9136540768038
705,723.9261518549035
706,723.939412892485
707,723.95334837881
708,723.967868277215
709,723.9828821749354
710,723.9983001195951
711,724.0140334360601
712,724.0299955162185
713,724.0461025734301
714,724.0622743532615
715,724.0784347922951
716,724.0945126172885
717,724.1104418780944
718,724.1261624093161
719,724.1416202170705
720,724.1567677883493
721,724.1715643219089
722,724.1859758817558
723,724.1999754764324
724,724.213543068032
725,724.2266655136289
726,724.2393364398342
727,724.2515560502384
728,724.2633308660737
729,724.2746734016448
730,724.2856017771745
731,724.2961392728963
732,724.3063138301274
733,724.3161575078295
734,724.325705905927
735,724.3349975679738
736,724.3440733750349
737,724.352975940552
738,724.3617490137336
739,724.3704368974211
740,724.3790838856073
741,724.3877337253756
742,724.3964291072526
743,724.4052111863967
744,724.4141191349431
745,724.4231897238594
746,724.4324569314357
747,724.4419515755177
748,724.4517009677668
749,724.4617285899774
750,724.4720537940681
751,724.4826915284565
752,724.4936520942607
753,724.504940935299
754,724.5165584661617
755,724.528499942641
756,724.5407553785043
757,724.5533095119105
758,724.5661418237355
759,724.5792266088978
760,724.5925331007462
761,724.6060256477538
762,724.619663941277
763,724.6334032932996
764,724.6471949638042
765,724.6609865378242
766,724.674722351415
767,724.6883439640782
768,724.701790673696
769,724.7150000693466
770,724.7279086171687
771,724.740452274267
772,724.7525671252888
773,724.7641900357951
774,724.7752593160653
775,724.7857153887463
776,724.7955014536883
777,724.8045641429486
778,724.8128541579597
779,724.8203268796725
780,724.8269429419612
781,724.8326687591252
782,724.8374769995946
783,724.8413469993009
784,724.8442651091416
785,724.84622497117
786,724.847227717589
787,724.8472820860715
788,724.8464044453846
789,724.8446187270165
790,724.8419562607984
791,724.8384555146608
792,724.8341617406642
793,724.8291265318688
794,724.8234072975783
795,724.8170666672635
796,724.8101718352112
797,724.8027938584669
798,724.7950069202277
799,724.7868875695966
800,724.7785139465416
801,724.7699649984758
802,724.7613196930686
803,724.7526562315534
804,724.7440512677181
805,724.7355791389574
806,724.7273111165038
807,724.7193146820737
808,724.7116528377504
809,724.7043834552827
810,724.6975586706942
811,724.691224330452
812,724.6854194961383
813,724.6801760150801
814,724.6755181643084
815,724.6714623742969
816,724.6680170372299
817,724.6651824027226
818,724.6629505627129
819,724.6613055267326
820,724.6602233881123
821,724.6596725800424
822,724.6596142178462
823,724.6600025213498
824,724.6607853097634
825,724.6619045608242
826,724.6632970252992
827,724.6648948870796
828,724.6666264584982
829,724.6684169004192
830,724.6701889569574
831,724.6718636951277
832,724.6733612400141
833,724.6746014961377
834,724.6755048460788
835,724.6759928185909
836,724.6759887202916
837,724.6754182265677
838,724.674209927924
839,724.6722958279753
840,724.6696117897127
841,724.666097928114
842,724.6616989491104
843,724.6563644365536
844,724.6500490897981
845,724.642712914928
846,724.6343213728662
847,724.6248454879517
848,724.614261921134
849,724.6025530121918
850,724.5897067948301
851,724.5757169875789
852,724.5605829630487
853,724.544309698558
854,724.526907711733
855,724.5083929846382
856,724.4887868790637
857,724.4681160439206
858,724.4464123136875
859,724.4237125950394
860,724.4000587377735
861,724.3754973863555
862,724.350079809889
863,724.3238617103449
864,724.2969030104766
865,724.2692676235382
866,724.2410232071223
867,724.2122409036523
868,724.1829950702349
869,724.1533630004533
870,724.1234246404185
871,724.0932623015887
872,724.062960373673
873,724.032605041889
874,724.0022840133133
875,723.9720862568169
876,723.9421017600297
877,723.912421305001
878,723.8831362621211
879,723.8543384001375
880,723.826119709198
881,723.7985722337382
882,723.7717879123015
883,723.7458584217388
884,723.720875023724
885,723.6969284122613
886,723.6741085616923
887,723.6525045752577
888,723.6322045344688
889,723.6132953496364
890,723.5958626119641
891,723.5799904473166
892,723.5657613708668
893,723.5532561403909
894,723.5425536044103
895,723.533730540255
896,723.5268614769466
897,723.5220184985623
898,723.5192710250426
899,723.5186855687025
900,723.5203254655742
901,723.5242505809761
902,723.5305169884213
903,723.5391766204108
904,723.550276889262
905,723.5638602763842
906,723.5799638896251
907,723.5986189904407
908,723.6198504953683
909,723.643676459075
910,723.6701075484038
911,723.699146517814
912,723.7307876964459
913,723.7650164963948
914,723.8018089515334
915,723.8411312967107
916,723.8829395977751
917,723.927179442681
