acceleration,velocity,displacement
-0.08610056913421761,0.0,0.0
-0.08517550414901198,-4.281901832080739e-05,-1.0704754580201849e-08
-0.08425258426208855,-8.517604042358252e-05,-4.270351926629933e-08
-0.08333394276343548,-0.00012707267217996354,-9.576569741718585e-08
-0.08242168945489108,-0.00016851158023454518,-1.6966176052081303e-07
-0.08151789920977616,-0.000209496477400712,-2.641637749296273e-07
-0.08062460085727585,-0.00025003210241747497,-3.790459198841741e-07
-0.07974376645487388,-0.0002901241942455124,-5.140849940499209e-07
-0.07887730100706324,-0.0003297794611109967,-6.690609078890482e-07
-0.07802703270021472,-0.0003690055445378162,-8.437571593012514e-07
-0.07719470373961045,-0.0004078109786477725,-1.0379612900976485e-06
-0.07638196188155824,-0.0004462051450530647,-1.251465321022858e-06
-0.07559035274404895,-0.0004841982237094665,-1.4840661632134907e-06
-0.07482131295558765,-0.0005218011401343757,-1.7355660041744514e-06
-0.07407616417431508,-0.0005590255094168514,-2.005772666562258e-06
-0.07335610799340724,-0.0005958835774587819,-2.2944999382811664e-06
-0.07266222175156647,-0.0006323881598950254,-2.6015678726196183e-06
-0.07199545528283859,-0.0006685525791536266,-2.9268030573817815e-06
-0.07135662865037468,-0.00070439060013693,-3.2700388522044208e-06
-0.07074643090049781,-0.0007399163650246482,-3.6311155934948154e-06
-0.07016541984869952,-0.0007751443277119475,-4.009880766678964e-06
-0.06961402288296721,-0.0008100891883948642,-4.406189145705667e-06
-0.06909253875410416,-0.000844765828804132,-4.819902900005416e-06
-0.068601140314653,-0.0008791892485713214,-5.250891669349279e-06
-0.06813987815466233,-0.0009133745031886501,-5.699032607289272e-06
-0.06770868505349019,-0.0009473366439906883,-6.1642103940841066e-06
-0.0673073811264852,-0.0009810906605356821,-6.646317220215699e-06
-0.06693567951172677,-0.0010146514256952352,-7.145252741773429e-06
-0.06659319243022495,-0.0010480336436807232,-7.660924009117419e-06
-0.06627943746146084,-0.0010812518011536446,-8.193245370326011e-06
-0.06599384389481017,-0.0011143201214927124,-8.7421383509876e-06
-0.06573575904307455,-0.0011472525222271837,-9.307531511917574e-06
-0.06550445443582299,-0.001180062575596908,-9.889360286373597e-06
-0.06529913183601017,-0.0012127634721648662,-1.0487566798314041e-05
-0.06511892903236692,-0.0012453679873819605,-1.1102099663200747e-05
-0.06496292535937459,-0.0012778884509798958,-1.173291377279121e-05
-0.06483014690177964,-0.0013103367190451843,-1.237997006529748e-05
-0.06471957135622917,-0.0013427241486096866,-1.3043235282211198e-05
-0.06463013254244837,-0.001375061574584356,-1.3722681713009709e-05
-0.06456072457510638,-0.0014073592888637445,-1.4418286928871733e-05
-0.06451020572184715,-0.0014396270214379829,-1.5130033506447165e-05
-0.06447740198257612,-0.0014718739233640886,-1.585790874264768e-05
-0.06446111043496837,-0.0015041085514684747,-1.660190436135582e-05
-0.0644601024061559,-0.0015363388546787559,-1.736201621289263e-05
-0.06447312654626733,-0.0015685721619168617,-1.8138243967041534e-05
-0.06449891188644233,-0.0016008151715250392,-1.893059080040201e-05
-0.06453617095628783,-0.0016330739422357218,-1.97390630788422e-05
-0.06458360301758247,-0.0016653538857291895,-2.056367003583343e-05
-0.06463989745381007,-0.0016976597608470375,-2.1404423447477485e-05
-0.06470373734588075,-0.0017299956695469602,-2.2261337305075983e-05
-0.06477380325860814,-0.0017623650546980823,-2.3134427486137244e-05
-0.06484877725265706,-0.0017947706998258986,-2.4023711424768238e-05
-0.06492734712251402,-0.0018272147309196915,-2.4929207782454635e-05
-0.0650082108475369,-0.0018596986204122042,-2.5850936120287608e-05
-0.06509008123250101,-0.0018922231934322136,-2.678891657374871e-05
-0.06517169070535649,-0.001924788636416678,-2.7743169531210934e-05
-0.0652517962311661,-0.0019573945081508086,-2.8713715317352807e-05
-0.06532918429135501,-0.001990039753281439,-2.9700573882710867e-05
-0.06540267586976287,-0.0020227227183217183,-3.0703764500611655e-05
-0.06547113138663808,-0.0020554411701358185,-3.172330547272604e-05
-0.06553345552646614,-0.0020881923168640944,-3.275921384447602e-05
-0.06558860190476858,-0.002120972831221903,-3.3811505131497515e-05
-0.0656355775088257,-0.0021537788760753016,-3.4880193058321816e-05
-0.06567344683635158,-0.0021866061321615957,-3.5965289310381043e-05
-0.06570133565605939,-0.0022194498277846985,-3.706680330036762e-05
-0.06571843432853523,-0.002252304770280847,-3.8184741949884004e-05
-0.06572400064720323,-0.0022851653790247816,-3.931910948721041e-05
-0.06571736217307535,-0.0023180257197298513,-4.0469907261899066e-05
-0.06569791803657127,-0.002350879539782263,-4.1637133576777096e-05
-0.06566514017278381,-0.0023837203043346016,-4.282078353780631e-05
-0.06561857395896656,-0.002416541232867539,-4.402084892210685e-05
-0.06555783824486175,-0.002449335335918496,-4.523731806430336e-05
-0.06548262480225242,-0.0024820954516802745,-4.647017576120305e-05
-0.06539269725168155,-0.002514814282193758,-4.771940319467156e-05
-0.06528788953919368,-0.002547484428891477,-4.898497787244287e-05
-0.0651681040385325,-0.0025800984272859088,-5.0266873586487216e-05
-0.06503330935480701,-0.002612648780634244,-5.1565060388467256e-05
-0.0648835379083704,-0.002645127992450038,-5.2879504581738323e-05
-0.06471888338117629,-0.0026775285977724246,-5.421016872929394e-05
-0.06453949811094982,-0.002709843193145456,-5.555701167702341e-05
-0.0643455905236513,-0.0027420644653041067,-5.69199885916358e-05
-0.06413742270414863,-0.0027741852186110565,-5.829905101261459e-05
-0.06391530821209171,-0.0028061984013401167,-5.969414691760238e-05
-0.06367961024281248,-0.0028380971309538428,-6.110522080067587e-05
-0.06343074020733218,-0.002869874718566379,-6.253221376305593e-05
-0.06316915676835996,-0.0029015246928103017,-6.39750636159001e-05
-0.06289536532969685,-0.0029330408233348157,-6.543370499493638e-05
-0.06260991794013807,-0.0029644171441522743,-6.690806948680816e-05
-0.062313413540916004,-0.0029956479770225377,-6.839808576710185e-05
-0.06200649845831445,-0.0030267279550223454,-6.990367975011307e-05
-0.061689867021079405,-0.003057652046392194,-7.142477475046672e-05
-0.061364262167659125,-0.0030884155786893787,-7.296129165673711e-05
-0.061030475906539344,-0.0031190142632079284,-7.451314911721144e-05
-0.06068934950967488,-0.003149444219561982,-7.608026373790392e-05
-0.06034177335150341,-0.0031797020002772764,-7.766255029286373e-05
-0.05998868634039666,-0.0032097846152002512,-7.925992194673312e-05
-0.05963107491276987,-0.0032396895555135427,-8.087229048941156e-05
-0.059269971569035136,-0.003269414817133994,-8.249956658257344e-05
-0.05890645292846698,-0.0032989589232583698,-8.414166001767153e-05
-0.05854163727214104,-0.003328320945808522,-8.579847998493825e-05
-0.0581766815346259,-0.0033575005255102137,-8.746993535276793e-05
-0.057812777700509896,-0.003386497890318998,-8.915593495672524e-05
-0.05745114856472582,-0.0034153138718853067,-9.085638789727631e-05
-0.05709304282922349,-0.003443949919733794,-9.257120384518108e-05
-0.05673972953392174,-0.00347240811282458,-9.430029335332068e-05
-0.056392491852201916,-0.003500691168171111,-9.604356817356961e-05
-0.056052620308871044,-0.003528802446211379,-9.780094157716523e-05
-0.05572140549232882,-0.003556745952661679,-9.95723286768835e-05
-0.05540013033176294,-0.0035845263366177022,-0.00010135764674920334
-0.05509006199993189,-0.003612148884700626,-0.00010315681555453292
-0.054792443489168945,-0.003639619511072901,-0.00010496975765347631
-0.05450848490139587,-0.0036669447431705426,-0.00010679639871703717
-0.054239354499683555,-0.0036941317030208124,-0.000108636667828585
-0.05398616958848091,-0.0037211880840428537,-0.00011049049777535092
-0.053749987315686906,-0.0037481221232688955,-0.00011235782532717885
-0.0535317955162791,-0.003774942568976887,-0.0001142385915002403
-0.05333250373792127,-0.0038016586437904375,-0.00011613274180343212
-0.05315293459816814,-0.00382828000337446,-0.00011804022646522335
-0.052993815623413126,-0.003854816690929855,-0.00011996100063879944
-0.05285577171993843,-0.0038812790877656928,-0.00012189502458347333
-0.05273931843007851,-0.003907677860303197,-0.00012384226382049056
-0.05264485612708312,-0.003934023903942487,-0.00012580268926155197
-0.052572665292511964,-0.003960328284297386,-0.00012777627730861194
-0.05252290299363148,-0.003986602176368922,-0.0001297630099237785
-0.05249560063661267,-0.004012856802276483,-0.00013176287466843987
-0.05249066302099417,-0.0040391033681908845,-0.0001337758647110567
-0.05250786866925631,-0.004065353001113447,-0.00013580197880338278
-0.05254687136163669,-0.0040916166861211705,-0.00013784122122519144
-0.05260720278197527,-0.004117905204657073,-0.000139893601697886
-0.05268827617985096,-0.00414422907439753,-0.00014195913526764966
-0.05278939097020797,-0.004170598491185045,-0.00014403784215904532
-0.0529097382122933,-0.004197023273480671,-0.00014612974760021174
-0.05304840692740263,-0.0042235128097655944,-0.0001482348816210233
-0.05320439122552574,-0.004250076009303826,-0.00015035327882579065
-0.05337659820919576,-0.004276721256662506,-0.00015248497814228224
-0.053563856604975695,-0.004303456370366049,-0.00015463002254903938
-0.05376492604469642,-0.004330288566028467,-0.00015678845878313802
-0.053978506893225656,-0.0043572244242629475,-0.00015896033703071086
-0.054203250505845964,-0.004384269863612716,-0.00016114571060267977
-0.05443776979560841,-0.004411430118688079,-0.00016334463559825496
-0.05468064999397627,-0.004438709723635475,-0.00016555717055883584
-0.05493045949072022,-0.00446611250100665,-0.00016778337611499637
-0.055185760637016,-0.004493641556038584,-0.00017002331462925767
-0.05544512039216883,-0.00452129927629588,-0.0001722770498373413
-0.055707120696527015,-0.004549087336568054,-0.00017454464649055727
-0.0559703684619748,-0.00457700670885768,-0.00017682617000191371
-0.056233505082325434,-0.004605057677243755,-0.00017912168609843907
-0.056495215375531066,-0.004633239857358219,-0.00018143126048208956
-0.05675423587640811,-0.0046615522201712035,-0.0001837549585014719
-0.05700936240012958,-0.004689993119740338,-0.0001860928448364498
-0.05725945679604348,-0.004718560324539382,-0.00018844498319751972
-0.05750345282001736,-0.004747251051943397,-0.00019081143604164042
-0.057740361078636206,-0.00477606200541806,-0.0001931922643059808
-0.05796927303078616,-0.004804989413945416,-0.00019558752716082166
-0.05818936405380643,-0.004834029073216564,-0.00019799728178261216
-0.05839989558512181,-0.004863176388126296,-0.00020042158314794787
-0.05860021634547023,-0.004892426416108944,-0.00020286048384900667
-0.05878976265308692,-0.004921773910858584,-0.00020531403393074854
-0.05896805785822216,-0.004951213365986411,-0.0002077822807499598
-0.05913471095468001,-0.004980739058189636,-0.0002102652688560038
-0.05928941444223198,-0.0050103450895388636,-0.00021276303989293591
-0.059431941515612145,-0.005040025428528325,-0.00021527563252245272
-0.059562142655225206,-0.005069773949571034,-0.00021780308236697755
-0.059679941705019786,-0.005099584470661096,-0.0002203454219720356
-0.059785331542433595,-0.00512945078897296,-0.0002229026807869441
-0.05987836946011982,-0.005159366714223598,-0.00022547488516274324
-0.05995917237724744,-0.00518932609968294,-0.00022806205836621988
-0.060027911978699666,-0.005219322870771927,-0.0002306642206088336
-0.0600848098503473,-0.005249351051229189,-0.0002332813890893339
-0.06013013264544898,-0.005279404786853138,-0.00023591357804885447
-0.060164187287563356,-0.005309478366836391,-0.00023856079883727686
-0.06018731619388121,-0.005339566242706753,-0.00024122305998966264
-0.060199892492913416,-0.005369663044878451,-0.00024390036731155896
-0.060202315212300905,-0.005399763596804754,-0.00024659272397197976
-0.06019500442131982,-0.005429862926713159,-0.00024930013060285924
-0.06017839631989511,-0.005459956276898463,-0.00025202258540376216
-0.0601529382666832,-0.005490039110545107,-0.00025476008425062306
-0.06011908373572849,-0.00552010711604571,-0.00025751262080727077
-0.06007728719221699,-0.005550156208777696,-0.00026028018663847664
-0.060027998888939324,-0.005580182530297986,-0.00026306277132324556
-0.05997165960549111,-0.0056101824449215935,-0.00026586036256705047
-0.059908695373628196,-0.005640152533666373,-0.0002686729463116975
-0.05983951224456019,-0.00567008958557092,-0.0002715005068415068
-0.05976449115434423,-0.005699990586420647,-0.0002743430268845047
-0.059683982937111926,-0.00572985270494351,-0.0002772004877073457
-0.05959830352994921,-0.005759673276560275,-0.00028007286920272165
-0.05950772941127112,-0.00578944978479558,-0.0002829601499680606
-0.059412493314106286,-0.005819179840476925,-0.0002858623073743787
-0.05931278025218327,-0.005848861158868498,-0.0002887793176242151
-0.05920872388953691,-0.005878491534903928,-0.0002917111557976582
-0.059100403278277265,-0.005908068816695882,-0.0002946577958855581
-0.05898783999098151,-0.005937590877513196,-0.0002976192108091104
-0.05887099568463359,-0.0059670555864321,-0.00030059537242509675
-0.05874977014564142,-0.005996460777889669,-0.0003035862515161772
-0.0586239998717975,-0.006025804220394029,-0.0003065918177657481
-0.05849345724545088,-0.00605508358467334,-0.00030961203971701496
-0.058357850348332206,-0.006084296411571786,-0.00031264688471607625
-0.058216823466988324,-0.006113440080025616,-0.0003156963188389756
-0.05806995833343709,-0.0061425117754757225,-0.00031876030680285094
-0.05791677612873507,-0.006171508459091266,-0.0003218388118614927
-0.05775674024623552,-0.006200426838185009,-0.00032493179568581176
-0.0575892597776015,-0.006229263338190968,-0.00032803921822990574
-0.05741369366318597,-0.006258014076551165,-0.00033116103758359125
-0.057229355447275566,-0.00628667483882878,-0.00033429720981243625
-0.057035518598775536,-0.006315241057340292,-0.00033744768878647853
-0.05683142239622271,-0.006343707792589042,-0.0003406124259989609
-0.05661627842424272,-0.0063720697177941585,-0.0003437913703765567
-0.056389277772165985,-0.00640032110684326,-0.0003469844680827161
-0.05614959904686065,-0.006428455826048017,-0.0003501916623159389
-0.05589641729788289,-0.0064564673301342025,-0.00035341289310498444
-0.055628913899655595,-0.006484348662933587,-0.0003566480971032514
-0.05534628734993862,-0.0065120924632459855,-0.00035989720738479627
-0.05504776484634492,-0.006539690976295057,-0.00036316015324468155
-0.054732614420883396,-0.006567136071111864,-0.00036643686000653326
-0.05440015736532084,-0.0065944192640584156,-0.0003697272488403258
-0.054049780666979644,-0.006621531748566491,-0.00037303123659348207
-0.05368094918314058,-0.006648464431029021,-0.0003763487356383809
-0.05329321729971472,-0.006675207972649735,-0.0003796796537393006
-0.052886239835795296,-0.006701752836933613,-0.00038302389394169646
-0.0524597819672141,-0.006728089342384365,-0.00038638135448652595
-0.052013727954125635,-0.0067542077198647,-0.00038975192875208823
-0.051548088476821116,-0.006780098173972436,-0.0003931355052255475
-0.05106300641354453,-0.006805750947695028,-0.0003965319675059644
-0.05055876093534578,-0.00683115638953225,-0.0003999411943402712
-0.050035769844476205,-0.006856305022227205,-0.00040336305969321105
-0.04949459013638132,-0.00688118761222242,-0.0004067974328518235
-0.048935916807922517,-0.0069057952389584955,-0.0004102441785646187
-0.048360579958208756,-0.0069301193631500285,-0.0004137031572151458
-0.04776954023732304,-0.006954151893198911,-0.00041717422502923307
-0.04716388270164997,-0.006977885248933655,-0.0004206572343147662
-0.046544809135414665,-0.007001312421892921,-0.0004241520337324729
-0.04591362889289612,-0.007024427031399999,-0.0004276584685957961
-0.045271748308180815,-0.007047223375700268,-0.00043117638119757114
-0.04462065872169446,-0.007069696477457737,-0.00043470561116086065
-0.0439619231932787,-0.0070918421229364806,-0.0004382459958109592
-0.04329716200838102,-0.007113656894236896,-0.00044179737056525254
-0.04262803712972814,-0.007135138194021423,-0.00044535956933731714
-0.04195623579015324,-0.007156284262251393,-0.00044893242495138536
-0.04128345345027897,-0.007177094184561501,-0.00045251576956308856
-0.04061137635492501,-0.0071975678920128015,-0.00045610943508223213
-0.03994166392549568,-0.007217706152082907,-0.00045971325359325604
-0.03927593123441662,-0.0072375105508728855,-0.00046332705776899497
-0.038615731823625314,-0.007256983466637396,-0.00046695068127337256
-0.03796254114430524,-0.007276128034879379,-0.00047058395914875175
-0.037317740899653465,-0.007294948105390368,-0.0004742267281838192
-0.03668260456213088,-0.0073134481917558145,-0.0004778788272581057
-0.036058284312569876,-0.00733163341397449,-0.0004815400976595383
-0.035445799610760165,-0.007349509434955322,-0.00048521038337177077
-0.03484602755560082,-0.007367082391746912,-0.0004888895313284464
-0.034259695136176244,-0.007384358822419857,-0.000492577391631988
-0.033687373427921365,-0.007401345589560881,-0.0004962738177349832
-0.03312947375663519,-0.00741804980135702,-0.0004999786665827127
-0.032586245831061705,-0.007434478731253944,-0.0005036917987158655
-0.03205777782119044,-0.007450639737167007,-0.0005074130783329707
-0.03154399832748922,-0.007466540181204177,-0.0005111423733125635
-0.031044680146308536,-0.0074821873508226265,-0.0005148795551955702
-0.030559445695512236,-0.007497588382283081,-0.0005186244991288466
-0.030087773932410328,-0.007512750187190062,-0.0005223770837712149
-0.02962900858214,-0.0075276793828187,-0.0005261371911637171
-0.029182367500981323,-0.007542382226839481,-0.0005299047065661317
-0.028746953017599816,-0.007556864556969126,-0.0005336795182620838
-0.028321763107796258,-0.007571131736000475,-0.0005374615173353262
-0.02790570325017176,-0.007585188602589967,-0.0005412505974199738
-0.027497598785247466,-0.007599039428098822,-0.000545046654427646
-0.02709620757614116,-0.0076126878796891695,-0.000548849586254593
-0.026700232759181812,-0.007626136989773,-0.0005526592924719585
-0.026308335382997688,-0.007639389131808545,-0.0005564756740023539
-0.025919146762201473,-0.007652446002344845,-0.0005602986327858922
-0.025531280406588842,-0.007665308609137043,-0.0005641280714387627
-0.02514334341935609,-0.0076779772650935295,-0.0005679638929073203
-0.024753947287954502,-0.007690451587770357,-0.0005718060001205363
-0.024361718024737293,-0.00770273050409853,-0.0005756542956435035
-0.023965305652816817,-0.007714812260017918,-0.0005795086813345326
-0.02356339306886064,-0.007726694434698337,-0.0005833690580082117
-0.023154704338945016,-0.007738373959050289,-0.0005872353251066488
-0.022738012489341396,-0.00774984713825736,-0.0005911073803809757
-0.022312146842172285,-0.007761109678090239,-0.0005949851195850627
-0.021875999926824975,-0.007772156714782488,-0.0005988684361832809
-0.021428533983566624,-0.007782982848260086,-0.0006027572210740415
-0.02096878706650414,-0.007793582178522604,-0.0006066513623307372
-0.020495878738507146,-0.0078039483449738566,-0.0006105507449616113
-0.020009015325430975,-0.007814074568489841,-0.0006144552506899773
-0.019507494669805628,-0.00782395369598865,-0.000618364757756097
-0.0189907103087237,-0.007833578247233283,-0.0006222791407419024
-0.018458154999832527,-0.007842940463560422,-0.0006261982704196008
-0.017909423525811784,-0.007852032358191834,-0.0006301220136250388
-0.01734421471131201,-0.007860845767751114,-0.0006340502331565245
-0.016762332582254694,-0.007869372404574505,-0.0006379827876996059
-0.016163686590612503,-0.007877603909367722,-0.0006419195317780914
-0.015548290829076125,-0.007885531903722645,-0.000645860315731364
-0.01491626216819887,-0.007893148041971963,-0.0006498049857177876
-0.014267817247536068,-0.007900444061825896,-0.0006537533837437371
-0.013603268235540587,-0.007907411833196666,-0.0006577053477174927
-0.012923017261457557,-0.007914043404570916,-0.0006616607115269346
-0.012227549444218307,-0.007920331046247335,-0.0006656193051396391
-0.011517424504734683,-0.007926267289734574,-0.0006695809547236346
-0.010793267032087503,-0.00793184496261878,-0.0006735454827867229
-0.010055755558606268,-0.007937057218266454,-0.0006775127083319442
-0.009305610666995772,-0.007941897559822855,-0.0006814824470264666
