frame_number,force
0,644.9169300000311
1,644.8737978515023
2,644.8344105655236
3,644.8019606328584
4,644.7785624965999
5,644.7647964433835
6,644.7593939659773
7,644.7591582053286
8,644.7591972962092
9,644.7534844108496
10,644.7356702404693
11,644.7000026132307
12,644.642179750068
13,644.5599794347795
14,644.4535607846643
15,644.3254210904798
16,644.1800770785294
17,644.0235814702545
18,643.8629659531204
19,643.7056545056257
20,643.5588627167444
21,643.4290052385037
22,643.3211570762465
23,643.2386284992401
24,643.1827041123516
25,643.1525695637066
26,643.1454227858045
27,643.1567536690119
28,643.1807694741736
29,643.2109271613853
30,643.240511579345
31,643.2631938413213
32,643.2735300686879
33,643.2674007980299
34,643.2424129740529
35,643.198266746823
36,643.1370383854531
37,643.0632867579886
38,642.9838864676753
39,642.9075305824955
40,642.8439137243315
41,642.8026780605998
42,642.7922597729623
43,642.8188031060627
44,642.8853116484257
45,642.9911787559863
46,643.1321795911581
47,643.300925372907
48,643.4876967196117
49,643.6815130001477
50,643.8712771855573
51,644.0468593425293
52,644.2000229181266
53,644.3251283478533
54,644.4195602021501
55,644.4838327731118
56,644.5213530815017
57,644.5378610126055
58,644.5406105266844
59,644.5373917335935
60,644.5355181690654
61,644.5409185847154
62,644.5574734788402
63,644.586707592678
64,644.6278825917029
65,644.6784512848348
66,644.7347687705823
67,644.7929169380631
68,644.849484485252
69,644.9021613797374
70,644.9500553005727
71,644.9937006356616
72,645.0347891032536
73,645.0756979573135
74,645.1189241634436
75,645.16654360785
76,645.21979930056
77,645.2788926112239
78,645.3430208884286
79,645.4106673829123
80,645.4800900750645
81,645.5498859867894
82,645.6194658417807
83,645.6892890408653
84,645.7607755167605
85,645.8359032378214
86,645.9165891001281
87,646.0040119192345
88,646.0980564173351
89,646.1970344160214
90,646.2977714729237
91,646.3960413589778
92,646.4872237169744
93,646.567000802475
94,646.6319198588357
95,646.6797119051303
96,646.7093382029861
97,646.720802149858
98,646.7148081346677
99,646.692372276498
100,646.6544938213923
101,646.6019827956577
102,646.5355083115393
103,646.4558716603841
104,646.3644257910743
105,646.2635027195614
106,646.1567094745349
107,646.0489948781334
108,645.9464412768077
109,645.8557951022608
110,645.7838170344651
111,645.7365746994949
112,645.7187931255568
113,645.7333391224455
114,645.7808801470304
115,645.8597395595914
116,645.9659618991709
117,646.0935930878259
118,646.2351623709726
119,646.3823211308409
120,646.5265554666674
121,646.6598667030865
122,646.7753310807835
123,646.86750440426
124,646.9326912988281
125,646.969114593585
126,646.9769994044229
127,646.9585563482774
128,646.9178299912696
129,646.860381561316
130,646.7928034271616
131,646.7221065453756
132,646.6550557374677
133,646.5975375022169
134,646.5540413000232
135,646.5273272814068
136,646.5183327640526
137,646.526328501261
138,646.5492841141652
139,646.5843580873162
140,646.6284035092492
141,646.6783830593747
142,646.7316164749444
143,646.78582874887
144,646.8390093926703
145,646.8891260078959
146,646.9337660733725
147,646.9698103202838
148,646.9932529044587
149,646.9992590216199
150,646.9824916373728
151,646.9376680060227
152,646.8602481750321
153,646.7471278255886
154,646.5972111668556
155,646.4117674799032
156,646.1945141297886
157,645.9514134648706
158,645.6902163105286
159,645.4198185578724
160,645.1495128636114
161,644.8882243759145
162,644.6438253404622
163,644.4226171073519
164,644.2290373284644
165,644.065604622837
166,643.9330739967803
167,643.8307537610305
168,643.7569206728308
169,643.7092512524474
170,643.6851677545795
171,643.6820062429891
172,643.6969758291501
173,643.7269722364891
174,643.7683763198389
175,643.8169659331837
176,643.8680124551329
177,643.916569973054
178,643.9579218768114
179,643.9881167331476
180,644.0044940093071
181,644.0060883542941
182,643.9938301497818
183,643.9705191819056
184,643.9406006849111
185,643.9097941234814
186,643.8846178025395
187,643.8718299156874
188,643.8777857529973
189,643.9077174193678
190,643.9649911612819
191,644.0504620777657
192,644.1620760645674
193,644.2948376134083
194,644.4411842122971
195,644.591717768409
196,644.7361725373711
197,644.8644697393619
198,644.9677247639866
199,645.0391091008281
200,645.0744936534912
201,645.0728107198621
202,645.0360955334028
203,644.9692179625259
204,644.8793670824923
205,644.7753733172782
206,644.6669439789711
207,644.5638775052222
208,644.4753264729408
209,644.409184383236
210,644.3716542869207
211,644.3670144473745
212,644.3975437413417
213,644.4635393306121
214,644.5633782827821
215,644.6936311870454
216,644.8492776197243
217,645.0240595804737
218,645.2109522378752
219,645.4026790317355
220,645.592185813503
221,645.7730199850566
222,645.9396116707684
223,646.0874843503244
224,646.2134075327036
225,646.3154675326355
226,646.3930210390535
227,646.446523161061
228,646.4772616360016
229,646.4870595324674
230,646.4780242118172
231,646.4524115734052
232,646.412631130853
233,646.3613526021111
234,646.3016286842291
235,646.2369545696686
236,646.1712325303849
237,646.1086523669076
238,646.0535035827493
239,646.0099218643645
240,645.9815769171662
241,645.9713343934792
242,645.9809493292773
243,646.0108534077827
244,646.060075046799
245,646.1262896151741
246,646.2059682810358
247,646.2945985842694
248,646.386969536355
249,646.4775156667251
250,646.5606927648909
251,646.6313396416854
252,646.6849864417164
253,646.7180927956697
254,646.7282195448383
255,646.714150020749
256,646.6759807016496
257,646.6151905909132
258,646.5346729900714
259,646.4386874594401
260,646.3326864259201
261,646.2230005555532
262,646.116411599627
263,646.0196661025301
264,645.9389752598934
265,645.8795296796605
266,645.8450601033858
267,645.8374930380766
268,645.8567597090785
269,645.9008005092129
270,645.965768327104
271,646.0463929958665
272,646.1364455857891
273,646.2292403967227
274,646.3181287529671
275,646.3969633420252
276,646.4605301451788
277,646.5049417234504
278,646.5279623070955
279,646.5292118988376
280,646.5101914178198
281,646.4740859687485
282,646.4253339987781
283,646.3689949529787
284,646.3100014318256
285,646.2524243427481
286,646.1988864490229
287,646.1502228287902
288,646.1054256178419
289,646.0618568475019
290,646.015683081046
291,645.9624713153833
292,645.8978746103104
293,645.8183270288332
294,645.7216678296219
295,645.6076246276847
296,645.4780931271587
297,645.3371531587605
298,645.1907769589997
299,645.0462369480356
300,644.9112923014613
301,644.7932845008633
302,644.698278513299
303,644.6303629818383
304,644.5911937723926
305,644.5798355954772
306,644.592921295191
307,644.6251099018332
308,644.6697868637449
309,644.7199121054538
310,644.7688878001394
311,644.8113041868112
312,644.8434437265233
313,644.8634789897663
314,644.8713696858003
315,644.8685298083277
316,644.8573789082585
317,644.840893032509
318,644.8222299478701
319,644.8044495650001
320,644.7903162333765
321,644.7821602627071
322,644.7817779529024
323,644.7903495173258
324,644.8083502665312
325,644.8354342901451
326,644.870297514571
327,644.9105744675176
328,644.9528580741784
329,644.9929192679556
330,645.0261396707909
331,645.0480888829208
332,645.0551210054958
333,645.0448592192961
334,645.016481746675
335,644.970792241878
336,644.9101175919277
337,644.8381029477588
338,644.7594642158672
339,644.6797201750906
340,644.60487969346
341,644.5410395332743
342,644.4938782738999
343,644.4680934552918
344,644.4668807615672
345,644.4915684601584
346,644.5414916012759
347,644.614130578022
348,644.7054747993297
349,644.810530631014
350,644.9238797526821
351,645.040198268527
352,645.1546582830574
353,645.2631584787935
354,645.3623800502975
355,645.4497261193997
356,645.5232373582562
357,645.5815594614699
358,645.623985797558
359,645.6505481620572
360,645.662105698933
361,645.6603852655526
362,645.6479347827293
363,645.6279551408725
364,645.603993206709
365,645.5795208264933
366,645.5574731811648
367,645.5398436365058
368,645.5274198232627
369,645.5197078225247
370,645.5150465439516
371,645.5108772996764
372,645.5041135310366
373,645.491557357066
374,645.4703251057825
375,645.4382533467003
376,645.3942513366877
377,645.3385571326417
378,645.2728535432191
379,645.2002057224217
380,645.1247990705277
381,645.0514936914878
382,644.985260490534
383,644.9305968634517
384,644.8910212726894
385,644.8687203913234
386,644.8643812463291
387,644.8772011869802
388,644.9050497568679
389,644.9447577777094
390,644.9925074728702
391,645.0442783992396
392,645.0962793107796
393,645.1452889893458
394,645.1888477811165
395,645.2252784718368
396,645.2535624859504
397,645.2731447774471
398,645.2837628527363
399,645.2853676775688
400,645.2781384679472
401,645.2625388176589
402,645.2393585362179
403,645.2097241600072
404,645.1750940252285
405,645.1372485242568
406,645.0982578298199
407,645.0603947400015
408,645.0259726761697
409,644.9971158221109
410,644.9754971142033
411,644.9621005517611
412,644.9570630181258
413,644.9596234037932
414,644.9681725375436
415,644.9803807602624
416,644.9933866679864
417,645.0040462747813
418,645.0092448477221
419,645.0062527210724
420,644.9930744050503
421,644.9687235282388
422,644.9333705689834
423,644.888351768424
424,644.8360727297843
425,644.7798582567763
426,644.72377918641
427,644.6724464329109
428,644.6307343321448
429,644.6034026438416
430,644.5946315030387
431,644.6075436725467
432,644.6438260490504
433,644.70355159168
434,644.7852486965363
435,644.8861923190636
436,645.0028262004572
437,645.1311957477599
438,645.2672936675879
439,645.4072765481579
440,645.5475583255152
441,645.6848073795694
442,645.8158815631701
443,645.937743321169
444,646.0474028872374
445,646.1419346832004
446,646.2185973843947
447,646.2750600991125
448,646.30969782326
449,646.3218819373167
450,646.3121789538344
451,646.2823979708725
452,646.2354830759936
453,646.1752983258965
454,646.1063728386397
455,646.0336631115596
456,645.9623665449815
457,645.8977900571599
458,645.8452375676937
459,645.8098438981984
460,645.7962768655699
461,645.8082669364927
462,645.8479976765199
463,645.9154768865357
464,646.0080660219553
465,646.1203342431437
466,646.2443241390254
467,646.3702137079421
468,646.487279145457
469,646.5850188553306
470,646.6542832087608
471,646.6882624823713
472,646.6832157880002
473,646.6388644929074
474,646.5584098648756
475,646.4481701983902
476,646.316880396392
477,646.1747497951941
478,646.032407789108
479,645.8998711444441
480,645.7856512676333
481,645.6960912441216
482,645.6349813145874
483,645.603459720678
484,645.6001842118794
485,645.6217543816546
486,645.6633459137099
487,645.7194703021023
488,645.7847222418219
489,645.8543617327244
490,645.9246221228276
491,645.9927253980464
492,646.0566771054995
493,646.1149641638118
494,646.1662785164436
495,646.2093490501973
496,646.2429026564016
497,646.2657201862985
498,646.2767312224194
499,646.2751066154394
500,646.2603355264129
501,646.2322897889575
502,646.1912804482395
503,646.1381089931757
504,646.0741119430645
505,646.0011903356321
506,645.9218090064717
507,645.8389494312391
508,645.756003019554
509,645.6765957497545
510,645.6043419347004
511,645.5425406847822
512,645.4938542016644
513,645.4600286589683
514,645.4417122525923
515,645.4383856682741
516,645.4483822309234
517,645.468979617752
518,645.4965819242888
519,645.527022548707
520,645.5559716499232
521,645.5793634345132
522,645.5937358441053
523,645.5964210592973
524,645.5855969734389
525,645.560254111661
526,645.5201356462687
527,645.4656885387683
528,645.3980414938759
529,645.319007617669
530,645.231093490087
531,645.1374816568842
532,645.0419504803665
533,644.9487104301901
534,644.8621576144536
535,644.7865570694589
536,644.7256714087964
537,644.6823606188616
538,644.6582012851559
539,644.6531929030824
540,644.6656165278148
541,644.6920853906616
542,644.7277940703309
543,644.7669480146272
544,644.8033389511379
545,644.8310139712596
546,644.8449647493362
547,644.8417510387426
548,644.8199832996057
549,644.7806179691006
550,644.7270387484849
551,644.6648944901616
552,644.601667593099
553,644.5459895157841
554,644.5067810667011
555,644.4923237290545
556,644.5093583908791
557,644.5622999997865
558,644.6526691468489
559,644.7788429049965
560,644.9361834113722
561,645.1175242643183
562,645.3139246339634
563,645.5155690352191
564,645.7126953242162
565,645.8964579292171
566,646.0596604397317
567,646.1973069346575
568,646.3069244561694
569,646.3886191829837
570,646.4448611405439
571,646.4800349507836
572,646.4998248656578
573,646.5105146115785
574,646.518282607145
575,646.5285650001574
576,646.5455454101099
577,646.5718172023956
578,646.6082523867501
579,646.6540893900769
580,646.7072126827508
581,646.7645570197883
582,646.8225528474395
583,646.8775416695827
584,646.9261161880654
585,646.9653637059824
586,646.9930035748694
587,647.0074144191282
588,647.0075582705726
589,646.9928299274675
590,646.962876897117
591,646.9174372302872
592,646.8562339448139
593,646.778952817495
594,646.6853137838883
595,646.5752230676572
596,646.4489711062704
597,646.3074324514545
598,646.1522306746558
599,645.9858432826404
600,645.8116286640852
601,645.6337615662819
602,645.4570711087877
603,645.2867828807562
604,645.1281732152378
605,644.9861585037917
606,644.8648668824644
607,644.7672569012531
608,644.6948430173397
609,644.6475647659355
610,644.6238084583415
611,644.620566709818
612,644.6337058463782
613,644.6583060037924
614,644.6890453003201
615,644.7206124051513
616,644.7481316590562
617,644.7675581664771
618,644.7759667957642
619,644.7716566804883
620,644.7540369636945
621,644.7233311310512
622,644.6801986063649
623,644.6253903998745
624,644.5595286519687
625,644.4830549206021
626,644.3963475632751
627,644.2999628136599
628,644.1949141515074
629,644.0828927903947
630,643.9663570274819
631,643.8484619692234
632,643.7328408466389
633,643.6232751938409
634,643.5233024507282
635,643.4358077259142
636,643.3626424296277
637,643.3043186206779
638,643.2598382381644
639,643.2267124111713
640,643.2011989282744
641,643.1787409252278
642,643.1545397790227
643,643.1241601427728
644,643.0840652723426
645,643.0320149695553
646,642.9672988961573
647,642.8908014122586
648,642.8049026367793
649,642.7132248132203
650,642.6202403150858
651,642.5307791932495
652,642.4495124993854
653,642.3805129953377
654,642.3269713222357
655,642.2910796829244
656,642.2740308276734
657,642.2760552791358
658,642.2964420839056
659,642.3335402888591
660,642.3847881619333
661,642.4468330756629
662,642.5157731394551
663,642.58749177947
664,642.65801237604
665,642.7238017786758
666,642.7819877617429
667,642.8304895514067
668,642.8680705944338
669,642.8943210910279
670,642.909585924887
671,642.9148669498267
672,642.911725895727
673,642.902193917208
674,642.8886757245756
675,642.8738317983173
676,642.8604251012107
677,642.8511214776776
678,642.8482381075822
679,642.8534478998214
680,642.867470216343
681,642.8898040449
682,642.9185747782819
683,642.9505532929503
684,642.9813685316103
685,643.0058996615487
686,643.0188194671189
687,643.0152505482055
688,642.991465396957
689,642.9455201623872
690,642.8776976572841
691,642.7906643738148
692,642.6892987377141
693,642.5802049192878
694,642.4709871390795
695,642.3694110627044
696,642.2825940407605
697,642.2163352723417
698,642.1746396539161
699,642.1594344341198
700,642.1704502202334
701,642.2052456817764
702,642.2593816979464
703,642.3267640935763
704,642.4001577109567
705,642.4718418004245
706,642.5343505059762
707,642.5812294638439
708,642.6077330247978
709,642.6113804657601
710,642.5922894180817
711,642.5532254641231
712,642.4993517623292
713,642.4377112155094
714,642.3765053437354
715,642.3242504737815
716,642.2889034972615
717,642.2770562197029
718,642.2932938124925
719,642.3397943404027
720,642.4162075241466
721,642.519798372921
722,642.645801302015
723,642.7879236479314
724,642.9389518198569
725,643.0914162801157
726,643.2382512611222
727,643.3733675950702
728,643.4920753892812
729,643.5913443346794
730,643.6699318518647
731,643.7284075821905
732,643.7690655543971
733,643.795685765125
734,643.813120772697
735,643.8267396440979
736,643.8418263069697
737,643.8630571188055
738,643.8941509768838
739,643.9377153053006
740,643.9952496784551
741,644.0672449943149
742,644.1533225752734
743,644.252375613796
744,644.362699347916
745,644.4821227776741
746,644.6081676737333
747,644.7382459203359
748,644.8698731022207
749,645.0008526014412
750,645.1293878221697
751,645.2541009714927
752,645.3739590538129
753,645.488131086138
754,645.5958265065071
755,645.6961797555032
756,645.7882361716522
757,645.871062908462
758,645.9439698195338
759,646.006791857083
760,646.06016395563
761,646.105713695152
762,646.1461036051163
763,646.1848711024107
764,646.2260431042256
765,646.2735525864795
766,646.3305531945038
767,646.3987866603717
768,646.4781674129564
769,646.5666992197926
770,646.6607581622785
771,646.7556975765369
772,646.8466640151915
773,646.9294596262416
774,647.0012588317079
775,647.0610070245858
776,647.1094051418049
777,647.1484986940765
778,647.1810019287763
779,647.2095536837516
780,647.236098492219
781,647.2615245112111
782,647.2856051313815
783,647.3072202168685
784,647.3247872137165
785,647.336803032356
786,647.3423807209413
787,647.3416682419526
788,647.3360639192666
789,647.328185009973
790,647.3215882471532
791,647.3202784050025
792,647.3280765400392
793,647.3479508447006
794,647.3814252332129
795,647.4281657732059
796,647.4858125826885
797,647.550088283325
798,647.6151786263358
799,647.6743459534463
800,647.7207008326657
801,647.7480247714487
802,647.7515172891443
803,647.7283454092493
804,647.6779082585371
805,647.6017898308639
806,647.5034448269564
807,647.3877212390181
808,647.2603413619827
809,647.1274319604233
810,646.995140024076
811,646.8693275111283
812,646.7553162310708
813,646.6576445013128
814,646.5798037053406
815,646.523956521762
816,646.4906884600199
817,646.4788746035604
818,646.4857278344784
819,646.5070417727738
820,646.5375855630781
821,646.5715822329084
822,646.6032148715196
823,646.6271291735818
824,646.6389034676924
825,646.6354350544121
826,646.6151772455332
827,646.5781851289835
828,646.5259798153684
829,646.4612836551293
830,646.3876913505281
831,646.3093293576356
832,646.2305300413643
833,646.155520923501
834,646.088121594908
835,646.0314574001997
836,645.9877220455793
837,645.9580300229117
838,645.942388572209
839,645.939792405569
840,645.948413111027
841,645.9658362738313
842,645.9893033018182
843,646.0159321978614
844,646.0429074730722
845,646.0676420298603
846,646.0879215249863
847,646.1020338093315
848,646.1088648170124
849,646.1079313589012
850,646.0993344922211
851,646.0836387822255
852,646.0616923798779
853,646.0344050692082
854,646.0025158775284
855,645.9664083311882
856,645.9260430618725
857,645.8810500027337
858,645.8309612172472
859,645.775505901011
860,645.7148703566852
861,645.649854726315
862,645.5819056408775
863,645.5130391898317
864,645.4456859337714
865,645.3824966945472
866,645.3261459667649
867,645.279157251981
868,645.2437584999861
869,645.2217653538182
870,645.2144849140296
871,645.2226309689264
872,645.2462447518672
873,645.2846227319944
874,645.3362636427697
875,645.3988607839395
876,645.4693732077374
877,645.5441968888002
878,645.6194262763037
879,645.691165720031
880,645.755835743283
881,645.8104264690978
882,645.8526733825298
883,645.8811542176467
884,645.8953170708049
885,645.8954491661615
886,645.882594397948
887,645.8584318515129
888,645.8251301208851
889,645.7851866736233
890,645.7412526905547
891,645.6959412725815
892,645.6516219417659
893,645.6102105749776
894,645.5729710383697
895,645.5403592911854
896,645.5119545735608
897,645.4865142389807
898,645.4621595992013
899,645.4366746391382
900,645.4078849998335
901,645.3740670925713
902,645.3343184540049
903,645.2888199510226
904,645.2389437394721
905,645.187192617968
906,645.136979561473
907,645.09226972981
908,645.0571238221075
909,645.0352035783322
910,645.0293095141071
911,645.0410060167014
912,645.0703660808961
913,645.1158613804184
914,645.1744305807559
915,645.2417516252491
916,645.3127062012434
917,645.3819733409164
