frame_number,force
0,684.9221800000672
1,684.5717346352743
2,684.2319124452699
3,683.9125545125924
4,683.6220680477784
5,683.3670022860097
6,683.1518929001548
7,682.9793517061169
8,682.8503248865608
9,682.7644142697936
10,682.7201580704789
11,682.7151966413379
12,682.746297906463
13,682.8092754044915
14,682.8988793030329
15,683.0087564370127
16,683.1315573978019
17,683.2592329374071
18,683.3835201454378
19,683.4965703109403
20,683.5916175604293
21,683.6635499456268
22,683.7092500546835
23,683.7276292685713
24,683.7193668221938
25,683.6864455459905
26,683.6316210080222
27,683.5579592424001
28,683.4685415658812
29,683.3663807229789
30,683.2545275408302
31,683.136281225531
32,683.0153811706251
33,682.896081272635
34,682.7830706309886
35,682.6812551811613
36,682.5954272045533
37,682.5298489042204
38,682.4877966361266
39,682.4711487393555
40,682.4801172565669
41,682.5132011342065
42,682.5673831662324
43,682.6385258295863
44,682.7218659846397
45,682.8124865734726
46,682.9056641226009
47,682.9970458626827
48,683.0826782074826
49,683.1589602213131
50,683.2226075595088
51,683.2706861981213
52,683.3007380518344
53,683.3109916778975
54,683.3006260505671
55,683.2700291379809
56,683.2209791102567
57,683.1566875268967
58,683.081674593747
59,683.0014816560367
60,682.9222563261035
61,682.850262159505
62,682.7913578198064
63,682.7504691848527
64,682.7310712311933
65,682.7347188952085
66,682.7606970859974
67,682.8058718236304
68,682.8648095572714
69,682.930197813552
70,682.9935530266954
71,683.0461431263562
72,683.0799973129344
73,683.0888499309254
74,683.0688831256338
75,683.0191800654964
76,682.9418553453373
77,682.8418820311056
78,682.7266758641696
79,682.6055066138125
80,682.4887788980641
81,682.3871901987168
82,682.3107746824624
83,682.2678892452848
84,682.264260753495
85,682.3022425297677
86,682.3804015569102
87,682.4934985271161
88,682.6328694197757
89,682.7871802180846
90,682.9434904841532
91,683.0885218685481
92,683.2099961460295
93,683.2978920899491
94,683.3454719538594
95,683.3499500257291
96,683.3127217430342
97,683.2391356547389
98,683.1378538555056
99,683.0198919589267
100,682.8974531487398
101,682.7826803652904
102,682.6864534151271
103,682.617352020476
104,682.5808861053093
105,682.5790606289219
106,682.610301919523
107,682.6697351481763
108,682.7497693610635
109,682.8409162756815
110,682.9327502318691
111,683.014915315814
112,683.0780934779441
113,683.1148557563907
114,683.120326629989
115,683.0925977299597
116,683.0328337263014
117,682.9450333905797
118,682.8354554050005
119,682.7117869828812
120,682.5821995218298
121,682.4544685282966
122,682.3353169536299
123,682.230074275271
124,682.1426472893229
125,682.0757080446659
126,682.0309590127526
127,682.0093486073843
128,682.0111631772529
129,682.03599061688
130,682.0826138633088
131,682.1489229857574
132,682.2319189918064
133,682.3278402528158
134,682.4324042920829
135,682.5411309597176
136,682.6496871770321
137,682.7541748329351
138,682.8512978659733
139,682.938396267713
140,683.0133860816478
141,683.0746558678103
142,683.1209495701296
143,683.151256929387
144,683.1647526026275
145,683.1608381593512
146,683.1393081139032
147,683.1005972289171
148,683.0460252875558
149,682.9779646274591
150,682.8998901609323
151,682.8162947424212
152,682.7324601424418
153,682.6540877557784
154,682.5868231571887
155,682.5357352600561
156,682.5048145694135
157,682.4965458925084
158,682.5116120709504
159,682.548793306339
160,682.6051091957696
161,682.6761923235024
162,682.7568150108714
163,682.841463101291
164,682.9248753386448
165,683.0025095779022
166,683.0709136079105
167,683.1279613988576
168,683.1729007453678
169,683.2061814565996
170,683.2290919506204
171,683.2432952769186
172,683.2503931313383
173,683.2516384608826
174,683.2478589051475
175,683.239569800149
176,683.2271932430473
177,683.2112865900743
178,683.1927118742645
179,683.1727251707273
180,683.1530089111666
181,683.1356836185779
182,683.1233069112665
183,683.1188224105908
184,683.1253987871856
185,683.1461136534083
186,683.1834792656192
187,683.2388690906869
188,683.3119730801836
189,683.4004487149523
190,683.4999086932588
191,683.6042996456546
192,683.7066208315298
193,683.7998482753203
194,683.8778889076669
195,683.9363923661816
196,683.9732853289375
197,683.9889527374639
198,683.9860583234658
199,683.9690566049884
200,683.9434899064223
201,683.9151868787432
202,683.8894816038081
203,683.8705511013595
204,683.8609316136996
205,683.8612392890278
206,683.8701039142644
207,683.884322765786
208,683.8992378358618
209,683.9093204235836
210,683.9089151674316
211,683.8930609878316
212,683.858279275575
213,683.8032126135968
214,683.729020057317
215,683.6394822794744
216,683.5408179959525
217,683.4412359282716
218,683.3502444267043
219,683.2777448568777
220,683.2329705774982
221,683.223390531926
222,683.2537417645896
223,683.3253627847245
224,683.4359625974685
225,683.579881676368
226,683.7487943201802
227,683.9326999593309
228,684.1209954973835
229,684.3034311454618
230,684.4708183857387
231,684.6154555015842
232,684.7313308366164
233,684.8142180113332
234,684.8617623260902
235,684.873586323095
236,684.8513714391735
237,684.7988480625032
238,684.7216410617606
239,684.6269426994138
240,684.5230123044903
241,684.4185357785291
242,684.3219093808365
243,684.2405304288404
244,684.1801813266685
245,684.144583430353
246,684.1351740758658
247,684.1511298274463
248,684.189627399224
249,684.2462990808184
250,684.3158048271888
251,684.3924244541165
252,684.470580133863
253,684.5452198131956
254,684.6120157343257
255,684.6673691253459
256,684.7082693353177
257,684.732110361997
258,684.7365829808704
259,684.7197212932415
260,684.6801084717204
261,684.6171755737971
262,684.5314885326297
263,684.4249213020346
264,684.3006516392895
265,684.1629729607662
266,684.0169672395688
267,683.8681101849743
268,683.7218758304373
269,683.583383623404
270,683.4571061852923
271,683.346646503724
272,683.2545961489549
273,683.1824784440771
274,683.1307556998777
275,683.09886568227
276,683.0852729817034
277,683.0875565892228
278,683.1025663430631
279,683.1266591077742
280,683.155998845636
281,683.1868938947028
282,683.2161380962406
283,683.2413073414992
284,683.2609533806649
285,683.2746493819753
286,683.2828713855466
287,683.2867319218087
288,683.2876101722109
289,683.2867422942977
290,683.2848416873722
291,683.2818202119093
292,683.2766854204531
293,683.26767626248
294,683.2526428130168
295,683.2295884053798
296,683.1972278841918
297,683.1554072388966
298,683.1052685969919
299,683.0491105760406
300,682.9899769026591
301,682.9310885951444
302,682.8752822542327
303,682.8246013185995
304,682.780117702692
305,682.7419764896327
306,682.7095899563467
307,682.6818759224018
308,682.6574463796481
309,682.6346991736772
310,682.6118246857903
311,682.5867837775661
312,682.557326740547
313,682.5211059894051
314,682.4759003168778
315,682.4199290502601
316,682.3521985280527
317,682.2728006765026
318,682.1830856792258
319,682.0856569187229
320,681.9841725262513
321,681.8829745960711
322,681.7866013172547
323,681.699259943949
324,681.6243425579679
325,681.5640596068139
326,681.5192546015054
327,681.4894358574361
328,681.4730105606066
329,681.4676536711926
330,681.4707174117478
331,681.4795915751015
332,681.4919531806331
333,681.5058921327843
334,681.5199515797777
335,681.5331446501642
336,681.5449856851425
337,681.5555256900935
338,681.5653475205953
339,681.575474645264
340,681.5871694618958
341,681.6016298744725
342,681.6196300461952
343,681.6411854662069
344,681.6653391967503
345,681.6901514588341
346,681.7129280258747
347,681.7306585016898
348,681.7405706100175
349,681.7406602722531
350,681.7300581096537
351,681.7091573719865
352,681.6795269055998
353,681.6437053058035
354,681.604979830474
355,681.5672066957374
356,681.5346685646084
357,681.5119207994501
358,681.5035564362379
359,681.5138228584447
360,681.5460622709029
361,681.6020251066476
362,681.6811908689427
363,681.7802786098702
364,681.8931160496143
365,682.0109734152794
366,682.1233760119043
367,682.2193052782824
368,682.2886074435054
369,682.3233829739061
370,682.3191379227617
371,682.2755226766332
372,682.1965484715083
373,682.0902526886981
374,681.9678676610533
375,681.8426137117552
376,681.7282767838079
377,681.637748763941
378,681.5817075907995
379,681.5675921808677
380,681.5989828450024
381,681.6754375801952
382,681.7927713934694
383,681.9437099447158
384,682.1188033970644
385,682.3074570619096
386,682.4989356850183
387,682.6832316260108
388,682.8517351716274
389,682.9976877839524
390,683.1164328987384
391,683.2055038060687
392,683.264595399411
393,683.2954514530701
394,683.3016730284842
395,683.2884375265734
396,683.262125034768
397,683.2298717324201
398,683.1990876388529
399,683.1769746516385
400,683.1700679246939
401,683.1838141427103
402,683.2221992483467
403,683.2874421184895
404,683.3797781187374
405,683.4973665728395
406,683.6363614448487
407,683.7911749349521
408,683.9549366927282
409,684.1201152777408
410,684.2792372728163
411,684.4256201999721
412,684.5540255216791
413,684.6611426605957
414,684.7458486081854
415,684.8092419586492
416,684.8544846582729
417,684.8864721612036
418,684.9113189703801
419,684.9356456402139
420,684.9657063843308
421,685.0064714493344
422,685.0608254328366
423,685.1290356933521
424,685.2085943765323
425,685.2944713860654
426,685.3797510676824
427,685.4565628479181
428,685.5171557382549
429,685.5549239971544
430,685.5651957952708
431,685.5456633054976
432,685.4964321604176
433,685.4197495159824
434,685.3195103460367
435,685.2006530243797
436,685.0685519594512
437,684.9285008071448
438,684.7853571078484
439,684.6433890201172
440,684.5063207328155
441,684.3775135702791
442,684.2601682120553
443,684.1574278241239
444,684.0723143461007
445,684.0075098169575
446,683.9650562060431
447,683.94606658024
448,683.950524646766
449,683.9772218105973
450,684.0238535392724
451,684.0872647367144
452,684.1637946057419
453,684.2496410707334
454,684.3411643533352
455,684.435081673761
456,684.5285501522201
457,684.6191680131653
458,684.7049345070747
459,684.7842017746723
460,684.8556386882495
461,684.9182153051772
462,684.9712072253931
463,685.0142099901141
464,685.0471479515531
465,685.0702644452376
466,685.0840868170857
467,685.0893622448758
468,685.0869594784842
469,685.0777404551084
470,685.0624305126005
471,685.0415397437392
472,685.0153837283943
473,684.984213433157
474,684.9484136058558
475,684.908694940264
476,684.866204962176
477,684.8225163928698
478,684.7795011502292
479,684.7391355403939
480,684.7032913769139
481,684.6735550067281
482,684.6510992108995
483,684.6366191199437
484,684.6303235088255
485,684.6319419745915
486,684.6406876895196
487,684.6551372213895
488,684.67305498378
489,684.6912582536049
490,684.7056389384419
491,684.711413795845
492,684.7035942976717
493,684.6775973850897
494,684.6298836883107
495,684.5585075612078
496,684.4634879459442
497,684.3469557951196
498,684.2130820844102
499,684.067815300291
500,683.9184574625721
501,683.7731043679557
502,683.6399853037339
503,683.5267575848084
504,683.4398273974325
505,683.3837680042818
506,683.3608906132883
507,683.37100502294
508,683.4113942319518
509,683.477015273818
510,683.5609230782135
511,683.6548949576575
512,683.7502077941663
513,683.838489297338
514,683.9125416959872
515,683.9670313256132
516,683.9989481121843
517,684.0077633854515
518,683.9952582220923
519,683.9650535925668
520,683.9219287435127
521,683.8710471900596
522,683.8172168192257
523,683.7642990942979
524,683.7148577120581
525,683.6700987881517
526,683.6301008406107
527,683.5942672083719
528,683.561874012868
529,683.5325598902879
530,683.5066193135798
531,683.4850096016243
532,683.4690587748757
533,683.4599622511865
534,683.4582422123176
535,683.4633598297787
536,683.4736040020821
537,683.4862714380938
538,683.4980569362942
539,683.5055234963495
540,683.5055247243246
541,683.4954922167524
542,683.4735579827071
543,683.4385378666286
544,683.3898375262522
545,683.3273464590355
546,683.251366051437
547,683.1625946246032
548,683.062178942852
549,682.9518335771038
550,682.8340097962896
551,682.7120563591407
552,682.5902771664638
553,682.4737900774663
554,682.3681389394815
555,682.2786871664492
556,682.2098977719008
557,682.1646584842679
558,682.143817338897
559,682.1460367234092
560,682.1679695970662
561,682.2046682134074
562,682.2501089562651
563,682.2977555960417
564,682.3411305038759
565,682.3743736884677
566,682.3927535749291
567,682.3930842284853
568,682.3740094565635
569,682.3361235500178
570,682.28190637688
571,682.2154611025805
572,682.1420617963238
573,682.0675496957383
574,681.9976538223628
575,681.9373350144793
576,681.89025005416
577,681.8584076353652
578,681.8420509139704
579,681.8397659044707
580,681.8487910050612
581,681.8654852416448
582,681.8858904562634
583,681.9063009673541
584,681.923750457605
585,681.9363438543995
586,681.9433900346725
587,681.9453230608607
588,681.9434370392365
589,681.9394968048193
590,681.9353106101972
591,681.932353723203
592,681.9315134266413
593,681.9329930027861
594,681.9363737358939
595,681.940797468918
596,681.9452100668148
597,681.948611181211
598,681.9502787301051
599,681.9499481005264
600,681.9479158476342
601,681.9450283602935
602,681.9425304185761
603,681.9417841612997
604,681.9439082806912
605,681.9494172013392
606,681.9579557200203
607,681.9682203972368
608,681.9781232765977
609,681.9851834770035
610,681.9870547571605
611,681.9820568828981
612,681.9695947190547
613,681.950397652479
614,681.9265579066221
615,681.9013755007056
616,681.8790355945946
617,681.8641595600604
618,681.8612865038722
619,681.8743507175825
620,681.9062183720861
621,681.9583415929502
622,682.0305839750248
623,682.1212522426409
624,682.2273208051162
625,682.3447794460333
626,682.4690069211306
627,682.5950925322967
628,682.7180794077377
629,682.8331547160622
630,682.9358352384849
631,683.0221829780919
632,683.0890476269118
633,683.1343004640262
634,683.1570229802398
635,683.1576332278141
636,683.1379400098413
637,683.1011024509062
638,683.0514656484181
639,682.9942554674931
640,682.9351363372642
641,682.8796594884373
642,682.8326607891197
643,682.7977012498075
644,682.7766575959477
645,682.7695482031398
646,682.7746269446919
647,682.7887163785251
648,682.8077028524242
649,682.827092920669
650,682.8425400206528
651,682.8502866510344
652,682.8475094992525
653,682.8325805460819
654,682.8052565029052
655,682.7667895188174
656,682.7199313165634
657,682.6687956595665
658,682.6185564501275
659,682.5749894330891
660,682.5439058786623
661,682.530560223141
662,682.5391221794417
663,682.5722831340044
664,682.6310337657517
665,682.714622554662
666,682.8206830843537
667,682.9454985330957
668,683.0843602862087
669,683.2319735796167
670,683.382857304904
671,683.5316787923934
672,683.673469763684
673,683.8036939089374
674,683.9181758908039
675,684.0129447896583
676,684.0840779354978
677,684.127641249132
678,684.1398037885045
679,684.1171605650119
680,684.05723887452
681,683.9591029430962
682,683.8239277272774
683,683.6554037139152
684,683.459864527301
685,683.2460816411598
686,683.0247269452653
687,682.8075588071623
688,682.6064348675493
689,682.432279436624
690,682.294129266166
691,682.1983623511459
692,682.1481905004932
693,682.1434654792458
694,682.1808143564016
695,682.2540901406634
696,682.3550906461198
697,682.4744520097896
698,682.6025820092519
699,682.7304938460803
700,682.8504402598893
701,682.956310122045
702,683.0438070536904
703,683.1104612712891
704,683.1555271416237
705,683.1798018239608
706,683.1853833299259
707,683.1753819500972
708,683.1536060348736
709,683.124249994436
710,683.091610995907
711,683.0598530249061
712,683.0328265296997
713,683.0139385261739
714,683.0060541578074
715,683.0114047222312
716,683.0314834744654
717,683.0669244265492
718,683.1173766850401
719,683.181407173931
720,683.2564806457369
721,683.3390621147396
722,683.4248574040157
723,683.509168414234
724,683.5873143515645
725,683.6550671231213
726,683.7090599643988
727,683.7471394222057
728,683.7686319809728
729,683.7744888034188
730,683.7672705998406
731,683.7509537212904
732,683.7305734575317
733,683.71175692084
734,683.7002250688284
735,683.7013460261495
736,683.7197866427728
737,683.7592537830601
738,683.8222821380926
739,683.9100313729285
740,684.0220879627311
741,684.1563044457106
742,684.3087375973691
743,684.4737556137123
744,684.6443639708609
745,684.8127561288294
746,684.9710464178486
747,685.1121001789675
748,685.2303456358203
749,685.3224457794315
750,685.3877366923424
751,685.4283819536164
752,685.4492193460865
753,685.4572887984957
754,685.4610610132266
755,685.4694414453974
756,685.4906749445734
757,685.5312987639105
758,685.5952892934622
759,685.683531463567
760,685.7937064308813
761,685.9206317471793
762,686.0570010261202
763,686.1943832286663
764,686.3242901342195
765,686.4391266686577
766,686.532900980017
767,686.6016616555127
768,686.6437039517873
769,686.659611447225
770,686.6521738593411
771,686.6261765595342
772,686.5880316536494
773,686.5452370149437
774,686.5056997937988
775,686.4770113053878
776,686.465778469904
777,686.4770943669861
778,686.5141838747202
779,686.5782194529104
780,686.668286390381
781,686.7814782005834
782,686.913102902514
783,687.0569801500144
784,687.2058176669273
785,687.3516667772758
786,687.4864542411224
787,687.602566524178
788,687.6934350847758
789,687.7540556281215
790,687.7813808202646
791,687.7745472888008
792,687.7349178610731
793,687.6659323996371
794,687.572772280238
795,687.4618638296697
796,687.3402734973637
797,687.215068433133
798,687.092718278048
799,686.9785994870061
800,686.8766452174812
801,686.7891707308538
802,686.7168916879697
803,686.6591291602294
804,686.614158606898
805,686.5796231768594
806,686.5529127316723
807,686.5314228362685
808,686.5126549121233
809,686.4941835509362
810,686.4735698256842
811,686.4483176173579
812,686.4159501347335
813,686.3742362830181
814,686.3215405834812
815,686.2572297347139
816,686.1820557244237
817,686.0984379079886
818,686.0105646252997
819,685.9242296514512
820,685.8463351608249
821,685.7840522148156
822,685.7437272300216
823,685.7297275969289
824,685.7434844888613
825,685.7829734047976
826,685.8427666073129
827,685.9146378256315
828,685.9885626430977
829,686.0538864485092
830,686.1004385009982
831,686.1194371583987
832,686.1041241958307
833,686.0501504006265
834,685.9557809374859
835,685.8219821426048
836,685.6524029591524
837,685.4532126109583
838,685.2327399668443
839,685.0008864589315
840,684.7683321248024
841,684.5456045183911
842,684.3421238361893
843,684.1653578431086
844,684.0202008055647
845,683.9086424649003
846,683.8297427257482
847,683.7798858146045
848,683.7532544367373
849,683.7424502155467
850,683.7391975846872
851,683.7350857891299
852,683.7223028705018
853,683.6942986656975
854,683.6463093465187
855,683.5757029951669
856,683.4821466646781
857,683.3676121215046
858,683.2362175743137
859,683.0938782688831
860,682.947748812362
861,682.8054869945327
862,682.6744218827098
863,682.5607369441765
864,682.4687750484063
865,682.4005526810433
866,682.3555502667934
867,682.3308178557764
868,682.3213867382921
869,682.3209139183544
870,682.322437965298
871,682.3191209044888
872,682.304889280592
873,682.2749324966212
874,682.2260366964789
875,682.1567349843938
876,682.0672690428536
877,681.9593926962383
878,681.8360825463863
879,681.7012281150999
880,681.5593508572387
881,681.4153661675031
882,681.2743742937317
883,681.1414553024779
884,681.0214539924355
885,680.9187649831252
886,680.8371435751073
887,680.7795611307876
888,680.7481089751595
889,680.7439493843434
890,680.7673093621523
891,680.8175000066531
892,680.8929316396955
893,680.9911045282078
894,681.1085875424421
895,681.2410281124785
896,681.3832463540169
897,681.5294544614355
898,681.6736165382445
899,681.8099281499154
900,681.9333570713775
901,682.0401610790494
902,682.1282953332154
903,682.1976385481868
904,682.2499924937399
905,682.2888359635756
906,682.3188458499111
907,682.3452383290714
908,682.3730221082038
909,682.4062768673672
910,682.447568998747
911,682.4975985712995
912,682.5551389968066
913,682.6172841720559
914,682.6799602553621
915,682.7386043090578
916,682.7888807967082
917,682.8273096620587
