frame_number,force
0,599.6876200000332
1,599.6960323538232
2,599.7000490183932
3,599.6956519674312
4,599.6795946804318
5,599.6498027195641
6,599.6057334327725
7,599.5486172473151
8,599.4814989573289
9,599.4090231489151
10,599.3369556224367
11,599.271492534427
12,599.2184676452765
13,599.182601989671
14,599.1669270028419
15,599.1724551745798
16,599.1981091512133
17,599.2408918836322
18,599.2962864002817
19,599.3588713718534
20,599.4230969781855
21,599.484104127375
22,599.5384328463915
23,599.584474607224
24,599.6225718260919
25,599.6547432422136
26,599.6841021640895
27,599.7141088542432
28,599.7478276007823
29,599.7873323359436
30,599.8333428562901
31,599.8851143705692
32,599.9405663575559
33,599.9966092340577
34,600.0495927478173
35,600.0957747219273
36,600.131724164545
37,600.1546250069433
38,600.1624910816323
39,600.1543067758854
40,600.1300865853909
41,600.0908350624346
42,600.0383981093738
43,599.9752180641548
44,599.904030338326
45,599.8275607558912
46,599.7482864054756
47,599.6683040438245
48,599.5893226280202
49,599.5127726511915
50,599.4400022669934
51,599.3725061075767
52,599.3121148915563
53,599.2610734026107
54,599.2219568278325
55,599.1974161591878
56,599.1897879107075
57,599.2006372936462
58,599.2303237946549
59,599.2776875236668
60,599.3399478964524
61,599.4128677037933
62,599.4911667435014
63,599.5691006563545
64,599.6410861137737
65,599.7022611894895
66,599.7489037845339
67,599.7786706940636
68,599.7906548122835
69,599.7852878456061
70,599.7641388984753
71,599.7296662953745
72,599.6849661576567
73,599.6335400512185
74,599.5790979303263
75,599.5254214132066
76,599.4763045472388
77,599.4355453473345
78,599.4069147292826
79,599.3940304098882
80,599.4001119978983
81,599.427644224001
82,599.4780012774069
83,599.551098339138
84,599.6451467162842
85,599.7565858322149
86,599.8802420458355
87,600.0097292313659
88,600.1380656077924
89,600.258436677067
90,600.3649943712865
91,600.4535622726734
92,600.522123793552
93,600.5710032506929
94,600.6027019516454
95,600.621412680431
96,600.6322985720243
97,600.6406774635796
98,600.6512786298823
99,600.6677123787624
100,600.6922193131236
101,600.7256803316225
102,600.7678112242626
103,600.8174581806142
104,600.8729387615829
105,600.9323972157491
106,600.9941383007517
107,601.0568881221357
108,601.1199391464717
109,601.1831726522981
110,601.2469842755438
111,601.3121438556798
112,601.3796072470717
113,601.4502873569965
114,601.5247984655877
115,601.6032090381667
116,601.6848585865695
117,601.7682991425581
118,601.8514060779103
119,601.9316665249731
120,602.0066014277193
121,602.0742264755017
122,602.1334325536545
123,602.1841800360571
124,602.227446848489
125,602.2649341367287
126,602.2985972073451
127,602.3301104386775
128,602.360383484993
129,602.3892341075167
130,602.4153011401494
131,602.4362417088695
132,602.4491902074063
133,602.4513769498467
134,602.44075051024
135,602.4164533013367
136,602.3790605696461
137,602.3305654996167
138,602.2741368558306
139,602.2136921851226
140,602.1533493057393
141,602.0968509535513
142,602.0470755068288
143,602.005724543515
144,601.9732210878001
145,601.9487898507192
146,601.9306514764596
147,601.9162614689986
148,601.9025555366583
149,601.8862018984074
150,601.863880881258
151,601.8326033470541
152,601.7900493745335
153,601.7348729326916
154,601.6668993543901
155,601.5871589647918
156,601.4977476240051
157,601.4015549712367
158,601.3019287378581
159,601.2023456764484
160,601.1061451353874
161,601.0163548332381
162,600.9356024751045
163,600.8660725294434
164,600.8094541890625
165,600.76684399786
166,600.7386018317611
167,600.7241899580371
168,600.7220403724884
169,600.7294966875024
170,600.7428699631668
171,600.7576358373435
172,600.7687788108053
173,600.7712572242882
174,600.7605277774182
175,600.7330440135753
176,600.686642978692
177,600.6207674414446
178,600.5365249050815
179,600.4366258627767
180,600.3252483491501
181,600.2078487303511
182,600.0909052815155
183,599.9815688188957
184,599.8872119143792
185,599.8148945445229
186,599.7707752667975
187,599.7595011816555
188,599.7836344809309
189,599.8432144424365
190,599.9355696854892
191,600.0554592679817
192,600.1955481655132
193,600.3471449838239
194,600.5010747240634
195,600.6485472736998
196,600.7819129894688
197,600.895242601758
198,600.9847009877421
199,601.048700572977
200,601.0878343396631
201,601.104609263032
202,601.1030249418199
203,601.0880559996067
204,601.0650907024502
205,601.0393641657485
206,601.0154267815504
207,600.9967106361316
208,600.9852724349124
209,600.9817719809779
210,600.9856886827572
211,600.9957124675633
212,601.010204587277
213,601.02762428382
214,601.0468487669948
215,601.0673547376344
216,601.0892645192539
217,601.1132811595534
218,601.1405419036553
219,601.1724156607997
220,601.2102722020121
221,601.2552623844057
222,601.3081526756566
223,601.3692360106525
224,601.4383043167368
225,601.5146483822687
226,601.5970661849748
227,601.6838917849882
228,601.7730675601496
229,601.8622622918517
230,601.9490116857277
231,602.0308544166993
232,602.105455229265
233,602.1707262744658
234,602.2249632644472
235,602.2670010063383
236,602.2963694665269
237,602.3134125843753
238,602.3193313792889
239,602.3161259080586
240,602.3064249876448
241,602.2932069122982
242,602.2794330181441
243,602.267636569387
244,602.2595246483176
245,602.2556563708213
246,602.2552574663488
247,602.2562182782322
248,602.2552972487107
249,602.2485183642126
250,602.2317176680582
251,602.2011676724763
252,602.154190842789
253,602.0896650909878
254,602.0083309849841
255,601.9128358317354
256,601.807488211619
257,601.6977423018129
258,601.5894835471269
259,601.4882362363942
260,601.3984387328532
261,601.3229186694438
262,601.2626521450346
263,601.2168288139845
264,601.1831880038574
265,601.1585412850886
266,601.1393558420166
267,601.1222619765329
268,601.1043864941689
269,601.0834881683915
270,601.0579427722543
271,601.0266592296783
272,600.9889973973305
273,600.9447209103944
274,600.8939855419625
275,600.8373515632719
276,600.7758100008996
277,600.7108126925118
278,600.6442926469214
279,600.5786572867073
280,600.5167281225495
281,600.4615878022076
282,600.4162998734726
283,600.3835045994078
284,600.3649500409052
285,600.3610577287833
286,600.3706282310744
287,600.3907669616257
288,600.4170690745548
289,600.4440607536135
290,600.4658574656165
291,600.4769597494505
292,600.473066162108
293,600.4517628900489
294,600.4129658377071
295,600.3590344896019
296,600.2945312485468
297,600.2256611746999
298,600.1594890695029
299,600.1030703444925
300,600.0626301987478
301,600.0428940526691
302,600.0466380374202
303,600.0744986306232
304,600.1250406878585
305,600.1950326815797
306,600.2798457095935
307,600.3739016960753
308,600.4711321247152
309,600.5654411867479
310,600.6511803765545
311,600.7236300350332
312,600.7794469393447
313,600.8169956048563
314,600.8364693585052
315,600.8397421814124
316,600.8299594617497
317,600.8109479519532
318,600.7865757701082
319,600.760199784166
320,600.7342958117275
321,600.7102995012178
322,600.6886262308814
323,600.6688105200922
324,600.6497128265615
325,600.629766331255
326,600.6072548350514
327,600.5806132888025
328,600.5487218846379
329,600.5111334176421
330,600.468166156696
331,600.4208370669064
332,600.3706758499413
333,600.3194930283574
334,600.2691588777976
335,600.2214199226528
336,600.1777691649838
337,600.1393876476026
338,600.1071630639233
339,600.0817630747433
340,600.0637174146061
341,600.0534608446256
342,600.0513082897903
343,600.0573632221697
344,600.0713897690973
345,600.0926998230213
346,600.1201082581097
347,600.1519851994427
348,600.1863954507509
349,600.2212875512679
350,600.2546915215712
351,600.2848938443458
352,600.3105688128395
353,600.3308612384965
354,600.3454368305312
355,600.3545270687933
356,600.3589840964934
357,600.3603355638373
358,600.3608031700039
359,600.3632347958422
360,600.3709092645992
361,600.387203631862
362,600.415150609531
363,600.4569429506809
364,600.5134575461519
365,600.5838808581153
366,600.6655255083235
367,600.753925492305
368,600.8432614833026
369,600.927091309068
370,600.9992729933058
371,601.0549117685991
372,601.0911578614788
373,601.107717383975
374,601.1069932878057
375,601.0938328206123
376,601.0749173846958
377,601.0578882890469
378,601.0503461355994
379,601.0588737126274
380,601.0882106637075
381,601.1406746589565
382,601.2158958173248
383,601.3109029001038
384,601.4205565532978
385,601.5382663984456
386,601.6568733572691
387,601.7695461349128
388,601.8705390838736
389,601.9556889949608
390,602.0225913454235
391,602.07048063634
392,602.0999126509859
393,602.1123744885542
394,602.1099228302411
395,602.0948956619131
396,602.0696920155569
397,602.0365905049276
398,601.9975849235346
399,601.9542446035231
400,601.9076369794589
401,601.8583540040944
402,601.8066554254774
403,601.7527008638259
404,601.6968124407343
405,601.6396949500811
406,601.5825398532228
407,601.5269611181036
408,601.4747604554952
409,601.4275815085643
410,601.3865562144509
411,601.3520466840174
412,601.3235420331505
413,601.2997070933357
414,601.2785322670919
415,601.2575240924895
416,601.2339044310181
417,601.2048236180182
418,601.1676037339666
419,601.1200076834211
420,601.0605038233028
421,600.9884855500965
422,600.9044111003396
423,600.8098429139274
424,600.7073827237894
425,600.6005155562588
426,600.4933890657072
427,600.3905570775682
428,600.2967066036292
429,600.2163765357391
430,600.1536757367437
431,600.1120197310108
432,600.0939196468266
433,600.1008594753633
434,600.1332761371386
435,600.1906186810284
436,600.2714362431112
437,600.373452338329
438,600.4936192528268
439,600.6281798792521
440,600.7727717576912
441,600.9225970745439
442,601.0726727851243
443,601.2181635907651
444,601.3547714234467
445,601.4791175033407
446,601.5890352555588
447,601.6837066098459
448,601.7636099843563
449,601.8302884941963
450,601.8859789979348
451,601.9331632949686
452,601.9741127545319
453,602.0104939070064
454,602.0430878512084
455,602.071662277731
456,602.0950216913874
457,602.1112355380196
458,602.1180065523748
459,602.1131161430509
460,602.0948824730001
461,602.0625715131442
462,602.0166936726812
463,601.9591143740148
464,601.8929343159965
465,601.8221540732864
466,601.751197725811
467,601.6843982913242
468,601.6255320514548
469,601.5774472929403
470,601.5417984572168
471,601.5188883872406
472,601.5076325623198
473,601.5056688682293
474,601.5096255938134
475,601.5155270785019
476,601.5192812468666
477,601.5171787461833
478,601.5063387793296
479,601.4850449640618
480,601.4529189142322
481,601.410889654349
482,601.3609467611201
483,601.3057171653642
484,601.2479621691986
485,601.1901185280233
486,601.1339827029626
487,601.080576240744
488,601.0301777644945
489,600.982492096706
490,600.936930861031
491,600.8929640168157
492,600.8504646884396
493,600.8099444436266
494,600.7725928852558
495,600.7400939586322
496,600.714267736337
497,600.6966489132079
498,600.6881362155407
499,600.688821858977
500,600.6980508799174
501,600.7146918805804
502,600.7375407868129
503,600.7657374669253
504,600.7990659964203
505,600.8380409476712
506,600.8837382337199
507,600.9373866118864
508,600.9997914704608
509,601.0707181055008
510,601.1483964486408
511,601.2292942109177
512,601.3082413103542
513,601.3789053975029
514,601.434545256542
515,601.4689191621825
516,601.477202353606
517,601.456767915758
518,601.4076995162608
519,601.3329314595693
520,601.2379652770823
521,601.1301998423622
522,601.0180064195641
523,600.9097329344899
524,600.8128106462908
525,600.7330798554298
526,600.6743815075926
527,600.6384025479783
528,600.6247281131405
529,600.6310462625078
530,600.6534636139783
531,600.686906626791
532,600.7255871445684
533,600.763500840032
534,600.7949165629898
535,600.8148155215412
536,600.8192542980188
537,600.8056455908811
538,600.7729559591266
539,600.7218021030329
540,600.6544083303945
541,600.5743989549616
542,600.4864407518398
543,600.3957916310841
544,600.3078264631735
545,600.2275981608866
546,600.1594646881346
547,600.106785237367
548,600.0716741258384
549,600.0548064258232
550,600.0552943538985
551,600.0706873903473
552,600.0971684037095
553,600.1299963337539
554,600.1641786521318
555,600.1952718865958
556,600.2201487425178
557,600.2375643094666
558,600.2483989703235
559,600.255526267573
560,600.2633258279577
561,600.2769262158499
562,600.3013183264018
563,600.3405140991217
564,600.3969175098259
565,600.4710167159341
566,600.5614142899052
567,600.6651242721551
568,600.7780197764615
569,600.8953250513795
570,601.0120885180712
571,601.1236168709738
572,601.22587438303
573,601.315845420516
574,601.3918270844887
575,601.4535927257272
576,601.5023753594259
577,601.5406550563565
578,601.5717652448396
579,601.5993523902115
580,601.6267500259975
581,601.656364402295
582,601.6891903888401
583,601.7245606513118
584,601.7601832884955
585,601.792464442392
586,601.8170583936447
587,601.8295456157257
588,601.8261171172958
589,601.8041480623712
590,601.7625750681909
591,601.7020407662372
592,601.624819009276
593,601.5345673372767
594,601.4359655400331
595,601.3343000527541
596,601.2350517503578
597,601.1435332788226
598,601.0645924919852
599,601.002362638485
600,600.9600276306367
601,600.9395960381906
602,600.9417154862299
603,600.9655712013366
604,601.0088908453237
605,601.0680508582284
606,601.1382754204444
607,601.2139355845889
608,601.2889615990355
609,601.3573463861774
610,601.4136559537903
611,601.4534297613293
612,601.4733911567931
613,601.4714695564516
614,601.4467007082185
615,601.3990886091534
616,601.3294953084267
617,601.2395929143493
618,601.1318759290458
619,601.0097010109821
620,600.8773042503857
621,600.7397458761016
622,600.6027493022627
623,600.4724322175639
624,600.35495675843
625,600.2561364208522
626,600.1810324576446
627,600.1335701124635
628,600.1162095096307
629,600.1297067800343
630,600.1729951640879
631,600.243206851121
632,600.3358400596842
633,600.4450526654967
634,600.5640504154585
635,600.6855455218976
636,600.8022727063747
637,600.9075389731777
638,600.9957542781302
639,601.0628725676536
640,601.1066854875846
641,601.1269452468925
642,601.1253234722487
643,601.1052199542378
644,601.0714234511369
645,601.0296225610239
646,600.9857896211075
647,600.9455076630105
648,600.9133501166166
649,600.892429276877
650,600.8841958688923
651,600.8885081417106
652,600.9039193576904
653,600.9280918610011
654,600.9582500767044
655,600.9916113611121
656,601.0257497173396
657,601.0588476983288
658,601.0897967879396
659,601.1181341499307
660,601.1438499427593
661,601.1671405723275
662,601.1881929397482
663,601.2070552417722
664,601.2236029656298
665,601.2375794910922
666,601.248691880631
667,601.2567514312627
668,601.2618379073249
669,601.2644397088669
670,601.2655117738038
671,601.2664209607971
672,601.2687960480171
673,601.2743248527686
674,601.2845318987896
675,601.300554688938
676,601.322937806946
677,601.3514706384641
678,601.3850879100289
679,601.4218357575945
680,601.4588964791456
681,601.4926690518092
682,601.5189119898332
683,601.5329632185418
684,601.5300563951765
685,601.5057465198132
686,601.4564299185367
687,601.3799001725188
688,601.2758424710647
689,601.1461538181065
690,600.994995063711
691,600.8285288133587
692,600.6543579862831
693,600.4807347478317
694,600.3156523966431
695,600.1659642385497
696,600.0366841782492
697,599.9305976105151
698,599.8482455420361
699,599.7882558101383
700,599.7479120663891
701,599.723807997217
702,599.7124446698929
703,599.710671914337
704,599.7159253509784
705,599.7262669260416
706,599.7402953996675
707,599.7570252585315
708,599.775811780198
709,599.7963411940302
710,599.8186494468515
711,599.8431086664822
712,599.8703309360494
713,599.900975447811
714,599.935491573195
715,599.9738714853372
716,600.0155094951607
717,600.0592535279588
718,600.1036742655276
719,600.1474912391822
720,600.1900324048142
721,600.231592767612
722,600.2735858869763
723,600.3184304649074
724,600.3691802612996
725,600.428981486096
726,600.5004950459922
727,600.5854191558171
728,600.6841958630424
729,600.7959212898168
730,600.9184362134832
731,601.0485552949935
732,601.1823894161122
733,601.3157184058392
734,601.4443764686738
735,601.5646163937743
736,601.6734213177859
737,601.7687367663856
738,601.8496015111651
739,601.9161648833881
740,601.9695937301915
741,602.0118904445716
742,602.0456516221026
743,602.0737886293992
744,602.0992197264427
745,602.1245482974784
746,602.1517637514334
747,602.1820152271208
748,602.2154914907854
749,602.2514067050914
750,602.2880737720252
751,602.3230537262372
752,602.3533809332853
753,602.3758597041557
754,602.3874042931703
755,602.3853619279166
756,602.3677429277949
757,602.3333079471246
758,602.2815231477902
759,602.2124474866011
760,602.1266272429712
761,602.0250481093689
762,601.9091636918806
763,601.7809961638445
764,601.643284931265
765,601.4996340780134
766,601.3545841507282
767,601.2135270020016
768,601.0824078970417
769,600.9672147794194
770,600.8733246096889
771,600.8048351114132
772,600.7640308445643
773,600.7511039321901
774,600.7641798554653
775,600.7996111126395
776,600.8524338863472
777,600.9168706098817
778,600.9868028861295
779,601.0561920174579
780,601.1194526660488
781,601.1717900709943
782,601.2095050055143
783,601.2302537502346
784,601.233225213677
785,601.2191794861537
786,601.1902991131949
787,601.1498437472869
788,601.1016619608218
789,601.0496696028265
790,600.9974129527658
791,600.9477897352425
792,600.902935449014
793,600.8642331935534
794,600.832386816142
795,600.8075076462628
796,600.7891897063828
797,600.7765673169722
798,600.7683579299853
799,600.7629023487872
800,600.7582233649638
801,600.7521187142866
802,600.7422875176221
803,600.7264792482827
804,600.7026545451741
805,600.6691452628619
806,600.6247941973321
807,600.5690537032453
808,600.5020319558305
809,600.4244898900138
810,600.3378026990216
811,600.2438997790683
812,600.1451828499402
813,600.044404679319
814,599.9444918219156
815,599.8483215907571
816,599.758496271174
817,599.677166559703
818,599.6059311663461
819,599.5458012720663
820,599.4971999161642
821,599.4599806099204
822,599.4334777198363
823,599.4166123654527
824,599.4080591988647
825,599.4064473492423
826,599.4105491205523
827,599.4194141473396
828,599.4324262140834
829,599.4492807811449
830,599.4698931646303
831,599.4942471505378
832,599.5221922713534
833,599.5532115396009
834,599.5862090766323
835,599.6193866567813
836,599.6502716143541
837,599.6759299521791
838,599.6933611430211
839,599.700029844353
840,599.6944475992015
841,599.6766865476161
842,599.6487014475489
843,599.6143643522338
844,599.5791787791993
845,599.5497226257227
846,599.5329384019564
847,599.5354122039631
848,599.5627523136142
849,599.6191200942607
850,599.7069169261268
851,599.8266097233858
852,599.9766741140141
853,600.1536337418403
854,600.3521813697026
855,600.5653916849537
856,600.7850602223185
857,601.0021962722234
858,601.2076521953987
859,601.3928150355192
860,601.5502581638839
861,601.6742667968678
862,601.7611894689026
863,601.809596080581
864,601.8202424816009
865,601.7958761158859
866,601.7409615818201
867,601.6614135367497
868,601.5643728052672
869,601.4579872804883
870,601.3511200443664
871,601.2529217145878
872,601.1722503695744
873,601.116973756577
874,601.0932316328532
875,601.1047665910876
876,601.1524453484725
877,601.2340806140922
878,601.3446169325414
879,601.4766663040438
880,601.6212997927107
881,601.7689583707696
882,601.9103517350803
883,602.0372450315567
884,602.1430676748947
885,602.2233118026442
886,602.2757160249472
887,602.300242922539
888,602.298859428838
889,602.2751334170036
890,602.233675532038
891,602.1794802287988
892,602.1172488319808
893,602.0507984350386
894,601.9826572288936
895,601.9139154423007
896,601.844353173642
897,601.7728118842061
898,601.697720872735
899,601.617650895742
900,601.5317666514873
901,601.4400917087596
902,601.3435673465041
903,601.2439553428751
904,601.1436715876672
905,601.0456217548244
906,600.9530604598374
907,600.8694525977526
908,600.798299674826
909,600.7428967870761
910,600.7060021812299
911,600.6894366404873
912,600.6936766537503
913,600.7175371444343
914,600.7580374018465
915,600.8105101455014
916,600.8689618246921
