acceleration,velocity,displacement
-0.027197463043395473,0.0,0.0
-0.026882790623282117,-1.3520063416669398e-05,-3.3800158541673496e-09
-0.02655145526750427,-2.6878624889365997e-05,-1.3479687930676199e-08
-0.026202951003274758,-4.006722645706075e-05,-3.021615076728289e-08
-0.025836804023902805,-5.307716521385514e-05,-5.350224868501186e-08
-0.025452576676303084,-6.589951038890661e-05,-8.32464175857023e-08
-0.02504987153138284,-7.852512244082809e-05,-1.1935257579313597e-07
-0.024628335497888038,-9.094467419814581e-05,-1.6172002495287943e-07
-0.024187663940872763,-0.00010314867405783602,-2.1024336201687488e-07
-0.023727604768347604,-0.0001151274912351411,-2.648124033401192e-07
-0.02324796245496621,-0.00012687138304096955,-3.2531212190914684e-07
-0.022748601977253112,-0.0001383705241490244,-3.9162259870664535e-07
-0.0222294526368609,-0.0001496150378025529,-4.6361898919453965e-07
-0.021690511743895444,-0.00016059502889774198,-5.411715058696133e-07
-0.021131848122951914,-0.0001713006188644538,-6.241454178101623e-07
-0.02055360539613879,-0.0001817219822442265,-7.124010680873324e-07
-0.01995600499444196,-0.00019184938484187168,-8.057939098588569e-07
-0.019339348848164246,-0.00020167322330252323,-9.041745618949556e-07
-0.01870402170420631,-0.00021118406594061587,-1.0073888842057405e-06
-0.0180504930141948,-0.00022037269462021615,-1.1152780743459486e-06
-0.017379318337987584,-0.00022923014745826175,-1.2276787848655682e-06
-0.01669114021134679,-0.00023774776209559533,-1.3444232622540325e-06
-0.01598668842935263,-0.0002459172192557702,-1.4653395075918738e-06
-0.015266779699163133,-0.0002537305862878991,-1.5902514589777913e-06
-0.014532316623819975,-0.0002611803603686449,-1.7189791956419273e-06
-0.013784285994114987,-0.0002682595110231286,-1.8513391634898707e-06
-0.013023756381848585,-0.0002749615216171195,-1.9871444216499327e-06
-0.012251875038673707,-0.0002812804294722501,-2.126204909422275e-06
-0.011469864108575766,-0.00028721086425906247,-2.2683277328551032e-06
-0.010679016161229784,-0.0002927480843265138,-2.4133174700014974e-06
-0.00988068905395663,-0.00029788801063031044,-2.5609764937407035e-06
-0.009076300136595045,-0.00030262725792794834,-2.711105310880268e-06
-0.008267319825319624,-0.000306963162918427,-2.863502916091862e-06
-0.007455264584281055,-0.0003108938090208272,-3.0179671590766757e-06
-0.006641689364586425,-0.00031441804750804406,-3.1742951232088936e-06
-0.005828179558434403,-0.00031753551473879925,-3.3322835137706044e-06
-0.005016342534873909,-0.00032024664526212633,-3.4917290537708358e-06
-0.004207798835259356,-0.00032255268060465964,-3.652428885237532e-06
-0.0034041731191276786,-0.0003244556735932564,-3.814180973787011e-06
-0.0026070849630193925,-0.00032595848811379314,-3.9767845142137735e-06
-0.001818139625525996,-0.0003270647942609295,-4.140040334807454e-06
-0.0010389189013267088,-0.00032777905889264265,-4.303751298095847e-06
-0.0002709721916478884,-0.00032810653166588633,-4.46772269573548e-06
0.00048419208341868726,-0.00032805322669294363,-4.631762635325187e-06
0.001225114614038469,-0.00032762590001857937,-4.795682417003068e-06
0.0019503927693461252,-0.0003268320231727332,-4.959296897800896e-06
0.0026586875227368385,-0.00032567975309971247,-5.122424841869008e-06
0.0033487296677476965,-0.00032417789880209133,-5.284889254844458e-06
0.004019325268795031,-0.00032233588506795565,-5.44651770081197e-06
0.004669360294609008,-0.00032016371367710465,-5.6071426004982345e-06
0.00529780438306058,-0.00031767192250768727,-5.766601509544432e-06
0.00590371368806229,-0.00031487154298990655,-5.924737375918831e-06
0.006486232767206233,-0.0003117740563760894,-6.08139877576033e-06
0.007044595488592131,-0.0003083913493121398,-6.236440127182387e-06
0.007578124970991159,-0.000304735669197244,-6.389721881809733e-06
0.008086232617153414,-0.00030081957980020787,-6.541110694059096e-06
0.008568416341557127,-0.0002966559175605302,-6.6904795683992805e-06
0.009024258117961752,-0.0002922577489456505,-6.8377079850258254e-06
0.009453420974932188,-0.000287638329172427,-6.982682004555345e-06
0.009855645554217682,-0.0002828110625401395,-7.1252943524834865e-06
0.010230746329277065,-0.00027778946456926583,-7.265444484260838e-06
0.010578607572129011,-0.0002725871260939143,-7.403038631926633e-06
0.010899179160044344,-0.000267217679410871,-7.537989833302829e-06
0.011192472321396214,-0.00026169476654051084,-7.670217944790674e-06
0.011458555421793823,-0.00025603200960471335,-7.79964963882698e-06
0.011697549882155527,-0.00025024298327872604,-7.926218387047839e-06
0.011909626299962589,-0.0002443411892331965,-8.04986443017582e-06
0.012095000818849497,-0.0002383400324534935,-8.170534735597493e-06
0.012253931768258354,-0.00023225279930671653,-8.288182943537546e-06
0.01238671657869763,-0.00022609263721997752,-8.40276930266922e-06
0.01249368896761039,-0.00021987253583340052,-8.514260595932564e-06
0.01257521638011862,-0.00021360530949646826,-8.622630057265031e-06
0.012631697656488378,-0.00020730358098731651,-8.727857279885977e-06
0.01266356089014632,-0.00020097976635065785,-8.82992811672047e-06
0.012671261442639624,-0.00019464606076746135,-8.928834573500001e-06
0.01265528009053257,-0.0001883144253841683,-9.024574695037908e-06
0.0126161212843707,-0.00018199657504044248,-9.11715244514406e-06
0.012554311497862514,-0.00017570396684488416,-9.206577580615393e-06
0.012470397639221729,-0.0001694477895606131,-9.292865519716766e-06
0.012364945490243289,-0.00016323895377824685,-9.376037205551482e-06
0.012238538136263629,-0.00015708808287162013,-9.456118964713949e-06
0.012091774353106275,-0.00015100550474927765,-9.533142361619174e-06
0.011925266923753067,-0.00014500124443006282,-9.607144048914008e-06
0.01173964086473457,-0.0001390850174829409,-9.67816561439226e-06
0.011535531547330436,-0.00013326622437992466,-9.746253424857976e-06
0.011313582698834814,-0.00012755394581838333,-9.811458467407552e-06
0.01107444426597717,-0.00012195693907718034,-9.873836188631443e-06
0.01081877012389244,-0.00011648363547971294,-9.933446332270666e-06
0.010547215625653753,-0.00011114213904232639,-9.990352775901176e-06
0.010260435008156314,-0.00010594022638387386,-1.0044623367257726e-05
0.009959078694894569,-0.00010088534795811114,-1.0096329760843223e-05
0.009643790557779782,-9.598463064494255e-05,-1.0145547255493987e-05
0.009315205213473282,-9.124488170212929e-05,-1.0192354633580755e-05
0.008973945433762917,-8.667259404032023e-05,-1.0236834002516367e-05
0.008620619746734623,-8.227395274519585e-05,-1.0279070639212745e-05
0.008255820297280359,-7.80548427341921e-05,-1.0319152838082592e-05
0.007880121022008543,-7.402085740436987e-05,-1.0357171763117233e-05
0.007494076175450976,-7.0177308105005e-05,-1.0393221304494577e-05
0.007098219224288107,-6.652923425507023e-05,-1.0427397940084595e-05
0.006693062109175153,-6.308141392170441e-05,-1.045980060212879e-05
0.006279094863333611,-5.983837467857722e-05,-1.049053054927886e-05
0.005856785573705959,-5.6804404569317324e-05,-1.0519691244090834e-05
0.0054265806722408865,-5.398356300783061e-05,-1.0547388235985121e-05
0.004988905548529973,-5.1379691452637894e-05,-1.0573729049600238e-05
0.00454416547596617,-4.899642369651386e-05,-1.0598823078387526e-05
0.0040927468379665845,-4.683719561803067e-05,-1.0622781483216163e-05
0.0036350186300191313,-4.490525425103424e-05,-1.0645717095683429e-05
0.0031713342042413166,-4.320366604246913e-05,-1.0667744325756805e-05
0.0027020332225697287,-4.1735324185766366e-05,-1.0688979073313864e-05
0.0022274437915750667,-4.0502954932230166e-05,-1.0709538643093364e-05
0.0017478847600624814,-3.950912279432078e-05,-1.0729541662525002e-05
0.0012636681667956458,-3.875623456260624e-05,-1.0749108001864233e-05
0.0007751018313767789,-3.8246542063063136e-05,-1.0768358696020651e-05
0.0002824920844728281,-3.7982143584100735e-05,-1.0787415867432442e-05
-0.00021385337390553803,-3.7964983906458915e-05,-1.0806402649305082e-05
-0.00071362252475195,-3.819685288112329e-05,-1.0825443108501977e-05
-0.0012164960650924005,-3.867938252858438e-05,-1.0844662167354404e-05
-0.001722144537727435,-3.9414042679289335e-05,-1.0864185523656372e-05
-0.002230225674593206,-4.0402135232369496e-05,-1.0884139568134286e-05
-0.0027403820550974006,-4.1644787164792146e-05,-1.0904651298733577e-05
-0.003252239154669668,-4.3142942467233916e-05,-1.0925848231141584e-05
-0.003765403838550994,-4.489735321553908e-05,-1.0947858305062278e-05
-0.004279463339605381,-4.690857001007817e-05,-1.0970809785868683e-05
-0.0047939847387893425,-4.917693202967685e-05,-1.0994831161378621e-05
-0.005308514942854738,-5.170255695008787e-05,-1.1020051033623563e-05
-0.0058225811346081895,-5.44853309694536e-05,-1.1046598005603448e-05
-0.006335691664056932,-5.7524899169119885e-05,-1.1074600563138092e-05
-0.006847337355384586,-6.0820656423980266e-05,-1.1104186952036367e-05
-0.007356993217439992,-6.437173906718641e-05,-1.1135485050909158e-05
-0.007864120550826565,-6.817701750925305e-05,-1.1168622240053268e-05
-0.00836816943480699,-7.223509000566144e-05,-1.1203725266931997e-05
-0.00886858155694349,-7.654427775359906e-05,-1.1240920108871812e-05
-0.009364793328384713,-8.110262147493111e-05,-1.1280331833678945e-05
-0.009856239212437523,-8.590787961013667e-05,-1.1322084458950212e-05
-0.010342355183827062,-9.095752820920282e-05,-1.1366300810905047e-05
-0.010822582235177191,-9.624876256395388e-05,-1.1413102383598336e-05
-0.011296369860801877,-0.00010177850058794864,-1.1462609199386312e-05
-0.011763179469123313,-0.00010754338792042995,-1.1514939671513406e-05
-0.012222487687191792,-0.00011353980470950873,-1.1570210469670891e-05
-0.012673789514191694,-0.0001197638740098546,-1.1628536389350731e-05
-0.013116601261079478,-0.0001262114717036724,-1.1690030225779112e-05
-0.013550463195455229,-0.00013287823781780607,-1.1754802653159483e-05
-0.013974941804329503,-0.00013975958906775225,-1.1822962109880873e-05
-0.014389631593196148,-0.00014685073241713366,-1.1894614690252093e-05
-0.014794156352895537,-0.0001541466794036566,-1.1969864043207291e-05
-0.015188169842269748,-0.00016164226095244792,-1.2048811278296318e-05
-0.015571355853163318,-0.00016933214237630618,-1.2131554879128506e-05
-0.015943427644922074,-0.00017721083825082752,-1.221819062428529e-05
-0.016304126760927802,-0.00018527272685229,-1.2308811515561069e-05
-0.016653221269345708,-0.0001935120638598584,-1.2403507713239106e-05
-0.016990503497688464,-0.00020192299505161692,-1.2502366477966975e-05
-0.017315787348411174,-0.00021049956776314182,-1.2605472118670664e-05
-0.017628905287598452,-0.00021923574092214422,-1.2712905945841985e-05
-0.01792970509357825,-0.0002281253935174384,-1.2824746229451881e-05
-0.018218046441848056,-0.00023716233140129496,-1.2941068160681565e-05
-0.018493797392765972,-0.0002463402923599485,-1.3061943816621876e-05
-0.018756830843395595,-0.0002556529494189889,-1.3187442127066611e-05
-0.01900702100526927,-0.0002650939123811551,-1.3317628842516646e-05
-0.019244239974224638,-0.00027465672762602857,-1.3452566502518443e-05
-0.019468354464620977,-0.00028433487623573996,-1.3592314403483885e-05
-0.019679222782024896,-0.00029412177054740144,-1.3736928565179672e-05
-0.019876692098924408,-0.0003040107492676388,-1.3886461695133431e-05
-0.020060596078297327,-0.0003139950713119442,-1.4040963150278326e-05
-0.020230752870903958,-0.00032406790854924456,-1.4200478895243624e-05
-0.020386963501420625,-0.0003342223376423257,-1.4365051456791516e-05
-0.020529010654078552,-0.0003444513311812005,-1.4534719873997398e-05
-0.020656657865761617,-0.0003547477483111605,-1.4709519643870488e-05
-0.020769649129458338,-0.00036510432505996554,-1.488948266221327e-05
-0.020867708898109405,-0.00037551366456685744,-1.5074637159619975e-05
-0.02095054245835481,-0.0003859682274059735,-1.5265007632613183e-05
-0.021017836626396058,-0.0003964603221771612,-1.5460614770008966e-05
-0.021069260717698546,-0.0004069820965131849,-1.5661475374681552e-05
-0.021104467760291488,-0.0004175255286326824,-1.5867602280968017e-05
-0.02112309594714324,-0.0004280824195595411,-1.6079004268016072e-05
-0.0211247703464185,-0.00043864438613293153,-1.629568596943919e-05
-0.021109104905836666,-0.00044920285494599535,-1.651764777970892e-05
-0.021075704798291163,-0.0004597490573720273,-1.6744885757788426e-05
-0.021024169159416423,-0.00047027402586145416,-1.6977391528596796e-05
-0.02095409426544205,-0.0004807685917176688,-1.7215152182991578e-05
-0.020865077193703743,-0.0004912233845824552,-1.7458150177066608e-05
-0.020756719996911456,-0.000501628833880109,-1.770636323168225e-05
-0.020628634399521603,-0.0005119751724792172,-1.7959764233272083e-05
-0.02048044698959188,-0.0005222524428264956,-1.8218321137098512e-05
-0.020311804842288294,-0.0005324505057844656,-1.8481996874251253e-05
-0.02012238148134836,-0.0005425590523653748,-1.8750749263788713e-05
-0.019911883062216317,-0.000552567618501266,-1.9024530931505374e-05
-0.019680054639766777,-0.0005624656029267617,-1.930328923686238e-05
-0.019426686363601925,-0.0005722422881776039,-1.9586966209638473e-05
-0.019151619434309743,-0.0005818868646270818,-1.9875498497839645e-05
-0.018854751668381877,-0.0005913884574027548,-2.0168817328347103e-05
-0.018536042559955265,-0.000600736155959839,-2.0466848481687752e-05
-0.01819551777909277,-0.0006099190460446011,-2.076951228218886e-05
-0.01783327308850076,-0.0006189262437614995,-2.1076723604640386e-05
-0.01744947768339287,-0.0006277469314544729,-2.138839189844438e-05
-0.017044376964446713,-0.0006363703951164328,-2.1704421230087107e-05
-0.016618294750453576,-0.0006447860630451578,-2.2024710344627505e-05
-0.01617163493498813,-0.0006529835454665182,-2.2349152746755422e-05
-0.015704882592620824,-0.0006609526748484204,-2.2677636801834158e-05
-0.015218604540572899,-0.0006686835466317188,-2.301004585720419e-05
-0.014713449359727451,-0.0006761665601067939,-2.334625838388882e-05
-0.014190146878813108,-0.0006833924591664291,-2.3686148138707125e-05
-0.01364950712815572,-0.0006903523726681713,-2.4029584346665775e-05
-0.013092418768468351,-0.0006970378541423272,-2.4376431903368398e-05
-0.012519846992169317,-0.0007034409205824867,-2.47265515970496e-05
-0.0119328308874163,-0.0007095540900523831,-2.507980034970832e-05
-0.011332480256907003,-0.0007153704178384639,-2.5436031476681032e-05
-0.010719971892758036,-0.0007208835308758802,-2.5795094963859618e-05
-0.010096545317275359,-0.0007260876601783886,-2.6156837761623184e-05
-0.009463498005891056,-0.0007309776710091801,-2.6521104094420077e-05
-0.008822180118401664,-0.0007355490905402533,-2.6887735784807436e-05
-0.008173988779606378,-0.0007397981327647553,-2.7256572590633688e-05
-0.007520361963340701,-0.000743721720450492,-2.76274525539375e-05
-0.006862772035148164,-0.0007473175039501142,-2.800021236003765e-05
-0.006202718996804078,-0.0007505838767081023,-2.8374687705202202e-05
-0.005541723459005657,-0.0007535199873220546,-2.8750713671209742e-05
-0.0048813193580225156,-0.0007561257480263116,-2.9128125105046836e-05
-0.004223046433748521,-0.0007584018394742545,-2.9506757001921978e-05
-0.0035684424983283827,-0.0007603497117072736,-2.988644488971736e-05
-0.002919035539767457,-0.0007619715812167976,-3.0267025212948378e-05
-0.0022763357167248682,-0.0007632704240309208,-3.064833571426031e-05
-0.0016418273046224145,-0.0007642499647862576,-3.1030215811464605e-05
-0.001016960651236859,-0.0007649146617752224,-3.141250696810498e-05
-0.00040314420010755165,-0.0007652696879880585,-3.17950530555458e-05
0.00019826334984758353,-0.0007653209082006235,-3.217770070459297e-05
0.000785960659907539,-0.0007650748521981848,-3.256029964469267e-05
0.00135871103101926,-0.0007645386842754531,-3.294270302881108e-05
0.0019153492223663684,-0.0007637201692121066,-3.3324767742182973e-05
0.002454787689697203,-0.0007626276349840907,-3.3706354693232026e-05
0.002976022151173265,-0.0007612699325238731,-3.408732908510902e-05
0.003478136428171334,-0.000759656392879037,-3.4467560666459745e-05
0.003960306545507862,-0.0007577967821356172,-3.484692396021341e-05
0.004421804098885689,-0.0007557012544745187,-3.5225298469365944e-05
0.004861998903156565,-0.0007533803037240082,-3.5602568858915575e-05
0.005280360927543102,-0.0007508447137663332,-3.597862511328816e-05
0.005676461516622922,-0.0007481055081552917,-3.635336266876857e-05
0.006049973902079342,-0.0007451738993006162,-3.672668252063255e-05
0.0064006730294643745,-0.0007420612375677303,-3.709849130484964e-05
0.006728434742592816,-0.000738778960624716,-3.746870135439775e-05
0.007033234374821284,-0.0007353385433453625,-3.783723073039027e-05
0.007315144794802905,-0.0007317514485529565,-3.820400322836485e-05
0.007574333953299723,-0.0007280290788659309,-3.856894836021957e-05
0.0078110619788589915,-0.0007241827298828912,-3.893200131240678e-05
0.008025677867907878,-0.0007202235449211995,-3.92931028811078e-05
0.008218615806210345,-0.0007161624715026699,-3.965219938521377e-05
0.008390391146767002,-0.0007120102197644256,-4.000924255803054e-05
0.008541596058901474,-0.0007077772229630086,-4.03641894187124e-05
0.008672894857842985,-0.0007034736002338224,-4.071700212451161e-05
0.008785019025006325,-0.0006991091217631101,-4.1067647805010845e-05
0.00887876193369125,-0.0006946931765234357,-4.141609837958248e-05
0.008954973297479322,-0.000690234742715643,-4.176233035939225e-05
0.009014553355379602,-0.0006857423610524282,-4.2106324635334266e-05
0.009058446803020733,-0.0006812241110128282,-4.244806625335058e-05
0.009087636479709478,-0.0006766875901921456,-4.278754417865182e-05
0.009103136830414109,-0.0006721398968646147,-4.3124751050416014e-05
0.00910598717991265,-0.000667587615862033,-4.345968292859768e-05
0.00909724488125448,-0.0006630368078467412,-4.379233903452487e-05
0.009077978426285624,-0.0006584930020198562,-4.412272148699152e-05
0.009049260623073622,-0.0006539611922575163,-4.445083503556086e-05
0.009012161948858769,-0.0006494458366145332,-4.477668679277888e-05
0.008967744180546237,-0.0006449508600821819,-4.510028596695306e-05
0.008917054394536317,-0.0006404796604384113,-4.5421643597083204e-05
0.008861119419336401,-0.0006360351169849432,-4.5740772291439044e-05
0.008800940817791555,-0.0006316196019256612,-4.605768597116669e-05
0.008737490465207007,-0.0006272349941049115,-4.6372399620174336e-05
0.008671706771061015,-0.0006228826947958445,-4.6684929042399525e-05
0.008604491569989506,-0.0006185636452105818,-4.699529062740113e-05
0.008536707687207067,-0.0006142783453962826,-4.730350112505285e-05
0.008469177163840186,-0.0006100268741835209,-4.76095774299478e-05
0.008402680106369652,-0.0006058089098659684,-4.7913536375960174e-05
0.008337954100630077,-0.0006016237513142184,-4.821539454125522e-05
0.008275694104112314,-0.0005974703392630328,-4.8515168063899534e-05
0.00821655270442445,-0.0005933472775608987,-4.881287246810552e-05
0.008161140615430275,-0.000589252854230935,-4.9108522501053476e-05
0.008110027283338365,-0.0005851850622562428,-4.940213198017527e-05
0.00806374149142157,-0.0005811416200625528,-4.9693713650754966e-05
0.0080227718760515,-0.0005771199917206846,-4.998327905370077e-05
0.007987567291840341,-0.0005731174069287116,-5.0270838403363124e-05
0.007958536988936768,-0.0005691308808585174,-5.055640047530993e-05
0.00793605059226535,-0.0005651572339632168,-5.0839972504015366e-05
0.007920437897463814,-0.0005611931118407846,-5.1121560090466364e-05
0.007911988515865654,-0.0005572350052374522,-5.140116711973592e-05
0.007910951411457931,-0.0005532792702556213,-5.167879568860919e-05
0.00791753438154738,-0.00054932214880737,-5.1954446043374935e-05
0.007931903541003335,-0.0005453597893267323,-5.222811652790846e-05
0.007954182872949083,-0.0005413882677232441,-5.249980354217095e-05
0.007984453904813981,-0.0005374036085288034,-5.2769501511233965e-05
0.008022755560163786,-0.000533401806162559,-5.3037202864906806e-05
0.008069084226482295,-0.0005293788462158974,-5.330289802800142e-05
0.008123394068573297,-0.0005253307266421336,-5.356657542121593e-05
0.008185597607205414,-0.0005212534787231889,-5.382822147255726e-05
0.008255566575213027,-0.0005171431876775843,-5.408782063915745e-05
0.008333133061780988,-0.0005129960127683358,-5.434535543926893e-05
0.008418090961990529,-0.0005088082067623929,-5.460080649415161e-05
