frame_number,force
0,826.0278045589869
1,826.0552783614127
2,826.0806760803301
3,826.1040469823536
4,826.1254951049618
5,826.1451760186415
6,826.1632935567624
7,826.1800966457698
8,826.1958763039121
9,826.2109627938702
10,826.2257227996638
11,826.2405563855648
12,826.2558934383561
13,826.2721893304243
14,826.2899196524064
15,826.3095739716913
16,826.3316486203183
17,826.3566385426278
18,826.3850283025488
19,826.4172824406269
20,826.4538354151684
21,826.4950813680407
22,826.5413639897365
23,826.5929668103823
24,826.6501042248844
25,826.7129134512377
26,826.781447505262
27,826.8556692331222
28,826.9354464955353
29,827.0205487109455
30,827.1106450596137
31,827.2053046623314
32,827.3039989860363
33,827.406106646125
34,827.5109207126756
35,827.6176585871713
36,827.7254744577934
37,827.8334742340512
38,827.9407327250342
39,828.0463126879183
40,828.1492852327775
41,828.2487509340615
42,828.3438609091086
43,828.4338371092132
44,828.5179911283007
45,828.5957409620785
46,828.6666253187514
47,828.7303152178837
48,828.7866226520608
49,828.8355060310535
50,828.8770720323555
51,828.9115734004478
52,828.939402232538
53,828.9610784433545
54,828.9772334667113
55,828.9885897559934
56,828.9959371016481
57,829.000107020816
58,829.0019464432058
59,829.0022916865697
60,829.0019434396993
61,829.0016433201295
62,829.0020525981602
63,829.0037337744704
64,829.0071357277973
65,829.0125830409755
66,829.0202698711383
67,829.0302584228103
68,829.0424818157434
69,829.0567509747923
70,829.0727650810439
71,829.0901250360876
72,829.1083492810167
73,829.1268912599875
74,829.1451579012273
75,829.1625286474767
76,829.1783746767343
77,829.1920779641481
78,829.2030497831689
79,829.2107481837982
80,829.2146939683771
81,829.2144847334574
82,829.2098066352155
83,829.2004436269907
84,829.1862839751371
85,829.1673238474673
86,829.1436677100633
87,829.1155252655379
88,829.0832047975792
89,829.0471030392782
90,829.0076919867518
91,828.9655033472711
92,828.9211114719083
93,828.8751156667944
94,828.8281227362013
95,828.7807305046457
96,828.7335128959975
97,828.6870069225681
98,828.6417016927503
99,828.5980293470463
100,828.5563577275555
101,828.5169845782715
102,828.4801331381798
103,828.445949082065
104,828.4144988227918
105,828.3857691641723
106,828.3596682000683
107,828.3360272840812
108,828.3146039317977
109,828.2950856499639
110,828.2770948303418
111,828.2601949597163
112,828.2438984961354
113,828.2276768195521
114,828.2109725765558
115,828.1932144049168
116,828.1738334982957
117,828.1522810060761
118,828.1280451201455
119,828.1006668927748
120,828.0697541276304
121,828.0349928984122
122,827.9961564017005
123,827.9531110505983
124,827.9058199602865
125,827.8543441562388
126,827.7988418524569
127,827.7395659853347
128,827.6768599480516
129,827.6111513284285
130,827.5429435169568
131,827.4728052572672
132,827.4013584215055
133,827.3292644485889
134,827.2572099829041
135,827.1858922375685
136,827.1160044146143
137,827.0482212336377
138,826.9831844692081
139,826.9214885051553
140,826.8636662028423
141,826.8101756604627
142,826.7613885755279
143,826.7175809073466
144,826.6789264332609
145,826.6454936486026
146,826.6172462966036
147,826.5940476253035
148,826.5756682198355
149,826.5617969528723
150,826.5520543181453
151,826.5460072611421
152,826.5431846312156
153,826.5430925175973
154,826.5452289313866
155,826.5490974796295
156,826.5542197902396
157,826.5601464779592
158,826.5664664098202
159,826.5728139650307
160,826.5788739664646
161,826.5843840830797
162,826.5891347473797
163,826.5929668582475
164,826.5957676489172
165,826.5974651180796
166,826.5980214098172
167,826.5974255407675
168,826.5956859802224
169,826.5928237935151
170,826.5888672162505
171,826.5838484593436
172,826.5778032334739
173,826.5707730665739
174,826.5628101040415
175,826.5539837748213
176,826.5443884873773
177,826.5341513980819
178,826.5234392547037
179,826.5124633277186
180,826.5014815271691
181,826.4907970445253
182,826.4807532654794
183,826.471725143868
184,826.4641075819854
185,826.4583016294454
186,826.4546995657455
187,826.4536701809619
188,826.4555456912317
189,826.460611544019
190,826.4690998508038
191,826.4811865313737
192,826.4969917299298
193,826.5165828020776
194,826.5399791480553
195,826.5671582620503
196,826.598062453689
197,826.6326057433191
198,826.6706804934355
199,826.7121634329177
200,826.756920803508
201,826.804812396874
202,826.8556943376302
203,826.9094206462069
204,826.965843786804
205,827.0248144537151
206,827.0861808007808
207,827.1497872775517
208,827.2154732183733
209,827.2830712655947
210,827.3524055727818
211,827.423289621789
212,827.495523522997
213,827.5688908731037
214,827.6431555086862
215,827.7180586671354
216,827.7933170745824
217,827.8686223500648
218,827.9436419305758
219,828.0180215759182
220,828.0913894625003
221,828.1633618949073
222,828.2335506481087
223,828.3015718008321
224,828.3670556266418
225,828.4296567763286
226,828.4890637651445
227,828.5450068021648
228,828.5972632997546
229,828.6456608613719
230,828.6900779680683
231,828.7304428217118
232,828.7667308072783
233,828.7989608654055
234,828.827190894961
235,828.8515123109987
236,828.8720440608556
237,828.8889265677674
238,828.9023160866521
239,828.9123798649188
240,828.9192924218995
241,828.9232332141132
242,828.9243858666777
243,828.9229389854788
244,828.9190883620431
245,828.9130402067916
246,828.9050149404501
247,828.8952510561965
248,828.8840086048281
249,828.871571873072
250,828.8582507770052
251,828.8443804300194
252,828.8303183586133
253,828.8164389755713
254,828.8031251791954
255,828.7907573021548
256,828.7797000030424
257,828.7702879577868
258,828.7628113019205
259,828.7575017366751
260,828.7545201300663
261,828.7539463888621
262,828.7557723478212
263,828.7598983398069
264,828.7661339237599
265,828.7742030131803
266,828.7837534310929
267,828.794370707556
268,828.8055957015071
269,828.81694535639
270,828.8279355829114
271,828.8381049496778
272,828.8470376709512
273,828.854384406028
274,828.8598796096453
275,828.8633544924531
276,828.8647449784687
277,828.8640943739008
278,828.8615508039529
279,828.8573597899501
280,828.8518525580876
281,828.8454307964989
282,828.8385486794767
283,828.8316930719069
284,828.8253628562632
285,828.8200482637019
286,828.8162109736776
287,828.8142656095831
288,828.8145631192649
289,828.8173764011135
290,828.8228884441467
291,828.8311832380903
292,828.842239802169
293,828.8559298418211
294,828.872019660742
295,828.8901768762626
296,828.9099821114243
297,828.9309452616988
298,828.9525254141988
299,828.9741532242004
300,828.9952545281083
301,829.0152741100842
302,829.0336987596888
303,829.050078945599
304,829.0640484929146
305,829.0753416267156
306,829.0838067426869
307,829.0894163306011
308,829.0922725686822
309,829.0926081712979
310,829.0907820954149
311,829.0872697519086
312,829.0826475303329
313,829.0775717837681
314,829.0727528802742
315,829.0689254102109
316,829.06681606236
317,829.0671109441764
318,829.0704241156324
319,829.077268858465
320,829.0880328937263
321,829.1029585391861
322,829.1221286427188
323,829.1454589156674
324,829.1726969549297
325,829.2034278438864
326,829.2370858923858
327,829.2729719164199
328,829.3102754432673
329,829.3481011813828
330,829.3854988456444
331,829.4214950403757
332,829.4551256511273
333,829.4854672829241
334,829.5116666355681
335,829.5329670807942
336,829.5487319196228
337,829.5584638540896
338,829.5618202288344
339,829.5586236812195
340,829.5488679660004
341,829.5327188070563
342,829.5105096535893
343,829.4827322732376
344,829.4500222959063
345,829.413140128317
346,829.3729480133035
347,829.3303843066734
348,829.2864361824583
349,829.2421119129862
350,829.1984136873831
351,829.1563117731129
352,829.1167207460466
353,829.0804784412935
354,829.0483281083561
355,829.0209039784313
356,828.9987201659904
357,828.9821626688979
358,828.9714842758218
359,828.9668023751966
360,828.9680998232453
361,828.9752290236449
362,828.9879191592232
363,829.0057861635223
364,829.0283446600871
365,829.0550208978688
366,829.0851658023063
367,829.1180676187855
368,829.1529640550924
369,829.1890541127684
370,829.2255098389468
371,829.2614880983255
372,829.2961423208035
373,829.3286341596861
374,829.3581451151504
375,829.3838883219003
376,829.4051207037177
377,829.4211554941402
378,829.4313748221077
379,829.4352418516022
380,829.4323119372644
381,829.4222423773599
382,829.4048005414203
383,829.379870356944
384,829.3474572684635
385,829.3076917575594
386,829.2608313414381
387,829.2072607324025
388,829.1474896521473
389,829.0821477572482
390,829.0119762736521
391,828.937816179638
392,828.8605930249416
393,828.7812987050157
394,828.7009707311228
395,828.620669737537
396,828.541456134146
397,828.4643669301084
398,828.3903937683044
399,828.3204630663806
400,828.2554188825463
401,828.1960088059981
402,828.1428728823194
403,828.0965353359103
404,828.0573986672257
405,828.0257396598028
406,828.0017069931433
407,827.9853204735341
408,827.9764722170762
409,827.9749303006326
410,827.9803453582367
411,827.9922603319462
412,828.0101231639527
413,828.0333018197234
414,828.0611008325662
415,828.0927785904556
416,828.1275647530243
417,828.1646773578292
418,828.2033392331233
419,828.2427932530231
420,828.2823158603246
421,828.3212282977581
422,828.3589051988084
423,828.394780541979
424,828.4283513334304
425,828.4591796012912
426,828.4868932777399
427,828.5111863504271
428,828.5318184079936
429,828.5486134974387
430,828.5614580900124
431,828.5702979163012
432,828.5751334897822
433,828.5760142861667
434,828.573031741675
435,828.5663114248395
436,828.5560048818076
437,828.5422817242821
438,828.5253225121174
439,828.5053128991159
440,828.4824393947804
441,828.4568869612998
442,828.4288385093168
443,828.3984761823647
444,828.365984140468
445,828.3315523854991
446,828.2953810619982
447,828.2576846696145
448,828.2186957213122
449,828.178667492137
450,828.1378755488668
451,828.0966177197334
452,828.0552121442811
453,828.0139931720439
454,827.9733051775664
455,827.9334946786072
456,827.8949013224258
457,827.8578483178619
458,827.8226328211523
459,827.7895167291457
460,827.7587183505409
461,827.7304054859536
462,827.7046904422939
463,827.681627332543
464,827.6612116912783
465,827.6433821332824
466,827.6280236466853
467,827.6149721347524
468,827.6040198981427
469,827.5949218296865
470,827.5874021708349
471,827.5811617110058
472,827.5758852742513
473,827.5712493113593
474,827.5669294820647
475,827.5626082274161
476,827.5579823840848
477,827.5527708264844
478,827.5467219750376
479,827.5396208560007
480,827.5312953042413
481,827.5216209118286
482,827.5105244699533
483,827.4979858922472
484,827.4840388267095
485,827.4687702436939
486,827.4523191999223
487,827.4348747893473
488,827.4166731115275
489,827.3979930150913
490,827.3791504375008
491,827.3604912921169
492,827.3423829341983
493,827.3252042425017
494,827.3093343872926
495,827.2951405054822
496,827.2829646999498
497,827.2731108868288
498,827.265832009734
499,827.2613181184201
500,827.2596858338571
501,827.260969763365
502,827.2651164350078
503,827.2719812580949
504,827.2813288696544
505,827.2928369871241
506,827.306103563827
507,827.3206567044397
508,827.3359666077823
509,827.3514589089699
510,827.3665291116611
511,827.3805580631534
512,827.3929284461165
513,827.4030420744433
514,827.4103375394278
515,827.4143076066239
516,827.4145157635239
517,827.4106113726691
518,827.4023428808812
519,827.3895684691217
520,827.3722634627297
521,827.3505238172614
522,827.3245651304019
523,827.294716978336
524,827.261412877953
525,827.2251766333083
526,827.1866060557494
527,827.1463550324306
528,827.1051147635126
529,827.0635948087416
530,827.0225044531422
531,826.9825348572076
532,826.9443424836163
533,826.9085343198577
534,826.8756553868793
535,826.8461789446701
536,826.8204996914583
537,826.7989300738421
538,826.7816995927592
539,826.7689568253669
540,826.7607738731874
541,826.757153003301
542,826.7580352037597
543,826.763310177466
544,826.7728270646962
545,826.7864050559068
546,826.8038430819832
547,826.8249279306133
548,826.849440414838
549,826.8771595681505
550,826.9078651615288
551,826.9413390309675
552,826.9773657349953
553,827.0157329601651
554,827.0562319078293
555,827.0986576975866
556,827.142809707701
557,827.1884917828655
558,827.2355122958141
559,827.2836840287855
560,827.3328237239433
561,827.3827510583155
562,827.433286857122
563,827.4842505581622
564,827.5354571587927
565,827.5867140385166
566,827.6378181534137
567,827.6885541297949
568,827.7386937146523
569,827.7879969087018
570,827.8362149919296
571,827.8830955453653
572,827.9283893885026
573,827.9718590621691
574,828.0132881933578
575,828.0524909163746
576,828.0893205296314
577,828.123676665109
578,828.1555103681446
579,828.1848266386121
580,828.2116841951497
581,828.2361924651455
582,828.2585060354303
583,828.2788170056845
584,828.2973458413346
585,828.3143313791093
586,828.3300205966498
587,828.3446586858912
588,828.3584799028752
589,828.371699551922
590,828.3845072744829
591,828.3970616278276
592,828.4094858491318
593,828.421864744992
594,828.4342428029007
595,828.4466237967771
596,828.4589722173165
597,828.4712167329731
598,828.4832556623481
599,828.4949642575453
600,828.5062035005685
601,828.5168300345514
602,828.526706747976
603,828.5357134255698
604,828.54375680122
605,828.5507793331905
606,828.556766152492
607,828.5617499518501
608,828.5658139429684
609,828.5690931537391
610,828.5717741655667
611,828.5740931012419
612,828.5763315543728
613,828.5788102962713
614,828.5818808665407
615,828.5859153672621
616,828.591294875577
617,828.5983969256563
618,828.6075825790165
619,828.6191837334517
620,828.6334914458571
621,828.6507460362726
622,828.6711295326578
623,828.6947606775592
624,828.7216924035279
625,828.7519115030572
626,828.7853401631369
627,828.8218390386788
628,828.8612115776012
629,828.9032094076924
630,828.9475387412934
631,828.9938678461908
632,829.0418355693344
633,829.0910607157174
634,829.141151883793
635,829.191717189614
636,829.2423732007674
637,829.2927524209539
638,829.3425088602124
639,829.3913215386835
640,829.4388961053968
641,829.4849650317833
642,829.5292870103866
643,829.5716462209505
644,829.6118520129386
645,829.6497393185108
646,829.6851698168532
647,829.718033609342
648,829.7482509919296
649,829.7757738277859
650,829.8005860237262
651,829.8227027149935
652,829.8421679622395
653,829.8590510023063
654,829.8734412976024
655,829.8854427876502
656,829.8951679107332
657,829.9027321453531
658,829.9082499263009
659,829.9118327026015
660,829.913589622881
661,829.913630962828
662,829.9120740609794
663,829.9090512741994
664,829.9047193045106
665,829.8992691088217
666,829.8929354150582
667,829.8860046611729
668,829.8788200746318
669,829.8717827779717
670,829.8653482902529
671,829.8600184296668
672,829.8563291555424
673,829.8548352033678
674,829.8560925171687
675,829.8606395476288
676,829.868978466267
677,829.8815572193481
678,829.8987531651738
679,829.9208589258857
680,829.9480710603358
681,829.9804821128243
682,830.0180764351273
683,830.0607299667179
684,830.1082139581017
685,830.1602024212116
686,830.2162828645266
687,830.2759696715605
688,830.3387193759092
689,830.403947064045
690,830.4710431497947
691,830.5393898044673
692,830.6083764357583
693,830.677413819379
694,830.7459467551325
695,830.8134653402493
696,830.8795150599062
697,830.9437058796743
698,831.005720380291
699,831.0653207150352
700,831.1223539078625
701,831.1767549217143
702,831.2285470972564
703,831.2778399108466
704,831.3248243306969
705,831.3697661770293
706,831.4129977785121
707,831.454908007396
708,831.4959306540472
709,831.5365311371298
710,831.5771916954856
711,831.6183953982985
712,831.6606094647668
713,831.7042684441611
714,831.7497577877249
715,831.7973983278557
716,831.8474322194377
717,831.900010962726
718,831.9551861486344
719,832.0129034977513
720,832.0730006074656
721,832.1352086393072
722,832.1991580335377
723,832.2643882019001
724,832.3303609307897
725,832.3964769121212
726,832.4620945202969
727,832.5265498127925
728,832.5891767971945
729,832.6493271807797
730,832.7063889487771
731,832.7598031576963
732,832.8090783370209
733,832.8538019101552
734,832.8936480946896
735,832.9283818772954
736,832.9578589421016
737,832.9820218457381
738,833.0008931515656
739,833.0145665073259
740,833.0231967018035
741,833.0269896150749
742,833.0261928094454
743,833.0210873729241
744,833.011981470892
745,832.999205808958
746,832.9831109069008
747,832.964065827419
748,832.9424578000259
749,832.9186920008807
750,832.8931906806907
751,832.866391015843
752,832.8387414585331
753,832.810696764286
754,832.7827121435704
755,832.7552371594851
756,832.7287101069105
757,832.7035535797467
758,832.6801716939538
759,832.6589490222402
760,832.6402508121919
761,832.6244236369972
762,832.6117954384806
763,832.6026740865265
764,832.5973440244467
765,832.5960610598173
766,832.5990456878798
767,832.6064754334702
768,832.6184766252945
769,832.635115918473
770,832.6563918982733
771,832.682227241532
772,832.7124620727006
773,832.7468492167884
774,832.785051977605
775,832.826644878259
776,832.8711175583156
777,832.9178818088102
778,832.9662815968751
779,833.0156058770202
780,833.065103922567
781,833.1140027410853
782,833.1615258716499
783,833.2069126463059
784,833.2494369649177
785,833.2884247591514
786,833.3232694996246
787,833.3534452660808
788,833.3785170394098
789,833.3981479780625
790,833.4121035200483
791,833.4202522436075
792,833.422563536772
793,833.4191022229213
794,833.4100203393192
795,833.3955463242909
796,833.3759719913495
797,833.3516378127006
798,833.322917132128
799,833.2901999962588
800,833.2538773805688
801,833.2143266486312
802,833.171899017241
803,833.1269095893041
804,833.0796302882048
805,833.0302859221799
806,832.979053589904
807,832.9260655320568
808,832.8714152714216
809,832.8151665842803
810,832.7573646025053
811,832.6980481444346
812,832.6372622399393
813,832.5750698417838
814,832.5115619139755
815,832.4468653767678
816,832.3811486880169
817,832.3146250752973
818,832.2475535007621
819,832.1802373164231
820,832.1130203956407
821,832.0462805006115
822,831.9804198178593
823,831.9158528560389
824,831.8529921126251
825,831.7922320320947
826,831.7339318739931
827,831.6783982805889
828,831.6258685663964
829,831.5764959300317
830,831.5303378161683
831,831.487348502601
832,831.4473766354823
833,831.4101678821509
834,831.3753722399314
835,831.3425550780407
836,831.3112108696312
837,831.280778751222
838,831.2506593584765
839,831.2202326615256
840,831.1888766332409
841,831.1559864949186
842,831.1209941036575
843,831.0833869353464
844,831.0427261147731
845,830.9986629433391
846,830.9509532886971
847,830.8994690815236
848,830.8442061380263
849,830.7852876542688
850,830.7229629477407
851,830.6576012524202
852,830.58968055669
853,830.5197716436329
854,830.4485177125894
855,830.3766102500456
856,830.3047621462883
857,830.2336793692859
858,830.1640327524734
859,830.0964315675363
860,830.0314004757502
861,829.9693611506412
862,829.9106193848955
863,829.8553579657471
864,829.8036351727225
865,829.7553884823565
866,829.710442915797
867,829.6685233718788
868,829.6292702188246
869,829.592257355755
870,829.5570118751336
871,829.523034360308
872,829.4898188105822
873,829.4568712888935
874,829.4237266302812
875,829.3899628355463
876,829.3552130049746
877,829.3191747758596
878,829.2816171906269
879,829.2423848105418
880,829.2013988489397
881,829.1586552187315
882,829.1142196416885
883,829.0682202579742
884,829.02083840869
885,828.9722983627049
886,828.9228566884593
887,828.8727917896312
888,828.822393947386
889,828.7719561052253
890,828.7217655629221
891,828.6720966776059
892,828.623204646409
893,828.5753205140142
894,828.5286476295892
895,828.483359711683
896,828.4396004360719
897,828.3974842084903
898,828.3570977051348
899,828.3185018744592
900,828.2817342873204
901,828.2468119066876
902,828.2137344588054
903,828.1824885578893
904,828.1530525557645
905,828.1254018479613
906,828.0995141810428
907,828.07537441959
908,828.0529782482125
909,828.0323343956015
910,828.0134651351044
911,827.9964049756671
912,827.9811975586088
913,827.967890808232
914,827.9565303838388
915,827.9471515223252
916,827.9397695184805
