acceleration,velocity,displacement
-0.025149798973395723,0.0,0.0
-0.024824353462112397,-1.2493538108877031e-05,-3.123384527219258e-09
-0.024523500544470056,-2.4830501610522644e-05,-1.2454394457069176e-08
-0.02424665662456808,-3.702304090278218e-05,-2.7917780085395382e-08
-0.023992589309089336,-4.908285238619653e-05,-4.944425340764006e-08
-0.023759455761875086,-6.102086365393764e-05,-7.69701824176736e-08
-0.023544841440727354,-7.284693795458825e-05,-1.1043713281980507e-07
-0.02334579764589986,-8.456959772624506e-05,-1.497912667400134e-07
-0.02315887707216941,-9.619576640576238e-05,-1.9498260777301526e-07
-0.022980167537835935,-0.00010773052755826372,-2.459641812640218e-07
-0.022805325426154294,-0.00011917690079926127,-3.0269103835340303e-07
-0.022629611709032244,-0.0001305356350830579,-3.6511917232398284e-07
-0.022447934090845452,-0.00014180502153302732,-4.3320433647800414e-07
-0.022254898381999254,-0.0001529807296512385,-5.069007742740706e-07
-0.022044870894240336,-0.00016405567197029842,-5.861598746794548e-07
-0.021812052375366875,-0.00017501990278770023,-6.709287683689545e-07
-0.021550563441382134,-0.00018586055674188747,-7.611488832513514e-07
-0.021254541146510143,-0.00019656183288886055,-8.567544806590384e-07
-0.02091824550786865,-0.00020710502955245525,-9.576711962693674e-07
-0.020536173732904832,-0.00021746863436264863,-1.0638146122481433e-06
-0.020103179373251165,-0.00022762847263918762,-1.1750888889986024e-06
-0.019614593555647684,-0.00023755791587141232,-1.2913854861262525e-06
-0.019066345037008457,-0.00024722815051957635,-1.4125820027239997e-06
-0.01845507521390677,-0.00025660850558230515,-1.53854116674947e-06
-0.01777824443570362,-0.0002656668354947078,-1.6691100020187231e-06
-0.017034227263743016,-0.0002743699534195694,-1.8041191992472924e-06
-0.016222395690282696,-0.00028268410915807587,-1.943382714891704e-06
-0.015343189827278125,-0.00029057550553746606,-2.086697618565589e-06
-0.014398174952655055,-0.0002980108467324494,-2.233844206633068e-06
-0.013390082458711983,-0.00030495791108529116,-2.384586396087503e-06
-0.012322831125872498,-0.0003113861394814373,-2.538672408729185e-06
-0.011201525005704135,-0.00031726722851433146,-2.6958357507281273e-06
-0.01003242492479411,-0.00032257571599695603,-2.8557964868559492e-06
-0.008822891598154494,-0.0003272895451276932,-3.0182628021371117e-06
-0.007581299082142713,-0.00033139059279776745,-3.182932836618477e-06
-0.0063169177780847,-0.00033486514701282433,-3.3494967715711248e-06
-0.00503976689102165,-0.0003377043181801009,-3.517639137869356e-06
-0.0037604375190631906,-0.0003399043692826221,-3.687041309735037e-06
-0.002489889165528038,-0.0003414669509537699,-3.857384139794135e-06
-0.001239224096689784,-0.00034239922926932435,-4.028350684849908e-06
-1.9445633174633788e-05,-0.0003427138967017905,-4.199628966342687e-06
0.0011587919295710605,-0.0003424290601276914,-4.3709147055500575e-06
0.0022854330103224798,-0.000341568003892718,-4.54191397155516e-06
0.003351261103302113,-0.0003401588303643119,-4.7123456801194175e-06
0.0043481215794755465,-0.00033823398469361746,-4.8819438838839e-06
0.005269120209875106,-0.0003358296742462798,-5.050459798618874e-06
0.006108792685561991,-0.0003329851960224205,-5.217663516186049e-06
0.006863242013888225,-0.000329742187347558,-5.383345362028544e-06
0.007530241121650296,-0.0003261438165636734,-5.547316863006352e-06
0.008109297344846368,-0.0003222339319470492,-5.709411300134033e-06
0.008601674349532457,-0.0003180561890234545,-5.869483830376659e-06
0.00901036606263227,-0.0003136531789204133,-6.027411172362626e-06
0.009340017137050674,-0.00030906558312049256,-6.1830908628728524e-06
0.009596786309462063,-0.0003043313822588644,-6.3364401042176915e-06
0.009788153334479306,-0.00029948514734787907,-6.487394236619377e-06
0.009922676154234514,-0.0002945574399757006,-6.635904883450272e-06
0.010009710363264224,-0.0002895743433463259,-6.781937829280779e-06
0.010059105836616535,-0.0002845571392963557,-6.925470699941449e-06
0.010080895021485955,-0.0002795221390818301,-7.066490519535996e-06
0.010084984659364768,-0.0002744806691616174,-7.204991221596857e-06
0.010080859442947919,-0.0002694392081360392,-7.3409711909212716e-06
0.010077304326501519,-0.00026439966719367684,-7.4744309097537e-06
0.010082152497711841,-0.0002593598029876235,-7.605370777299025e-06
0.010102067152239042,-0.0002543137480751358,-7.733789165064714e-06
0.010142365558067742,-0.0002492526398975591,-7.859680762057888e-06
0.010206892615332754,-0.000244165325354209,-7.98303525337083e-06
0.010297948244754327,-0.00023903911513918722,-8.10383636349418e-06
0.010416269300409186,-0.00023386056075289633,-8.222061282467201e-06
0.010561063541157436,-0.00022861622754250468,-8.33768047954105e-06
0.010730091245815476,-0.00022329343884576144,-8.450657896138116e-06
0.01091978901374877,-0.00021788096878087038,-8.560951498044774e-06
0.011125429258133805,-0.00021236966421289973,-8.668514156293217e-06
0.011341307592584565,-0.00020675298000022012,-8.773294817346497e-06
0.011560949698647507,-0.0002010274156774121,-8.875239916265905e-06
0.011777330245671866,-0.00019519284569133227,-8.97429498160809e-06
0.011983098319085918,-0.00018925273855014283,-9.070406377668459e-06
0.012170805102938005,-0.00018321426269463686,-9.163523127979654e-06
0.012333129680713465,-0.000177088278998724,-9.253598763402994e-06
0.01246309819383011,-0.0001708892220300881,-9.340593138660197e-06
0.012554290883142544,-0.00016463487476084493,-9.42447416285793e-06
0.012601031332819196,-0.0001583460442068545,-9.505219392599854e-06
0.01259855280566237,-0.0001520461481722341,-9.582817440694626e-06
0.012543137612287177,-0.0001457607255677467,-9.657269159129622e-06
0.012432226535922724,-0.00013951688453069422,-9.728588561654233e-06
0.012264496017021181,-0.00013334270389245826,-9.796803458760021e-06
0.012039900660765665,-0.00012726660472301156,-9.861955785913889e-06
0.011759677937564552,-0.000121316710073429,-9.924101614613e-06
0.01142631191471266,-0.0001155202126103597,-9.983310845283947e-06
0.011043454418079378,-0.00010990277102716169,-1.0039666591193327e-05
0.01061580501569915,-0.00010448795616871706,-1.0093264272992297e-05
0.010148954816337838,-9.92967662107078e-05,-1.0144210453587154e-05
0.009649202247205545,-9.434722694482195e-05,-1.0192621451876037e-05
0.009123350879768637,-8.96540886630784e-05,-1.0238621780778011e-05
0.008578499894812783,-8.522862596943304e-05,-1.0282342459436139e-05
0.008021837293599086,-8.107854167233008e-05,-1.032391925134658e-05
0.007460444706201371,-7.720797117237996e-05,-1.0363490879557756e-05
0.0069011206435927895,-7.361757983493142e-05,-1.0401197267309585e-05
0.0063502263747222875,-7.030474308035266e-05,-1.0437177848038405e-05
0.005813555714674629,-6.726379755800343e-05,-1.0471569983197995e-05
0.005296227655882733,-6.448635171536409e-05,-1.0504507520516337e-05
0.0048025995333156974,-6.196164491806448e-05,-1.0536119519674694e-05
0.004336198323138636,-5.96769454539509e-05,-1.0566529167267698e-05
0.0038996684400047425,-5.7617978763165053e-05,-1.0595852898321976e-05
0.003494735498885152,-5.576937777844258e-05,-1.0624199737457378e-05
0.0031221862044501737,-5.411514735260875e-05,-1.0651670868740141e-05
0.002781864239055704,-5.263913474173228e-05,-1.0678359439263726e-05
0.0024726809132035437,-5.132549845366747e-05,-1.0704350597562576e-05
0.0021926384978363943,-5.0159168600907485e-05,-1.072972176432622e-05
0.0019388646033734033,-4.9126292825605035e-05,-1.0754543129682848e-05
0.001707657538827477,-4.821466229005481e-05,-1.0778878368461762e-05
0.0014945442828031292,-4.741411183464716e-05,-1.0802785561992938e-05
0.0012943540451690156,-4.6716887252654124e-05,-1.0826318311764763e-05
0.0011013115663749326,-4.611797084976814e-05,-1.0849527026290368e-05
0.000909154989439888,-4.561535421081443e-05,-1.0872460357555514e-05
0.0007112820915323119,-4.521024494057138e-05,-1.0895166757343362e-05
0.0005009247060148512,-4.490719324118459e-05,-1.0917696116888801e-05
0.0002713449424754362,-4.471412582906202e-05,-1.0940101446656363e-05
1.6041299349098428e-05,-4.4642279268605884e-05,-1.096244054793078e-05
-0.00027104893176787946,-4.470603117671058e-05,-1.098477762554211e-05
-0.0005953622927874305,-4.492263398284941e-05,-1.1007184791832e-05
-0.0009615446108259515,-4.531186070875275e-05,-1.10297434155049e-05
-0.0013733145522575201,-4.589557549952362e-05,-1.105254527455697e-05
-0.0018333587548357317,-4.669724382629693e-05,-1.1075693479388424e-05
-0.002343259644444394,-4.7741398426116964e-05,-1.1099303139951527e-05
-0.0029034541463606803,-4.905307687381823e-05,-1.112350175877651e-05
-0.003513219373154216,-5.0657245253696955e-05,-1.1148429339308389e-05
-0.004170681174463948,-5.25782203906015e-05,-1.1174238205719464e-05
-0.0048728433500295106,-5.483910152172486e-05,-1.1201092536197546e-05
-0.005615638178640023,-5.7461221903892245e-05,-1.122916761705395e-05
-0.006394000597411031,-6.0463631597905006e-05,-1.12586488304294e-05
-0.0072019676102725895,-6.38626236498259e-05,-1.1289730394241333e-05
-0.00803280206964094,-6.767131606980429e-05,-1.132261387917124e-05
-0.008879137485236862,-7.189930095852374e-05,-1.1357506533428322e-05
-0.009733138671991675,-7.655236999783087e-05,-1.139461945116741e-05
-0.010586671869239441,-8.163232263313865e-05,-1.1434165624325152e-05
-0.01143147812265157,-8.713686013111141e-05,-1.1476357920016215e-05
-0.012259345991879165,-9.305956615974409e-05,-1.1521407026588929e-05
-0.013062282973351408,-9.938997340105173e-05,-1.1569519411479128e-05
-0.013832686819312306,-0.00010611371584921766,-1.1620895333791695e-05
-0.014563516656920171,-0.00011321276671827578,-1.1675726954433569e-05
-0.015248460387976325,-0.00012066576097949991,-1.1734196586358013e-05
-0.015882091533885673,-0.0001284483989599654,-1.179647512634288e-05
-0.01646000708975101,-0.00013653392361587458,-1.186272070698684e-05
-0.0169789381335304,-0.00014489365992169492,-1.1933077602871231e-05
-0.01743682615671818,-0.00015349760099425707,-1.2007675418100218e-05
-0.017832859786432936,-0.00016231502248004485,-1.2086628573968794e-05
-0.01816746850827029,-0.00017131510455372067,-1.2170036105727236e-05
-0.018442272240399255,-0.00018046753974088807,-1.2257981766800889e-05
-0.018659988554905006,-0.00018974310493971415,-1.235053442797104e-05
-0.01882430296246374,-0.00019911417781905635,-1.2447748748660732e-05
-0.018939710967909532,-0.00020855518130164966,-1.2549666088440909e-05
-0.01901134239073465,-0.0002180429446413107,-1.2656315619926648e-05
-0.019044778324551367,-0.0002275569748201322,-1.276771559979201e-05
-0.019045869471788015,-0.00023707963676921706,-1.2883874752689348e-05
-0.019020562225735563,-0.000246596244693598,-1.3004793723055051e-05
-0.01897473669196684,-0.00025609506942302356,-1.3130466551584206e-05
-0.018914059506857282,-0.0002655672684727296,-1.3260882136058145e-05
-0.018843853938468078,-0.0002750067468340609,-1.3396025639884842e-05
-0.01876899013097882,-0.00028440995785142264,-1.3535879816056213e-05
-0.018693799106494515,-0.000293775655160791,-1.3680426219309266e-05
-0.018622014348256208,-0.0003031046085244787,-1.3829646285230584e-05
-0.018556743342399287,-0.0003123992979471426,-1.398352226184849e-05
-0.01850046855567393,-0.0003216636009216609,-1.4142037986565692e-05
-0.018455074646912564,-0.0003309024867223075,-1.4305179508476684e-05
-0.018421897413656196,-0.00034012172973744964,-1.4472935562591624e-05
-0.018401789759430152,-0.0003493276515307212,-1.4645297907908667e-05
-0.01839520011282264,-0.0003585268989987844,-1.4822261545541043e-05
-0.018402258579085305,-0.00036772626367176137,-1.500382483620868e-05
-0.01842286483380951,-0.00037693254452498507,-1.5189989538257868e-05
-0.018456769344073396,-0.00038615245306945577,-1.5380760787656477e-05
-0.01850363764030901,-0.00039539255481555136,-1.557614703962773e-05
-0.018563088162747137,-0.0004046592362663154,-1.5776159987398197e-05
-0.018634697894574278,-0.00041395868278064574,-1.5980814467159937e-05
-0.018717974909736482,-0.00042329685098172344,-1.619012835060053e-05
-0.018812301511220722,-0.0004326794200869627,-1.64041224183677e-05
-0.01891685526687941,-0.00044211170928148773,-1.6622820200709814e-05
-0.019030517845495854,-0.00045159855255958153,-1.6846247766170083e-05
-0.01915178299504311,-0.0004611441277697163,-1.7074433436252407e-05
-0.019278675477002242,-0.0004707517423877276,-1.730740740379177e-05
-0.01940869265169536,-0.000480423584419902,-1.7545201235493678e-05
-0.01953877940267594,-0.0004901604524334949,-1.7787847244707027e-05
-0.019665344224789685,-0.0004999614833403613,-1.803537772865049e-05
-0.019784319485517798,-0.0005098238992679382,-1.8287824074302567e-05
-0.019891263606620014,-0.0005197427950409726,-1.8545215747879797e-05
-0.019981498707068265,-0.0005297109856193947,-1.880757919304489e-05
-0.020050274086741118,-0.000539718928817847,-1.90749366716542e-05
-0.020092942933386815,-0.0005497547330728789,-1.9347305087126884e-05
-0.0201051366826177,-0.00055980425297688,-1.9624694833639322e-05
-0.020082920012744244,-0.0005698512671507205,-1.990710871367122e-05
-0.020022911608195734,-0.0005798777250559555,-2.019454096172289e-05
-0.019922361953703397,-0.0005898640434464303,-2.0486976403848487e-05
-0.019779187162065764,-0.0005997894307253726,-2.078438977239144e-05
-0.019591964045101107,-0.0006096322185271643,-2.1086745184704573e-05
-0.01935989473074535,-0.0006193701832211259,-2.1393995785141644e-05
-0.019082749410236622,-0.0006289808442563714,-2.170608354201102e-05
-0.018760794679936174,-0.0006384417302789146,-2.202293918564484e-05
-0.018394713920790565,-0.0006477306074290963,-2.2344482270071844e-05
-0.017985525619117967,-0.0006568256673140735,-2.2670621338757637e-05
-0.017534504812948857,-0.0006657056749220902,-2.3001254174316677e-05
-0.017043111730910623,-0.000674350079058055,-2.3336268112811715e-05
-0.016512930828765263,-0.000682739089697974,-2.3675540405000723e-05
-0.01594562296771224,-0.0006908537281470934,-2.401893860946199e-05
-0.015342892447638855,-0.0006986758570009311,-2.4366321005748997e-05
-0.014706468493898884,-0.0007061881972363156,-2.471753701930831e-05
-0.014038098766429816,-0.0007133743390513978,-2.5072427653380237e-05
-0.013339551890895689,-0.0007202187517157292,-2.543082592607202e-05
-0.01261262658631388,-0.0007267067963350316,-2.579255731308471e-05
-0.011859165451490577,-0.0007328247443444827,-2.6157440198254588e-05
-0.011081071678247732,-0.0007385598036269174,-2.6525286335247438e-05
-0.010280327729566233,-0.0007439001534788708,-2.6895901324523886e-05
-0.009459016623725358,-0.0007488349895671937,-2.7269085110285403e-05
-0.008619347792543707,-0.000753354580671261,-2.7644632502845016e-05
-0.007763689061862249,-0.0007574503398848624,-2.802233373298405e-05
-0.006894603873109884,-0.0007611149131186055,-2.8401975046234916e-05
-0.006014889739520271,-0.000764342286521763,-2.8783339346145007e-05
-0.005127611876759697,-0.000767127911925833,-2.9166206895756907e-05
-0.0042361258527149875,-0.0007694688463582017,-2.9550356085327914e-05
-0.003344084645536112,-0.0007713638989827645,-2.9935564271663155e-05
-0.002455427685815312,-0.0007728137770656023,-3.0321608690675246e-05
-0.0015743511849234568,-0.000773821221783287,-3.070826744038747e-05
-0.0007052596412615748,-0.0007743911244898333,-3.1095320526955746e-05
0.00014730181710543433,-0.0007745306139458724,-3.1482550961564676e-05
0.0009787344057927473,-0.0007742491048901479,-3.186974589127368e-05
0.0017844903213035392,-0.0007735582987083738,-3.2256697742173315e-05
0.0025601899074450987,-0.0007724721286511867,-3.2643205349013204e-05
0.0033017422725305895,-0.0007710066456061927,-3.302907504257755e-05
0.004005457671999587,-0.0007691798456200601,-3.3414121665384116e-05
0.00466814025243289,-0.000767011446138952,-3.379816948832387e-05
0.005287153314854862,-0.00076452262274713,-3.418105300554539e-05
0.005860454707261714,-0.0007617357207416009,-3.4562617591417574e-05
0.006386604956670656,-0.0007586739558256178,-3.494272001055938e-05
0.006864753566327734,-0.0007553611161948683,-3.53212287785645e-05
0.007294608954858358,-0.0007518212755645718,-3.5698024376504365e-05
0.0076763954867455995,-0.0007480785244541707,-3.607299932650905e-05
0.008010799012687008,-0.0007441567258293126,-3.6446058139079925e-05
0.008298902404961353,-0.0007400793004749005,-3.681711714565598e-05
0.008542114674095535,-0.0007358690462051363,-3.718610423232599e-05
0.008742099226961359,-0.0007315479927298721,-3.7552958492059745e-05
0.008900707007266268,-0.0007271372911713151,-3.791762981303504e-05
0.009019919172100993,-0.0007226571346264733,-3.828007841948449e-05
0.009101803019338826,-0.0007181267040786134,-3.864027437916076e-05
0.009148484331120003,-0.0007135641322409986,-3.899819708824066e-05
0.00916213826941907,-0.0007089864765908639,-3.9353834740448625e-05
0.009144998996732238,-0.000704409692274326,-3.970718378266492e-05
0.009099385794257654,-0.0006998485960765785,-4.0058248354752645e-05
0.009027741361949311,-0.0006953168142875267,-4.040703970734367e-05
0.008932676730296829,-0.0006908267097644652,-4.075357558835667e-05
0.008817017010037245,-0.0006863892863293817,-4.109787958738013e-05
0.008683842676286161,-0.0006820140714078008,-4.143998042681442e-05
0.00853652129490861,-0.0006777089804150021,-4.177991118977012e-05
0.008378724028512313,-0.0006734801690841468,-4.211770847714491e-05
0.008214420518699675,-0.0006693318829473438,-4.245341149015278e-05
0.008047845905272098,-0.0006652663163413509,-4.278706103997495e-05
0.007883435357346369,-0.0006612834960256962,-4.3118698493066714e-05
0.007725724560656498,-0.0006573812060461955,-4.3448364668584685e-05
0.007579218809302025,-0.0006535549702037059,-4.377609871264716e-05
0.0074482377274963235,-0.0006497981060695063,-4.4101936981715466e-05
0.007336745774799807,-0.0006461018601939323,-4.4425911973281325e-05
0.007248179800080085,-0.0006424556288002123,-4.4748051345529864e-05
0.00718528445894017,-0.0006388472627354572,-4.506837706841378e-05
0.007149965340305454,-0.0006352634502856457,-4.538690474666906e-05
0.007143168993128672,-0.0006316901667022872,-4.570364315091604e-05
0.0071647986946828226,-0.0006281131747803343,-4.6018593986286696e-05
0.00721367382126788,-0.0006245185566513467,-4.633175191914462e-05
0.007287538471536146,-0.0006208932535781456,-4.6643104871701994e-05
0.007383122216783288,-0.0006172255884060657,-4.695263458219805e-05
0.007496253285878077,-0.0006135057445304004,-4.7260317415432166e-05
0.0076220220059635534,-0.00060972617570744,-4.756612539549162e-05
0.007754989544964155,-0.0006058819228197081,-4.787002742012341e-05
0.007889433775835874,-0.0006019708169895081,-4.8171990605075714e-05
0.00801962033807316,-0.0005979935534610308,-4.847198169768835e-05
0.00814008326910176,-0.000593953627559237,-4.8769968492943415e-05
0.008245897309579602,-0.0005898571324145667,-4.906592118293687e-05
0.008332924285906916,-0.000585712427015695,-4.935981357279443e-05
0.008398018637359663,-0.0005815296912848783,-4.965162410236958e-05
0.00843918094152563,-0.000577320391390157,-4.994133662303834e-05
0.00845565217565824,-0.0005730966831108611,-5.022894089166359e-05
0.008447945330680436,-0.0005688707837342764,-5.0514432758374876e-05
0.00841781504840855,-0.0005646543436395042,-5.079781404021832e-05
0.008368169692669354,-0.0005604578474542347,-5.1079092087991756e-05
0.008302932858630456,-0.0005562900718164098,-5.1358279067809414e-05
0.008226862810110765,-0.0005521576228992244,-5.163539099148832e-05
0.00814533954448156,-0.0005480645723105763,-5.191044654029077e-05
0.008064130300994109,-0.0005440122048492074,-5.2183465734580715e-05
0.007989144675241124,-0.0005399988861051487,-5.24544685073193e-05
0.007926189782192205,-0.0005360200524907904,-5.272347324196829e-05
0.007880734522867382,-0.0005320683214145254,-5.299049533544462e-05
0.007857690387856716,-0.0005281337151868444,-5.325554584459496e-05
0.007861214588438789,-0.0005242039889427706,-5.351863027062736e-05
0.007894539788038507,-0.0005202650503486513,-5.3779747530450214e-05
0.007959833613601412,-0.0005163014569982413,-5.4038889157286936e-05
0.008058090979441409,-0.0005122969758499806,-5.429603876549899e-05
0.008189063354283837,-0.0005082351872665493,-5.455117180627813e-05
0.008351231003486368,-0.0005041001136771067,-5.480425563151404e-05
