frame_number,force
0,825.8659813270899
1,825.8941419475022
2,825.9236896390048
3,825.954657319671
4,825.9870748917294
5,826.0209689800594
6,826.0563626711098
7,826.0932752545847
8,826.131721970182
9,826.171713761532
10,826.2132570391893
11,826.2563534542192
12,826.3009996837907
13,826.3471872303855
14,826.394902236676
15,826.4441253185138
16,826.4948314185885
17,826.5469896833099
18,826.6005633655825
19,826.6555097562974
20,826.7117801473007
21,826.7693198283471
22,826.8280681203674
23,826.8879584472431
24,826.9489184478325
25,827.0108701291866
26,827.0737300610276
27,827.1374096109859
28,827.2018152198598
29,827.2668487161787
30,827.3324076692949
31,827.398385779873
32,827.4646733060299
33,827.531157522703
34,827.5977232112756
35,827.6642531760465
36,827.7306287836833
37,827.7967305212031
38,827.862438567374
39,827.9276333718379
40,827.9921962357022
41,828.0560098868767
42,828.1189590432004
43,828.1809309565128
44,828.2418159312791
45,828.3015078121463
46,828.3599044357784
47,828.4169080432009
48,828.4724256494293
49,828.5263693673578
50,828.5786566829578
51,828.6292106789666
52,828.6779602046777
53,828.7248399904792
54,828.769790707629
55,828.812758976096
56,828.853697325439
57,828.8925641149418
58,828.929323419401
59,828.963944886329
60,828.9964035694735
61,829.0266797431308
62,829.0547587019316
63,829.0806305512053
64,829.1042899931482
65,829.1257361135783
66,829.1449721730465
67,829.1620054047861
68,829.1768468208173
69,829.1895110267293
70,829.2000160451478
71,829.208383147377
72,829.2146366920866
73,829.2188039695267
74,829.2209150498966
75,829.221002634941
76,829.2191019121103
77,829.2152504105359
78,829.209487857754
79,829.2018560357998
80,829.1923986351607
81,829.1811611052344
82,829.1681905002657
83,829.1535353200968
84,829.1372453453213
85,829.1193714664279
86,829.0999655063491
87,829.0790800358875
88,829.0567681820623
89,829.0330834304633
90,829.0080794239275
91,828.9818097609394
92,828.9543277978081
93,828.9256864588633
94,828.8959380587534
95,828.8651341404924
96,828.8333253322021
97,828.8005612245527
98,828.7668902698649
99,828.7323597029518
100,828.6970154832244
101,828.6609022574046
102,828.6240633422483
103,828.5865407268581
104,828.5483750941844
105,828.5096058610186
106,828.4702712352165
107,828.4304082884149
108,828.3900530424604
109,828.3492405681021
110,828.308005094901
111,828.2663801316097
112,828.2243985965557
113,828.1820929577013
114,828.1394953816797
115,828.0966378898013
116,828.0535525170328
117,828.010271468217
118,827.9668272653562
119,827.9232528806593
120,827.8795818513736
121,827.8358483734482
122,827.7920873718906
123,827.7483345467026
124,827.7046263944967
125,827.6610002068697
126,827.6174940469668
127,827.5741467053359
128,827.53099763553
129,827.4880868696418
130,827.4454549144593
131,827.4031426299591
132,827.3611910928768
133,827.3196414488598
134,827.2785347572382
135,827.2379118324934
136,827.197813085822
137,827.1582783691232
138,827.1193468231229
139,827.0810567316852
140,827.0434453853687
141,827.0065489582014
142,826.9704024019794
143,826.9350393621045
144,826.9004921183245
145,826.8667915529045
146,826.833967147828
147,826.8020470115875
148,826.7710579348474
149,826.7410254727688
150,826.7119740504057
151,826.6839270867
152,826.6569071323661
153,826.6309360172326
154,826.6060350031472
155,826.5822249390685
156,826.5595264152365
157,826.5379599133098
158,826.5175459491478
159,826.4983052046247
160,826.480258644782
161,826.463427617131
162,826.4478339309305
163,826.4334999152442
164,826.420448455143
165,826.4087030056652
166,826.3982875832982
167,826.3892267350222
168,826.3815454856298
169,826.3752692650844
170,826.3704238185823
171,826.3670351020166
172,826.3651291646514
173,826.3647320195216
174,826.3658695009116
175,826.3685671073889
176,826.3728498283349
177,826.3787419517375
178,826.386266851144
179,826.3954467499707
180,826.4063024619479
181,826.4188531076293
182,826.4331158086574
183,826.449105363367
184,826.4668339088088
185,826.4863105754076
186,826.5075411415157
187,826.530527696116
188,826.5552683184002
189,826.5817567822005
190,826.6099822911849
191,826.6399292480946
192,826.6715770591373
193,826.7048999734681
194,826.7398669573981
195,826.7764416031079
196,826.8145820717191
197,826.8542410704914
198,826.8953658638508
199,826.9378983180234
200,826.981774979016
201,827.0269271835139
202,827.0732812022816
203,827.1207584160148
204,827.1692755239274
205,827.2187447852224
206,827.2690742930968
207,827.3201682804635
208,827.3719274562177
209,827.4242493703376
210,827.4770288053306
211,827.5301581908532
212,827.5835280382485
213,827.6370273923284
214,827.6905442985691
215,827.7439662844031
216,827.7971808531938
217,827.8500759888811
218,827.902540668504
219,827.954465379209
220,828.0057426361517
221,828.0562674978081
222,828.1059380752048
223,828.1546560310835
224,828.2023270640066
225,828.2488613712765
226,828.2941740838796
227,828.3381856669666
228,828.3808222807781
229,828.422016098962
230,828.4617055831353
231,828.4998357137605
232,828.5363581777294
233,828.5712315127178
234,828.6044212080299
235,828.635899762013
236,828.665646697136
237,828.6936485347945
238,828.7198987322879
239,828.7443975843677
240,828.767152091751
241,828.7881757990892
242,828.8074886048165
243,828.8251165449019
244,828.8410915519672
245,828.855451190746
246,828.8682383706213
247,828.8795010360562
248,828.889291835989
249,828.8976677734261
250,828.904689836328
251,828.9104226106668
252,828.9149338765787
253,828.918294189025
254,828.9205764453085
255,828.9218554430632
256,828.9222074336478
257,828.9217096767351
258,828.9204400020966
259,828.9184763842371
260,828.9158965350196
261,828.9127775189897
262,828.9091953957744
263,828.9052248933717
264,828.9009391152068
265,828.8964092826933
266,828.891704513986
267,828.8868916385942
268,828.882035046423
269,828.8771965685894
270,828.8724353859843
271,828.8678079602084
272,828.8633679806638
273,828.8591663215917
274,828.8552510036451
275,828.851667155779
276,828.8484569744737
277,828.8456596785645
278,828.8433114592711
279,828.8414454262552
280,828.8400915513979
281,828.8392766124973
282,828.8390241395019
283,828.8393543662796
284,828.8402841910511
285,828.8418271483913
286,828.8439933952459
287,828.846789712872
288,828.8502195260558
289,828.8542829404356
290,828.858976798363
291,828.8642947536405
292,828.8702273657891
293,828.8767622150581
294,828.8838840398041
295,828.8915748975132
296,828.8998143492521
297,828.9085796650907
298,828.9178460460182
299,828.9275868568164
300,828.9377738642742
301,828.9483774756893
302,828.9593669735066
303,828.9707107427279
304,828.9823764880547
305,828.9943314377223
306,829.0065425310814
307,829.0189765873441
308,829.0316004533851
309,829.0443811288458
310,829.0572858669897
311,829.0702822500115
312,829.0833382382103
313,829.096422193816
314,829.1095028820704
315,829.1225494540561
316,829.1355314173956
317,829.1484186019293
318,829.161181127406
319,829.1737893791916
320,829.18621399671
321,829.1984258783647
322,829.2103962059597
323,829.2220964906911
324,829.2334986413482
325,829.2445750536895
326,829.255298718568
327,829.265643345659
328,829.2755834994995
329,829.2850947443212
330,829.2941537931683
331,829.3027386553115
332,829.3108287750517
333,829.3184051554315
334,829.3254504618661
335,829.3319491023203
336,829.337887281683
337,829.3432530284517
338,829.3480361921773
339,829.3522284107335
340,829.3558230472613
341,829.3588150972772
342,829.3612010668296
343,829.3629788231003
344,829.3641474198104
345,829.3647069012198
346,829.364658090089
347,829.3640023662861
348,829.3627414433794
349,829.3608771503721
350,829.3584112250373
351,829.355345124654
352,829.351679859523
353,829.3474158541903
354,829.3425528404267
355,829.3370897846615
356,829.3310248511322
357,829.3243554010179
358,829.3170780275814
359,829.3091886276026
360,829.3006825095473
361,829.2915545384067
362,829.2817993158307
363,829.2714113923274
364,829.260385506444
365,829.2487168446181
366,829.2364013153239
367,829.2234358321366
368,829.209818601669
369,829.1955494131445
370,829.180629926326
371,829.165063953856
372,829.1488577334283
373,829.1320201851232
374,829.1145631497702
375,829.0965016048906
376,829.0778538550063
377,829.0586416925925
378,829.0388905251456
379,829.0186294634408
380,828.9978913664161
381,828.9767128391029
382,828.9551341813373
383,828.9331992863848
384,828.9109554897304
385,828.8884533688255
386,828.8657464945709
387,828.8428911350422
388,828.8199459118644
389,828.796971410096
390,828.774029743594
391,828.7511840792824
392,828.7284981251764
393,828.7060355883115
394,828.6838596099228
395,828.6620321862625
396,828.6406135842724
397,828.6196617618925
398,828.599231802863
399,828.5793753752641
400,828.560140221826
401,828.5415696885874
402,828.5237022970697
403,828.5065713638036
404,828.4902046698954
405,828.4746241826673
406,828.459845831478
407,828.4458793404609
408,828.4327281215462
409,828.420389231186
410,828.408853393399
411,828.3981050900575
412,828.3881227170523
413,828.3788788028066
414,828.3703402842208
415,828.3624688346666
416,828.3552212387514
417,828.3485498087365
418,828.3424028372723
419,828.3367250804121
420,828.3314582641128
421,828.3265416072193
422,828.3219123545423
423,828.3175063148661
424,828.3132584000389
425,828.3091031621323
426,828.30497532568
427,828.3008103113636
428,828.2965447466861
429,828.2921169585876
430,828.2874674427542
431,828.2825393045244
432,828.2772786668706
433,828.2716350418638
434,828.2655616631824
435,828.2590157783781
436,828.2519589005932
437,828.2443570201416
438,828.2361807767281
439,828.2274055932107
440,828.2180117717952
441,828.2079845534703
442,828.1973141413055
443,828.185995687963
444,828.1740292474674
445,828.161419690987
446,828.148176586293
447,828.1343140408812
448,828.1198505093975
449,828.104808566674
450,828.0892146480815
451,828.0730987589512
452,828.0564941548993
453,828.0394369954798
454,828.0219659748246
455,828.004121934191
456,827.985947462022
457,827.9674864871454
458,827.9487838703895
459,827.9298849995934
460,827.9108353929175
461,827.8916803154425
462,827.8724644138373
463,827.8532313730111
464,827.8340235972033
465,827.814881916566
466,827.7958453195347
467,827.776950711119
468,827.7582326972993
469,827.7397233957785
470,827.7214522733964
471,827.7034460104029
472,827.6857283914227
473,827.6683202226359
474,827.651239274762
475,827.6345002517016
476,827.6181147847302
477,827.6020914517458
478,827.586435820376
479,827.5711505130598
480,827.5562352917623
481,827.5416871599546
482,827.5275004799894
483,827.5136671048813
484,827.5001765243088
485,827.4870160249329
486,827.4741708647606
487,827.4616244605298
488,827.4493585863688
489,827.4373535816723
490,827.4255885663499
491,827.4140416620623
492,827.4026902183224
493,827.3915110423017
494,827.380480631246
495,827.3695754069014
496,827.358771952032
497,827.3480472494186
498,827.3373789236109
499,827.326745485519
500,827.3161265799179
501,827.3055032359894
502,827.2948581209534
503,827.2841757965043
504,827.2734429771228
505,827.2626487883551
506,827.2517850218562
507,827.2408463826728
508,827.2298307235237
509,827.2187392612858
510,827.2075767722059
511,827.1963517634834
512,827.1850766191084
513,827.173767717311
514,827.1624455162772
515,827.1511346044884
516,827.1398637123414
517,827.1286656822432
518,827.1175773947191
519,827.1066396481883
520,827.0958969902113
521,827.0853974983921
522,827.075192510057
523,827.0653363015679
524,827.0558857204711
525,827.0468997758235
526,827.0384391932831
527,827.030565941826
528,827.0233427386444
529,827.01683253835
530,827.0110980123076
531,827.0062010239201
532,827.0022021059082
533,826.9991599457985
534,826.9971308857417
535,826.9961684424388
536,826.9963228524349
537,826.9976406472157
538,827.0001642614733
539,827.00393167706
540,827.0089761048546
541,827.0153257067038
542,827.0230033591107
543,827.0320264592447
544,827.0424067725901
545,827.0541503206831
546,827.0672573071023
547,827.0817220801183
548,827.0975331310894
549,827.1146731286447
550,827.1331189895598
551,827.1528419876041
552,827.1738079013965
553,827.1959772015767
554,827.2193052765599
555,827.2437426950706
556,827.2692355029307
557,827.2957255513427
558,827.3231508539045
559,827.3514459692905
560,827.3805424059066
561,827.4103690443106
562,827.4408525732833
563,827.4719179361069
564,827.5034887843855
565,827.5354879373187
566,827.5678378447307
567,827.6004610522945
568,827.6332806671686
569,827.6662208218227
570,827.6992071334913
571,827.7321671564065
572,827.7650308234003
573,827.7977308725298
574,827.8302032534409
575,827.8623875077786
576,827.8942271182058
577,827.9256698212198
578,827.9566678796863
579,827.9871783118737
580,828.0171630748646
581,828.0465892014379
582,828.0754288906945
583,828.1036595537843
584,828.1312638169693
585,828.158229484751
586,828.184549465886
587,828.2102216650989
588,828.2352488432779
589,828.2596384487234
590,828.2834024215064
591,828.3065569724735
592,828.3291223382739
593,828.3511225141083
594,828.3725849666613
595,828.3935403304828
596,828.4140220914302
597,828.4340662604031
598,828.4537110398246
599,828.4729964847041
600,828.4919641598021
601,828.5106567941656
602,828.5291179339445
603,828.5473915940285
604,828.5655219087607
605,828.5835527819344
606,828.6015275367814
607,828.6194885678616
608,828.6374769981186
609,828.6555323448766
610,828.6736921978223
611,828.6919919108153
612,828.710464308801
613,828.7291394115348
614,828.7480441767198
615,828.7672022658138
616,828.7866338359305
617,828.806355361182
618,828.8263794868334
619,828.8467149198835
620,828.8673663598862
621,828.8883344734969
622,828.9096159151089
623,828.9312033943172
624,828.953085789392
625,828.9752483049115
626,828.9976726711374
627,829.0203373824025
628,829.0432179715899
629,829.066287317839
630,829.0895159848758
631,829.1128725874312
632,829.1363241827179
633,829.1598366829852
634,829.1833752841968
635,829.2069049050498
636,829.230390629991
637,829.2537981498627
638,829.2770941944987
639,829.3002469527776
640,829.3232264769449
641,829.346005069143
642,829.3685576488402
643,829.3908621001104
644,829.4128995974335
645,829.4346549079881
646,829.4561166675066
647,829.4772776260094
648,829.4981348593622
649,829.5186899425798
650,829.5389490811389
651,829.5589231972899
652,829.5786279694975
653,829.5980838244154
654,829.6173158819739
655,829.6363538551424
656,829.6552319069466
657,829.6739884683969
658,829.6926660217583
659,829.7113108536158
660,829.7299727814456
661,829.7487048563022
662,829.7675630432007
663,829.7866058800718
664,829.8058941158221
665,829.8254903277261
666,829.8454585178592
667,829.8658636876575
668,829.8867713894499
669,829.9082472545638
670,829.9303564995379
671,829.953163414458
672,829.9767308394768
673,830.001119636741
674,830.0263881654353
675,830.0525917677683
676,830.0797822734817
677,830.1080075297657
678,830.1373109625241
679,830.1677311742245
680,830.1993015831712
681,830.2320501085153
682,830.2659989043686
683,830.3011641452138
684,830.3375558636708
685,830.3751778405489
686,830.4140275458809
687,830.4540961285246
688,830.4953684511813
689,830.5378231672935
690,830.5814328360381
691,830.6261640715408
692,830.671977722623
693,830.7188290800192
694,830.7666681088746
695,830.8154397050542
696,830.8650839741206
697,830.9155365317116
698,830.9667288234625
699,831.0185884616059
700,831.0710395743876
701,831.1240031641344
702,831.1773974705162
703,831.2311383369582
704,831.2851395794988
705,831.3393133579533
706,831.3935705488708
707,831.4478211190348
708,831.5019744978362
709,831.555939947028
710,831.6096269269757
711,831.6629454592593
712,831.7158064860764
713,831.7681222270932
714,831.8198065342668
715,831.8707752450468
716,831.9209465344309
717,831.9702412665122
718,832.0185833461416
719,832.0659000709552
720,832.1121224833109
721,832.1571857208802
722,832.2010293639942
723,832.2435977772399
724,832.2848404419121
725,832.3247122746857
726,832.3631739267119
727,832.4001920568426
728,832.4357395729993
729,832.4697958364794
730,832.5023468246418
731,832.5333852477462
732,832.5629106159741
733,832.5909292529851
734,832.6174542528413
735,832.6425053779858
736,832.6661088974045
737,832.6882973660777
738,832.7091093488426
739,832.7285890932477
740,832.7467861565901
741,832.7637549922915
742,832.7795545005318
743,832.7942475479533
744,832.8079004610399
745,832.8205824971807
746,832.8323652966084
747,832.8433223177447
748,832.8535282579873
749,832.8630584615441
750,832.8719883158622
751,832.8803926390866
752,832.8883450626515
753,832.8959174147399
754,832.9031791114156
755,832.9101965628842
756,832.9170326027037
757,832.9237459475357
758,832.9303906939296
759,832.9370158568158
760,832.9436649522535
761,832.9503756250202
762,832.9571793205482
763,832.9641010009399
764,832.9711589060802
765,832.9783643622799
766,832.9857216416574
767,832.9932278753209
768,833.0008730226017
769,833.0086398976601
770,833.0165042542963
771,833.0244349297908
772,833.03239404868
773,833.0403372870747
774,833.0482141973387
775,833.0559685917077
776,833.0635389820375
777,833.0708590716249
778,833.0778582941684
779,833.084462394395
780,833.0905940443596
781,833.0961734885473
782,833.1011192097258
783,833.1053486065598
784,833.1087786738375
785,833.1113266766713
786,833.1129108108112
787,833.1134508419877
788,833.1128687179449
789,833.1110891474716
790,833.1080401413449
791,833.1036535108003
792,833.0978653199713
793,833.0906162895283
794,833.0818521493721
795,833.0715239389216
796,833.0595882544703
797,833.0460074441187
798,833.0307497516286
799,833.0137894112896
800,832.9951066966706
801,832.9746879268158
802,832.9525254336071
803,832.9286174936052
804,832.9029682271719
805,832.8755874676193
806,832.8464906033807
807,832.8156983960748
808,832.7832367765812
809,832.7491366203133
810,832.7134335021246
811,832.6761674306736
812,832.6373825616824
813,832.5971268897318
814,832.5554519190541
815,832.5124123149444
816,832.4680655385606
817,832.4224714687562
818,832.37569201479
819,832.327790723184
820,832.2788323812046
821,832.2288826191945
822,832.1780075144563
823,832.1262732001912
824,832.0737454835735
825,832.0204894772303
826,831.9665692484782
827,831.9120474910281
828,831.8569852244487
829,831.8014415270421
830,831.7454733075571
831,831.6891351202372
832,831.6324790260157
833,831.5755545002111
834,831.5184083843342
835,831.4610848775521
836,831.4036255626198
837,831.3460694615549
838,831.2884531173261
839,831.2308106987168
840,831.1731741258122
841,831.115573213126
842,831.0580358266293
843,831.0005880505039
844,830.9432543594514
845,830.8860577924414
846,830.82902012354
847,830.7721620251112
848,830.7155032187269
849,830.6590626097632
850,830.6028584027282
851,830.5469081954234
852,830.4912290509395
853,830.4358375473175
854,830.3807498057222
855,830.325981499249
856,830.2715478458928
857,830.2174635905372
858,830.1637429818736
859,830.110399750669
860,830.0574470955524
861,830.0048976813542
862,829.9527636531844
863,829.9010566673788
864,829.8497879387484
865,829.7989683024779
866,829.7486082883929
867,829.6987182048892
868,829.6493082294899
869,829.6003885026946
870,829.5519692214295
871,829.504060727985
872,829.4566735901471
873,829.4098186686099
874,829.363507168705
875,829.3177506746172
876,829.2725611651874
877,829.2279510108984
878,829.183932951576
879,829.1405200540149
880,829.0977256486947
881,829.0555632453469
882,829.0140464282476
883,828.9731887333803
884,828.9330035106631
885,828.8935037749609
886,828.8547020494717
887,828.8166102045136
888,828.7792392941818
889,828.7425993930441
890,828.7066994348767
891,828.6715470552563
892,828.6371484397915
893,828.6035081800895
894,828.5706291398856
895,828.5385123335101
896,828.507156817909
897,828.4765595984162
898,828.4467155481098
899,828.4176173409347
900,828.3892553994225
901,828.3616178584339
902,828.334690546654
903,828.3084569873065
904,828.2828984187043
905,828.2579938341613
906,828.2337200398982
907,828.2100517290586
908,828.1869615698288
909,828.1644203058974
910,828.1423968679425
911,828.1208584952526
912,828.09977086679
913,828.0790982409368
914,828.0588036029818
915,828.0388488193819
916,828.0191947982754
917,827.9998016566451
