acceleration,velocity,displacement
-0.027118406677702944,0.0,0.0
-0.026784827112353016,-1.347580844751399e-05,-3.3689521118784975e-09
-0.02643481685177655,-2.678071943854638e-05,-1.343308408339359e-08
-0.02606798596150242,-3.990642014186612e-05,-3.010486897849672e-08
-0.02568398023156436,-5.2844411690132815e-05,-5.329257693649645e-08
-0.025282484274178525,-6.558602781656854e-05,-8.29001868131718e-08
-0.024863224616406044,-7.812245503921468e-05,-1.188273075271176e-07
-0.024425972760047904,-9.044475438332816e-05,-1.6096910988275332e-07
-0.02397054818167275,-0.00010254388461875833,-2.0921626963327495e-07
-0.023496821247365608,-0.00011441072697601791,-2.63454922531969e-07
-0.02300471602023568,-0.00012603611129291824,-3.2356663209920306e-07
-0.022494212942416752,-0.00013741084353358134,-3.8942837080582795e-07
-0.021965351374847786,-0.00014852573461289747,-4.6091251534244767e-07
-0.021418231975768597,-0.00015937163045055158,-5.3788685660831e-07
-0.020853018893600025,-0.00016993944316789374,-6.202146250129213e-07
-0.02026994174529109,-0.00018022018332761652,-7.077545316367989e-07
-0.019669297349824595,-0.00019020499310139544,-8.003608257440519e-07
-0.01905145118662236,-0.00019988518023550717,-8.978833690782775e-07
-0.01841683854723392,-0.00020925225266897124,-1.000167727304397e-06
-0.017765965346862242,-0.0002182979536424953,-1.1070552788822637e-06
-0.01709940856302353,-0.00022701429711996675,-1.2183833415728792e-06
-0.016417816271633127,-0.00023539360332863093,-1.3339853166850285e-06
-0.01572190725293054,-0.00024342853420977184,-1.4536908510696292e-06
-0.015012470141271404,-0.0002511121285583223,-1.5773260167616527e-06
-0.0142903620981039,-0.0002584378366181661,-1.7047135080557748e-06
-0.013556506997036939,-0.00026539955389195133,-1.8356728556833042e-06
-0.01281189312012613,-0.0002719916539212421,-1.9700206576366025e-06
-0.012057570371347404,-0.0002782090197941105,-2.1075708260654407e-06
-0.011294647015978074,-0.00028404707414094187,-2.2481348495492037e-06
-0.01052428595440993,-0.0002895018073835389,-2.391522069930324e-06
-0.009747700539562584,-0.000294569804007032,-2.5375399727779667e-06
-0.008966149951293948,-0.0002992482666297462,-2.6859944904371612e-06
-0.008180934148525318,-0.000303535037654701,-2.836690316508273e-06
-0.007393388427738594,-0.00030742861829876695,-2.98943123049664e-06
-0.006604877623071014,-0.0003109281848114693,-3.1440204312741994e-06
-0.005816789988421514,-0.00031403360171434243,-3.3002608779056525e-06
-0.005030530807298279,-0.0003167454319132724,-3.457955636312556e-06
-0.004247515783201712,-0.0003190649435608974,-3.6169082301810987e-06
-0.0034691642710280575,-0.00032099411357445486,-3.7769229944649368e-06
-0.002696892417009904,-0.00032253562774646434,-3.9378054297951665e-06
-0.0019321062812561345,-0.00032369287742103084,-4.0993625560870405e-06
-0.0011761950225371957,-0.00032446995274697916,-4.261403263629043e-06
-0.0004305242277128743,-0.00032487163255954165,-4.423738659955674e-06
0.0003035705331253715,-0.00032490337098318853,-4.586182410841356e-06
0.001024789850082617,-0.00032457128088738654,-4.748551073809e-06
0.001731876248856001,-0.0003238821143626519,-4.91066442262151e-06
0.0024236195429977866,-0.00032284324041468844,-5.072345761315845e-06
0.0030988617183816563,-0.00032146262009934357,-5.233422226444353e-06
0.003756501311677443,-0.00031974877934182877,-5.393725076304646e-06
0.004395497247011007,-0.00031771077970215665,-5.553089966065642e-06
0.00501487209585191,-0.0003153581873664409,-5.711357207832791e-06
0.00561371472674579,-0.0003127010406607915,-5.868372014839599e-06
0.006191182316578664,-0.0003097498163999604,-6.0239847291047875e-06
0.0067465017073583015,-0.0003065153953939762,-6.178051032053272e-06
0.007278970114284598,-0.00030300902743856544,-6.330432137761408e-06
0.007787955218632092,-0.0002992422961053363,-6.480994968647383e-06
0.008272894704340698,-0.0002952270836245931,-6.629612313579865e-06
0.008733295311963804,-0.00029097553612051697,-6.776162968516143e-06
0.009168731485759958,-0.00028650002942108604,-6.9205318599015434e-06
0.009578843682171666,-0.0002818131356291031,-7.062610151164091e-06
0.009963336397765922,-0.00027692759060911874,-7.202295332723646e-06
0.010321975969663694,-0.00027185626251726135,-7.339491296005241e-06
0.010654588203880024,-0.00026661212147387545,-7.474108392003025e-06
0.010961055892061304,-0.0002612082104498901,-7.606063474983966e-06
0.011241316278521629,-0.00025565761740724437,-7.73527993194825e-06
0.011495358534224022,-0.00024997344870405797,-7.861687698476076e-06
0.011723221282362768,-0.00024416880374991126,-7.985223261589569e-06
0.011924990204957174,-0.00023825675087808126,-8.105829650246567e-06
0.012100795746042016,-0.00023225030439033147,-8.22345641406367e-06
0.012250810917645375,-0.00022616240272440961,-8.338059590842356e-06
0.012375249208660299,-0.0002200058876928332,-8.449601663446666e-06
0.012474362590539351,-0.00021379348474303327,-8.558051506555633e-06
0.012548439606442172,-0.00020753778419378788,-8.663384323789839e-06
0.012597803525872526,-0.0002012512234107092,-8.765581575690963e-06
0.01262281054851261,-0.00019494606989211292,-8.864630899016669e-06
0.01262384804628852,-0.00018863440524341264,-8.960526017800551e-06
0.012601332835812988,-0.00018232811002288725,-9.053266646617126e-06
0.012555709472323982,-0.000176038849445853,-9.14285838648431e-06
0.012487448552495275,-0.0001697780599396482,-9.229312613830685e-06
0.012397045009780993,-0.00016355693654907912,-9.312646362952866e-06
0.01228501638440468,-0.0001573864212005327,-9.39288220239027e-06
0.012151901051947099,-0.00015127719184144476,-9.470048105650764e-06
0.011998256398369466,-0.0001452396524788656,-9.544177316730842e-06
0.011824656933610154,-0.0001392839241458707,-9.615308210887026e-06
0.011631692338881172,-0.00013341983682774788,-9.68348415113043e-06
0.011419965442773277,-0.00012765692238233427,-9.74875334093295e-06
0.011190090119236943,-0.00012200440849183172,-9.811168673651492e-06
0.010942689101194584,-0.00011647121368672384,-9.870787579196132e-06
0.010678391710293106,-0.00011106594348385191,-9.927671868488775e-06
0.010397831515661671,-0.00010579688767736322,-9.981887576279079e-06
0.010101643949120245,-0.00010067201881116774,-1.0033504802901212e-05
0.009790463917106244,-9.569899184461111e-05,-1.0082597555565157e-05
0.009464923457340907,-9.088514500099932e-05,-1.012924358977656e-05
0.00912564949049112,-8.623750176404131e-05,-1.017352425146782e-05
0.008773261715178246,-8.176277396262396e-05,-1.0215524320399485e-05
0.008408370689550549,-7.746736586144176e-05,-1.0255331855355501e-05
0.008031576134302509,-7.33573791554785e-05,-1.0293038041609731e-05
0.007643465480888555,-6.943861875168073e-05,-1.0328737041086522e-05
0.007244612676326892,-6.571659921237687e-05,-1.0362525845577536e-05
0.006835577245519954,-6.219655173191516e-05,-1.0394504133313609e-05
0.0064169036054623,-5.88834315191696e-05,-1.042477412912638e-05
0.005989120623554817,-5.578192546191532e-05,-1.045344046837165e-05
0.005552741412945649,-5.289645995279021e-05,-1.0480610064725326e-05
0.005108263359927247,-5.023120875957198e-05,-1.0506391981903417e-05
0.0046561683786316725,-4.7790100824932253e-05,-1.0530897309299544e-05
0.004196923384770306,-4.5576827884081756e-05,-1.0554239041476798e-05
0.0037309809734831613,-4.3594851794518386e-05,-1.0576531961396448e-05
0.0032587802807096428,-4.184741148097018e-05,-1.0597892527215321e-05
0.0027807480069888747,-4.033752940904555e-05,-1.0618438762437826e-05
0.002297299586536834,-3.906801751066412e-05,-1.0638290149167754e-05
0.0018088404891865029,-3.804148249173329e-05,-1.0657567524168353e-05
0.0013157676463621442,-3.726033045784613e-05,-1.0676392977405748e-05
0.0008184709955433803,-3.672677079736975e-05,-1.0694889752719552e-05
0.0003173351393635052,-3.644281926364303e-05,-1.0713182150234805e-05
-0.00018725888897108472,-3.641030020104493e-05,-1.0731395430100977e-05
-0.0006949317776878583,-3.663084786770966e-05,-1.0749655717118166e-05
-0.0012053040532486205,-3.710590682544378e-05,-1.0768089905791454e-05
-0.0017179942298314376,-3.78367313962138e-05,-1.0786825565346869e-05
-0.002232617064665035,-3.882438421983792e-05,-1.0805990844250882e-05
-0.0027487819820117888,-4.006973398150712e-05,-1.0825714373801219e-05
-0.0032660917129132315,-4.1573452405238376e-05,-1.0846125170397905e-05
-0.0037841411856864167,-4.3336010629888286e-05,-1.0867352536156688e-05
-0.004302516692515823,-4.535767509943885e-05,-1.0889525957589019e-05
-0.004820795345306039,-4.7638503108894315e-05,-1.0912775002141103e-05
-0.005338544819628998,-5.0178338150128076e-05,-1.0937229212455858e-05
-0.00585532337398567,-5.297680519853174e-05,-1.0963017998293023e-05
-0.006370680127422023,-5.603330607388366e-05,-1.0990270526111127e-05
-0.0068841555824579,-5.934701500135364e-05,-1.1019115606379937e-05
-0.00739528238791782,-6.291687449394757e-05,-1.1049681578753762e-05
-0.007903586339471294,-6.674159167579486e-05,-1.1082096195296198e-05
-0.008408587609740571,-7.081963516309782e-05,-1.111648650200592e-05
-0.008909802187611171,-7.514923261243575e-05,-1.1152978718949803e-05
-0.009406743494329071,-7.97283690329208e-05,-1.1191698119361143e-05
-0.009898924134836453,-8.455478594021218e-05,-1.1232768908104427e-05
-0.01038585773655877,-8.962598140806099e-05,-1.1276314099941496e-05
-0.010867060827299666,-9.49392110490256e-05,-1.1322455398055768e-05
-0.011342054712018143,-0.00010049148993385504,-1.1371313073301489e-05
-0.011810367320884889,-0.00010627959544208079,-1.1423005844645472e-05
-0.012271535008351438,-0.00011230007102438987,-1.147765076126209e-05
-0.012725104278913633,-0.00011854923084620613,-1.1535363086729738e-05
-0.013170633403370413,-0.00012502316526677714,-1.1596256185757984e-05
-0.013607693878503023,-0.0001317177470872455,-1.166044141384649e-05
-0.01403587167916477,-0.00013862863847666245,-1.1728028010237467e-05
-0.01445476825524184,-0.0001457512984602641,-1.1799122994471699e-05
-0.014864001233615086,-0.00015308099083247834,-1.1873831066794885e-05
-0.015263204795192631,-0.00016061279233968028,-1.1952254512587924e-05
-0.01565202970806536,-0.00016834160096549478,-1.2034493110914218e-05
-0.016030143010155547,-0.00017626214414505,-1.2120644047191854e-05
-0.01639722734985488,-0.00018436898673505263,-1.221080182991188e-05
-0.016752980010835583,-0.00019265653857522525,-1.230505821123945e-05
-0.01709711166357517,-0.00020111906149382794,-1.2403502111256713e-05
-0.017429344896556093,-0.00020975067563386076,-1.2506219545538635e-05
-0.01774941258293904,-0.00021854536500373454,-1.2613293555698034e-05
-0.01805705613521321,-0.0002274969821832726,-1.2724804142494786e-05
-0.018352023693943655,-0.00023659925214056184,-1.2840828201075744e-05
-0.01863406829061909,-0.0002458457751367025,-1.296143945789506e-05
-0.018902946021403872,-0.00025523002871470824,-1.3086708408857913e-05
-0.019158414268675865,-0.00026474536878722817,-1.3216702258233397e-05
-0.01940023000968301,-0.0002743850298568179,-1.3351484857894409e-05
-0.019628148255128458,-0.00028414212442302075,-1.3491116646464369e-05
-0.01984192066142613,-0.0002940096416521594,-1.3635654587983163e-05
-0.020041294354406654,-0.00030398044540611756,-1.3785152109747733e-05
-0.020226010990218413,-0.00031404727174227384,-1.3939659039034832e-05
-0.020395806067612373,-0.0003242027260067315,-1.4099221538472083e-05
-0.020550408499092926,-0.00033443927964840785,-1.4263882039885868e-05
-0.02068954044555791,-0.0003447492668845706,-1.4433679176519113e-05
-0.020812917417203338,-0.0003551248813502609,-1.460864771357782e-05
-0.02092024864021343,-0.0003655581728646151,-1.4788818477131539e-05
-0.02101123768080162,-0.0003760410444448688,-1.497421828145891e-05
-0.021085583305681704,-0.00038656524969148966,-1.5164869854993e-05
-0.02114298054744857,-0.0003971223906547722,-1.5360791765079564e-05
-0.021183121942861684,-0.00040770391627734977,-1.5561998341812596e-05
-0.021205698922649976,-0.00041830112149372767,-1.5768499601255364e-05
-0.021210403346694558,-0.0004289051470610638,-1.5980301168394063e-05
-0.021196929192286874,-0.00043950698019580917,-1.619740420020828e-05
-0.021164974413485117,-0.00045009745609725214,-1.6419805309281547e-05
-0.021114242995968147,-0.00046066726044961543,-1.6647496488418264e-05
-0.021044447233841343,-0.0004712069330070678,-1.6880465036782436e-05
-0.020955310253314808,-0.00048170687237885686,-1.7118693488128916e-05
-0.020846568804592278,-0.0004921573421433336,-1.7362159541759463e-05
-0.020717976336461087,-0.000502548478428597,-1.7610835996902447e-05
-0.020569306354410042,-0.0005128702991013148,-1.7864690691284925e-05
-0.02040035604223648,-0.0005231127147004765,-1.8123686444735373e-05
-0.020210950104721827,-0.0005332655412372161,-1.8387781008719796e-05
-0.020000944771169166,-0.0005433185149561888,-1.865692702276815e-05
-0.019770231886176652,-0.0005532613091205253,-1.8931071978787326e-05
-0.01951874300167143,-0.0005630835528424873,-1.921015819427808e-05
-0.01924645337238862,-0.0005727748519360023,-1.94941227954727e-05
-0.018953385751462565,-0.0005823248117169651,-1.9782897711385942e-05
-0.01863961389161295,-0.000591723061627734,-2.0076409679722118e-05
-0.018305265681916764,-0.0006009592815211164,-2.037458026550933e-05
-0.017950525881329026,-0.0006100232294119278,-2.067732589324259e-05
-0.017575638435764034,-0.0006189047704912011,-2.0984557893218372e-05
-0.017180908379541202,-0.0006275939071950274,-2.129618256263993e-05
-0.016766703325455008,-0.0006360808101212764,-2.1612101241969004e-05
-0.016333454546130124,-0.0006443558495891727,-2.1932210406896617e-05
-0.015881657648359943,-0.0006524096276377952,-2.225640177620336e-05
-0.015411872843232215,-0.0006602330102606932,-2.2584562435677983e-05
-0.014924724815488098,-0.0006678171596753733,-2.2916574978161998e-05
-0.014420902194806535,-0.0006751535664279469,-2.3252317659687827e-05
-0.013901156632080452,-0.0006822340811346686,-2.359166457157848e-05
-0.013366301485764447,-0.0006890509456641299,-2.3934485828278183e-05
-0.012817210123204017,-0.000695596823566372,-2.428064777058581e-05
-0.012254813837565782,-0.0007018648295565645,-2.4630013183866545e-05
-0.01168009937699932,-0.0007078485578602057,-2.4982441530720736e-05
-0.011094106084261026,-0.0007135421092255208,-2.533778919749217e-05
-0.010497922650970729,-0.0007189401164093287,-2.5695909753900882e-05
-0.00989268349614332,-0.0007240377679461073,-2.605665422498974e-05
-0.009279564782913476,-0.0007288308300158714,-2.6419871374480234e-05
-0.008659780093696862,-0.000733315666235024,-2.678540799854296e-05
-0.008034575793273616,-0.0007374892552067666,-2.7153109228903407e-05
-0.007405226117364017,-0.000741349205684426,-2.7522818844126204e-05
-0.00677302802526825,-0.0007448937692200841,-2.7894379587852332e-05
-0.006139295848236281,-0.0007481218501884602,-2.8267633492704466e-05
-0.0055053557552536105,-0.0007510330130893327,-2.8642422208523915e-05
-0.004872540051845626,-0.0007536274870411075,-2.9018587333556524e-05
-0.004242181328650694,-0.0007559061673862316,-2.939597074716336e-05
-0.003615606483588946,-0.0007578706143392915,-2.9774414942594743e-05
-0.002994130650721663,-0.0007595230486228691,-3.0153763358335284e-05
-0.0023790510759729884,-0.0007608663440545428,-3.053386070650464e-05
-0.0017716409822734042,-0.0007619040170691044,-3.091455329678555e-05
-0.0011731434653888615,-0.0007626402131810199,-3.129568935434808e-05
-0.000584765461777593,-0.0007630796904128115,-3.167711933024653e-05
-7.67183568548638e-06,-0.0007632277997371773,-3.205869620278403e-05
0.0005570203553747319,-0.000763090462607255,-3.244027576837014e-05
0.0011082473441860702,-0.0007626741456823648,-3.282171692044255e-05
0.0016450038059992375,-0.0007619858328948185,-3.320288191508685e-05
0.002166347602462486,-0.0007610329950427031,-3.358363662207123e-05
0.002671404057007274,-0.0007598235571278357,-3.396385076011386e-05
0.0031593697255069037,-0.0007583658636822071,-3.434339811531637e-05
0.003629515648630811,-0.0007566686423386726,-3.4722156741821586e-05
0.004081190086709261,-0.0007547409659048376,-3.510000914388246e-05
0.004513820741782786,-0.0007525922131977146,-3.54768424386581e-05
0.004926916467564968,-0.0007502320288953777,-3.585254849918138e-05
0.005320068464012383,-0.0007476702826624833,-3.6227024077070846e-05
0.005692950957429639,-0.0007449170278071228,-3.660017090468825e-05
0.006045321379087502,-0.0007419824597229935,-3.697189577657078e-05
0.006377020066770967,-0.0007388768743615289,-3.734211061009191e-05
0.00668796951823801,-0.0007356106269652766,-3.771073248542361e-05
0.006978173224998776,-0.0007321940912794674,-3.8077683664984794e-05
0.007247714114777853,-0.0007286376194445232,-3.8442891592665795e-05
0.007496752632156119,-0.0007249515027577898,-3.880628887321637e-05
0.007725524486109022,-0.0007211459334782235,-3.916781323227538e-05
0.007934338088423087,-0.0007172309678345905,-3.952740745760358e-05
0.008123571700299677,-0.0007132164903874097,-3.988501932215908e-05
0.008293670298705974,-0.0007091121798876583,-4.024060148972785e-05
0.00844514217121455,-0.0007049274767701782,-4.059411140389231e-05
0.008578555248961693,-0.0007006715524151341,-4.0945511161188635e-05
0.008694533190433212,-0.0006963532803052853,-4.129476736936874e-05
0.00879375123068792,-0.000691981209200005,-4.1641850991745065e-05
0.00887693180896996,-0.0006875635384400906,-4.198673717865509e-05
0.008944839985146743,-0.0006831080954915614,-4.2329405087138e-05
0.008998278655887489,-0.0006786223158313028,-4.2669837689968716e-05
0.00903808358734322,-0.0006741132252704951,-4.300802157524417e-05
0.009065118292115794,-0.0006695874248006304,-4.3343946737761946e-05
0.009080268793378438,-0.0006650510780292568,-4.367760636346942e-05
0.00908443833454961,-0.0006605099012472748,-4.400899660828855e-05
0.009078542103139436,-0.0006559691561378526,-4.433811637263484e-05
0.009063502039822716,-0.000651433645102112,-4.466496707294483e-05
0.009040241799725532,-0.0006469077091422249,-4.4989552411505915e-05
0.00900968192682274,-0.0006423952282105878,-4.531187814584412e-05
0.008972735297227571,-0.0006378996239045753,-4.563195185887291e-05
0.008930302883179118,-0.0006334238643594736,-4.594978273093892e-05
0.008883269882971088,-0.000628970471167936,-4.6265381314820775e-05
0.008832502250848646,-0.0006245415281344811,-4.657875931464638e-05
0.008778843647492445,-0.0006201386916598958,-4.688992936959497e-05
0.008723112819213143,-0.0006157632025432195,-4.719890484314575e-05
0.008666101401929416,-0.0006114158989879338,-4.7505699618528536e-05
0.008608572132977353,-0.0006070972306042071,-4.781032790092657e-05
0.008551257439300665,-0.0006028072732111375,-4.81128040268804e-05
0.008494858354312525,-0.0005985457442627343,-4.841314228124887e-05
0.00844004369979125,-0.0005943120187492083,-4.8711356722001854e-05
0.008387449459147272,-0.0005901051454594736,-4.9007461013054026e-05
0.008337678268509247,-0.0005859238635275595,-4.930146826530078e-05
0.008291298961529615,-0.0005817666192200497,-4.9593390885987685e-05
0.008248846117950103,-0.0005776315829501798,-4.988324043653024e-05
0.0082108195805793,-0.0005735166665255475,-5.017102749889917e-05
0.008177683920217973,-0.0005694195406503481,-5.0456761550693146e-05
0.00814986784373393,-0.0005653376527093602,-5.074045084903307e-05
0.008127763555075437,-0.0005612682448596578,-5.102210232342533e-05
0.008111726089287594,-0.000557208372448567,-5.130172147775238e-05
0.008102072645568498,-0.000553154922764853,-5.157931230155574e-05
0.008099081950376777,-0.0005491046341158666,-5.185487719077592e-05
0.008102993686104057,-0.0005450541152067464,-5.212841687810657e-05
0.008114008022385332,-0.000540999864779624,-5.239993037310317e-05
0.008132285284440375,-0.0005369382914529176,-5.26694149121613e-05
0.008157945787426905,-0.0005328657336849508,-5.293686591844577e-05
0.008191069859433967,-0.0005287784797732356,-5.320227697181032e-05
0.008231698069122249,-0.0005246727877910966,-5.34656397887014e-05
0.008279831667843516,-0.0005205449053568551,-5.372694421198839e-05
0.008335433251341793,-0.0005163910891270588,-5.398617821060937e-05
0.008398427645074966,-0.0005122076239029546,-5.424332788886687e-05
0.008468703020863973,-0.0005079908412364699,-5.449837750515173e-05
