frame_number,force
0,828.7916260080186
1,828.6139480551797
2,828.4367784599585
3,828.2606220836755
4,828.0859768502128
5,827.9133304111297
6,827.7431569618838
7,827.5759142473611
8,827.4120407886767
9,827.2519533570173
10,827.0960447135757
11,826.9446816271237
12,826.7982031727918
13,826.656919308203
14,826.5211097177732
15,826.3910229137765
16,826.266875583469
17,826.148852173779
18,826.0371047070962
19,825.9317528226223
20,825.832884037619
21,825.7405542219151
22,825.6547882774391
23,825.5755810127829
24,825.5028982012795
25,825.4366778096999
26,825.3768313832751
27,825.3232455715013
28,825.2757837783021
29,825.2342879197402
30,825.1985802725762
31,825.1684653972161
32,825.1437321181957
33,825.124155544092
34,825.1094991072792
35,825.0995166031576
36,825.0939542085101
37,825.0925524592172
38,825.0950481686394
39,825.1011762698397
40,825.1106715675766
41,825.1232703893174
42,825.1387121277085
43,825.1567406694105
44,825.1771057068866
45,825.1995639311192
46,825.2238801049609
47,825.2498280188581
48,825.2771913324682
49,825.3057643067485
50,825.3353524314165
51,825.3657729525418
52,825.3968553049747
53,825.4284414545392
54,825.4603861549818
55,825.4925571238786
56,825.5248351400513
57,825.557114063077
58,825.5893007737126
59,825.621315032791
60,825.6530892556206
61,825.6845681991962
62,825.7157085605464
63,825.7464784860424
64,825.7768569931887
65,825.8068333080167
66,825.8364061226143
67,825.8655827787487
68,825.8943783849621
69,825.9228148754949
70,825.9509200195552
71,825.9787263893244
72,826.0062702955012
73,826.0335907003843
74,826.0607281201187
75,826.087723529549
76,826.1146172849373
77,826.1414480809153
78,826.1682519575112
79,826.1950613710321
80,826.2219043403283
81,826.2488036787825
82,826.2757763221325
83,826.3028327618181
84,826.3299765921716
85,826.3572041777526
86,826.3845044454032
87,826.411858804766
88,826.4392412003756
89,826.4666182967266
90,826.4939497944584
91,826.5211888717937
92,826.5482827415289
93,826.5751733105262
94,826.6017979258829
95,826.6280901901694
96,826.6539808276952
97,826.6793985843444
98,826.7042711441067
99,826.7285260454295
100,826.7520915805529
101,826.7748976621335
102,826.7968766438437
103,826.8179640841855
104,826.8380994444697
105,826.8572267129083
106,826.8752949480291
107,826.8922587366101
108,826.9080785634587
109,826.9227210918071
110,826.9361593538463
111,826.9483728516867
112,826.9593475703157
113,826.969075905734
114,826.9775565128058
115,826.9847940779455
116,826.9907990215438
117,826.9955871343836
118,826.999179151793
119,827.0016002692188
120,827.0028796032027
121,827.0030496023478
122,827.0021454139912
123,827.0002042140809
124,826.997264509896
125,826.9933654271242
126,826.988545993839
127,826.9828444338541
128,826.9762974808972
129,826.9689397232636
130,826.9608029865092
131,826.9519157599207
132,826.9423026713172
133,826.9319840140638
134,826.9209753296811
135,826.9092870491238
136,826.8969241959587
137,826.8838861554351
138,826.8701665144301
139,826.855752977762
140,826.8406273657738
141,826.8247656963889
142,826.8081383526421
143,826.7907103347112
144,826.772441593913
145,826.7532874449234
146,826.733199051657
147,826.7121239817016
148,826.6900068236397
149,826.666789860833
150,826.6424137944108
151,826.6168185072422
152,826.5899438594114
153,826.5617305043122
154,826.5321207133693
155,826.5010591967564
156,826.4684939070205
157,826.4343768121669
158,826.3986646250487
159,826.3613194774287
160,826.3223095297019
161,826.2816095101117
162,826.2392011793996
163,826.1950737178734
164,826.1492240323083
165,826.1016569806313
166,826.0523855132935
167,826.0014307315793
168,825.9488218647417
169,825.8945961695814
170,825.8387987574683
171,825.7814823545298
172,825.7227070007299
173,825.6625396932533
174,825.6010539795894
175,825.5383295059561
176,825.4744515265119
177,825.4095103777969
178,825.3436009214868
179,825.2768219577199
180,825.2092756115626
181,825.1410666965426
182,825.0723020609908
183,825.0030899245806
184,824.9335392137386
185,824.8637589054608
186,824.793857389511
187,824.7239418589758
188,824.6541177385028
189,824.5844881578145
190,824.515153475175
191,824.4462108519213
192,824.377753875734
193,824.3098722277444
194,824.2426513874158
195,824.1761723699202
196,824.110511493284
197,824.0457401756867
198,823.9819247652609
199,823.9191264046708
200,823.857400931144
201,823.7967988108053
202,823.7373651050632
203,823.6791394663775
204,823.6221561604124
205,823.566444111248
206,823.5120269665606
207,823.4589231807188
208,823.4071461149
209,823.3567041538241
210,823.3076008385173
211,823.25983501419
212,823.2134009922838
213,823.1682887263637
214,823.1244840029782
215,823.081968650287
216,823.040720768058
217,823.0007149820885
218,822.9619227247638
219,822.9243125421438
220,822.8878504269642
221,822.8525001762036
222,822.8182237715389
223,822.7849817813118
224,822.7527337832603
225,822.7214388074588
226,822.691055798062
227,822.6615440906158
228,822.6328638994377
229,822.6049768075736
230,822.5778462504943
231,822.5514379840639
232,822.5257205275947
233,822.5006655740314
234,822.4762483610039
235,822.4524479979933
236,822.4292477458275
237,822.4066352449789
238,822.3846026887554
239,822.363146936925
240,822.3422695653788
241,822.3219768486496
242,822.3022796745131
243,822.2831933928783
244,822.2647376036216
245,822.2469358890933
246,822.2298154965641
247,822.2134069746111
248,822.1977437666413
249,822.1828617654868
250,822.1687988350714
251,822.155594307251
252,822.143288463011
253,822.1319220074189
254,822.1215355478168
255,822.1121690848373
256,822.103861525373
257,822.0966502249943
258,822.090570564602
259,822.0856555632082
260,822.0819355267986
261,822.0794377329407
262,822.07818615189
263,822.0782012065591
264,822.0794995751285
265,822.0820940407258
266,822.0859933920545
267,822.0912023771276
268,822.0977217102737
269,822.1055481315001
270,822.1146745174261
271,822.1250900435183
272,822.1367803972324
273,822.149728040624
274,822.1639125195028
275,822.1793108146654
276,822.1958977290644
277,822.2136463030383
278,822.2325282484952
279,822.2525143925874
280,822.2735751216627
281,822.2956808166429
282,822.3188022712691
283,822.3429110848225
284,822.3679800209862
285,822.3939833246098
286,822.4208969883892
287,822.4486989617862
288,822.4773692950747
289,822.5068902128952
290,822.5372461144395
291,822.5684235004558
292,822.6004108293179
293,822.633198305268
294,822.666777602661
295,822.7011415314939
296,822.7362836515993
297,822.7721978449492
298,822.808877857034
299,822.8463168190383
300,822.8845067626133
301,822.9234381386332
302,822.9630993508821
303,823.0034763157179
304,823.0445520591855
305,823.0863063626606
306,823.1287154661024
307,823.1717518351048
308,823.215383995399
309,823.2595764367912
310,823.3042895874214
311,823.349479858213
312,823.3950997559917
313,823.4410980618162
314,823.4874200691089
315,823.5340078749771
316,823.5808007176923
317,823.6277353529298
318,823.6747464605778
319,823.7217670733238
320,823.7687290185232
321,823.8155633660359
322,823.8622008761254
323,823.9085724427318
324,823.9546095283865
325,824.0002445878802
326,824.0454114786057
327,824.0900458560727
328,824.1340855533433
329,824.1774709433274
330,824.220145283113
331,824.2620550394505
332,824.3031501938526
333,824.3433845248045
334,824.3827158637664
335,824.4211063209916
336,824.4585224766047
337,824.494935532603
338,824.5303214233047
339,824.5646608850358
340,824.5979394893632
341,824.6301476467027
342,824.6612805877945
343,824.691338329219
344,824.7203256265186
345,824.7482519156466
346,824.7751312412546
347,824.8009821692593
348,824.8258276811575
349,824.8496950481942
350,824.8726156842118
351,824.8946249764949
352,824.915762094153
353,824.9360697738787
354,824.9555940837105
355,824.9743841667116
356,824.9924919677301
357,825.0099719471448
358,825.026880785599
359,825.0432770834002
360,825.0592210577381
361,825.0747742401835
362,825.0899991762135
363,825.1049591278909
364,825.1197177800861
365,825.13433894955
366,825.1488862951272
367,825.1634230271608
368,825.178011614817
369,825.1927134910891
370,825.2075887557531
371,825.2226958760402
372,825.2380913835759
373,825.2538295652906
374,825.2699621463375
375,825.2865379644874
376,825.30360263705
377,825.3211982223844
378,825.3393628784821
379,825.3581305212751
380,825.3775304853259
381,825.3975871894128
382,825.4183198093824
383,825.4397419608525
384,825.4618613950556
385,825.4846797120265
386,825.5081920961204
387,825.5323870795736
388,825.5572463406002
389,825.5827445432451
390,825.608849226725
391,825.6355207522457
392,825.6627123152042
393,825.6903700301655
394,825.7184330949151
395,825.7468340378965
396,825.7754990502224
397,825.8043483996283
398,825.8332969202136
399,825.8622545693829
400,825.8911270421798
401,825.9198164328075
402,825.948221933252
403,825.976240559202
404,826.0037678935004
405,826.0306988370859
406,826.0569283573151
407,826.0823522242375
408,826.1068677267797
409,826.130374362518
410,826.152774496384
411,826.1739739847742
412,826.1938827619272
413,826.2124153856819
414,826.2294915405508
415,826.2450364973643
416,826.2589815297997
417,826.2712642886611
418,826.2818291352605
419,826.2906274358761
420,826.2976178196146
421,826.3027664019219
422,826.3060469757701
423,826.3074411724785
424,826.306938593938
425,826.3045369172048
426,826.3002419707743
427,826.2940677797274
428,826.2860365750761
429,826.2761787614511
430,826.2645328368642
431,826.2511452586552
432,826.2360702509604
433,826.2193695512244
434,826.2011120961552
435,826.1813736503718
436,826.1602363832201
437,826.1377884006881
438,826.1141232400709
439,826.089339334945
440,826.0635394572998
441,826.0368301428006
442,826.0093211042655
443,825.9811246371398
444,825.9523550190249
445,825.9231279039809
446,825.8935597121397
447,825.8637670160986
448,825.8338659270548
449,825.8039714851778
450,825.7741970598983
451,825.7446537663812
452,825.7154499043512
453,825.6866904246298
454,825.6584764273505
455,825.6309046943667
456,825.6040672574495
457,825.578051003556
458,825.552937318272
459,825.5288017682093
460,825.505713822719
461,825.4837366149043
462,825.4629267415361
463,825.4433341010468
464,825.4250017679889
465,825.4079659010056
466,825.3922556797726
467,825.3778932653821
468,825.3648937791708
469,825.3532652971803
470,825.3430088602529
471,825.3341185018793
472,825.326581296927
473,825.3203774348232
474,825.315480321378
475,825.311856714365
476,825.3094668988807
477,825.3082649088514
478,825.3081988004066
479,825.3092109809869
480,825.3112385953967
481,825.3142139675123
482,825.3180650947883
483,825.3227161917799
484,825.3280882777749
485,825.334099801892
486,825.3406672970231
487,825.3477060525287
488,825.3551307950986
489,825.3628563672073
490,825.3707983922073
491,825.3788739142468
492,825.3870020010831
493,825.39510429956
494,825.4031055365552
495,825.4109339609191
496,825.4185217231475
497,825.4258051894848
498,825.4327251867653
499,825.4392271743112
500,825.4452613401368
501,825.4507826210269
502,825.4557506495847
503,825.4601296348987
504,825.4638881859215
505,825.4669990879553
506,825.4694390433093
507,825.4711883873763
508,825.4722307907748
509,825.4725529566184
510,825.4721443196121
511,825.4709967511799
512,825.4691042730267
513,825.4664627808187
514,825.4630697798781
515,825.4589241352787
516,825.4540258387034
517,825.4483757934131
518,825.441975617105
519,825.4348274613031
520,825.4269338459584
521,825.4182975089582
522,825.4089212715344
523,825.3988079215547
524,825.3879601173836
525,825.3763803155516
526,825.3640707258448
527,825.3510332974256
528,825.3372697391477
529,825.3227815763013
530,825.3075702447072
531,825.2916372217151
532,825.2749841925453
533,825.2576132496118
534,825.2395271217968
535,825.2207294300447
536,825.201224965158
537,825.181019983403
538,825.1601225153605
539,825.1385426831306
540,825.1162930206159
541,825.0933887913412
542,825.0698482979246
543,825.0456931765302
544,825.0209486684417
545,824.995643859814
546,824.9698118802901
547,824.9434900517605
548,824.9167199799184
549,824.8895475834064
550,824.8620230582509
551,824.834200778199
552,824.806139133179
553,824.7779003079687
554,824.7495500024512
555,824.721157095176
556,824.6927932536875
557,824.6645324971395
558,824.6364507180639
559,824.6086251707118
560,824.5811339334899
561,824.5540553528145
562,824.5274674753106
563,824.5014474748524
564,824.4760710806214
565,824.4514120122168
566,824.4275414279716
567,824.404527392989
568,824.3824343737257
569,824.3613227656921
570,824.3412484597615
571,824.322262451064
572,824.3044104931232
573,824.2877327988172
574,824.2722637885146
575,824.2580318842429
576,824.2450593477515
577,824.2333621606236
578,824.2229499459926
579,824.2138259329355
580,824.2059869654001
581,824.1994235572005
582,824.1941199932395
583,824.190054475257
584,824.1871993091625
585,824.1855211311326
586,824.1849811706458
587,824.1855355492456
588,824.187135613514
589,824.1897282999857
590,824.1932565293309
591,824.1976596272697
592,824.2028737701291
593,824.2088324533347
594,824.2154669811529
595,824.2227069755502
596,824.2304809013015
597,824.2387166038709
598,824.2473418562427
599,824.2562849106718
600,824.2654750510077
601,824.2748431406119
602,824.2843221599975
603,824.2938477276175
604,824.3033585971345
605,824.3127971249905
606,824.3221097028783
607,824.3312471507314
608,824.3401650670875
609,824.3488241346429
610,824.3571903789397
611,824.3652353776313
612,824.3729364177683
613,824.3802765997735
614,824.3872448887832
615,824.3938361156967
616,824.40005093074
617,824.4058957114938
618,824.4113824259043
619,824.41652844997
620,824.4213563403155
621,824.425893563361
622,824.430172184259
623,824.4342285194491
624,824.438102756568
625,824.4418385450639
626,824.4454825606924
627,824.4490840472355
628,824.4526943391243
629,824.4563663688848
630,824.4601541630127
631,824.4641123288477
632,824.4682955339389
633,824.4727579793658
634,824.4775528699287
635,824.4827318863872
636,824.4883446668755
637,824.4944383055094
638,824.5010568762946
639,824.5082409904314
640,824.5160273948837
641,824.5244486185669
642,824.5335326692643
643,824.5433027804623
644,824.5537772044695
645,824.56496904726
646,824.5768861409198
647,824.5895309504348
648,824.6029005125034
649,824.6169864051475
650,824.6317747478764
651,824.6472462327274
652,824.6633761870671
653,824.6801346703268
654,824.6974866086679
655,824.7153919726516
656,824.7338060024239
657,824.7526794831728
658,824.7719590714007
659,824.7915876701616
660,824.8115048489573
661,824.8316473020211
662,824.851949337742
663,824.8723433921037
664,824.8927605598362
665,824.9131311380133
666,824.9333851776864
667,824.9534530395381
668,824.9732659494879
669,824.9927565499414
670,825.011859442191
671,825.0305117153331
672,825.0486534569109
673,825.0662282404246
674,825.083183584778
675,825.0994713802688
676,825.1150482747045
677,825.1298760121149
678,825.1439217163689
679,825.1571581136184
680,825.1695636906417
681,825.1811227895365
682,825.1918256416174
683,825.2016683445659
684,825.2106527874273
685,825.2187865284817
686,825.2260826313808
687,825.232559464892
688,825.2382404709782
689,825.2431539051436
690,825.2473325526273
691,825.250813424449
692,825.2536374382055
693,825.2558490889846
694,825.257496114941
695,825.2586291600492
696,825.2593014344544
697,825.2595683718554
698,825.2594872837161
699,825.259117011076
700,825.2585175753222
701,825.2577498288829
702,825.2568751055916
703,825.2559548694397
704,825.2550503603758
705,825.2542222365424
706,825.2535302131918
707,825.2530326992488
708,825.2527864331234
709,825.2528461196192
710,825.2532640693311
711,825.2540898410917
712,825.255369887606
713,825.2571472048653
714,825.259460987037
715,825.2623462897004
716,825.2658337053571
717,825.2699490561527
718,825.2747131098336
719,825.2801413259905
720,825.2862436404746
721,825.2930242962208
722,825.3004817283237
723,825.3086085101082
724,825.3173913652912
725,825.3268112492656
726,825.3368435001317
727,825.3474580577223
728,825.3586197470688
729,825.3702886219168
730,825.3824203638292
731,825.3949667325558
732,825.4078760632339
733,825.4210938055155
734,825.434563098729
735,825.448225375582
736,825.4620209850889
737,825.4758898239908
738,825.4897719652971
739,825.5036082727189
740,825.5173409905159
741,825.5309142995238
742,825.5442748317638
743,825.5573721378674
744,825.5701591032403
745,825.5825923102884
746,825.5946323454448
747,825.6062440513148
748,825.6173967259809
749,825.6280642733568
750,825.6382253104961
751,825.6478632394242
752,825.6569662915406
753,825.6655275517244
754,825.6735449674729
755,825.6810213461167
756,825.6879643405797
757,825.6943864214687
758,825.7003048306185
759,825.7057415087893
760,825.7107229884758
761,825.7152802422119
762,825.7194484775263
763,825.7232668716837
764,825.7267782420142
765,825.7300286502511
766,825.7330669413532
767,825.7359442189015
768,825.7387132610053
769,825.7414278832456
770,825.7441422583568
771,825.7469102051924
772,825.7497844611091
773,825.7528159518454
774,825.7560530717399
775,825.7595409857504
776,825.7633209638819
777,825.7674297580395
778,825.7718990301594
779,825.7767548383254
780,825.7820171849462
781,825.7876996291428
782,825.7938089649778
783,825.8003449676306
784,825.8073002100128
785,825.814659952038
786,825.8224021039564
787,825.8304972641137
788,825.8389088301366
789,825.8475931808805
790,825.8564999249091
791,825.8655722104205
792,825.8747470917369
793,825.8839559486523
794,825.8931249565843
795,825.9021756069427
796,825.9110252778219
797,825.9195878547116
798,825.927774399656
799,825.9354938660875
800,825.9426538560889
801,825.9491614165955
802,825.9549238701183
803,825.9598496739967
804,825.9638493008441
805,825.9668361319481
806,825.9687273543203
807,825.9694448503477
808,825.9689160669108
809,825.9670748493426
810,825.9638622255255
811,825.9592271270061
812,825.95312703679
813,825.9455285565288
814,825.9364078882501
815,825.9257512272628
816,825.9135550635018
817,825.8998263885069
818,825.8845828045547
819,825.8678525315265
820,825.8496743066672
821,825.8300971732178
822,825.8091801560145
823,825.7869918246898
824,825.7636097471656
825,825.7391198376899
826,825.713615605429
827,825.6871973116955
828,825.6599710457816
829,825.6320477307622
830,825.6035420718008
831,825.5745714604656
832,825.5452548489634
833,825.5157116078428
834,825.4860603799311
835,825.4564179426328
836,825.4268980903701
837,825.3976105484797
838,825.3686599290128
839,825.3401447379351
840,825.3121564428626
841,825.2847786108395
842,825.2580861263561
843,825.2321445003342
844,825.2070092810187
845,825.1827255775696
846,825.1593277065524
847,825.1368389703133
848,825.115271574289
849,825.0946266878138
850,825.0748946502373
851,825.0560553211435
852,825.0380785699983
853,825.0209248966594
854,825.0045461704136
855,824.9888864723097
856,824.9738830239288
857,824.9594671850942
858,824.9455655027621
859,824.9321007932043
860,824.9189932397583
861,824.9061614892412
862,824.8935237317576
863,824.8809987506853
864,824.8685069316297
865,824.8559712209269
866,824.8433180259696
867,824.8304780514245
868,824.8173870675013
869,824.8039866084886
870,824.7902246009949
871,824.7760559212765
872,824.7614428800512
873,824.7463556319072
874,824.7307725052628
875,824.7146802480953
876,824.6980741845272
877,824.6809582778762
878,824.6633450968621
879,824.6452556832596
880,824.6267193214317
881,824.6077732127275
882,824.5884620604995
883,824.5688375742565
884,824.5489579039571
885,824.528887017372
886,824.5086940346058
887,824.488452534217
888,824.4682398447814
889,824.4481363343463
890,824.4282247083588
891,824.4085893246781
892,824.389315532277
893,824.3704890381424
894,824.3521953047808
895,824.3345189790314
896,824.3175433518527
897,824.3013498481274
898,824.2860175449696
899,824.2716227166009
900,824.258238403794
901,824.2459340060866
902,824.234774895365
903,824.224822050064
904,824.2161317104154
905,824.2087550572177
906,824.202737919047
907,824.1981205144729
908,824.1949372356565
909,824.1932164777644
910,824.192980515776
911,824.1942454274888
912,824.1970210595429
913,824.2013110323813
914,824.207112780069
915,824.2144176213583
916,824.2232108590063
917,824.2334719051261
