frame_number,force
0,828.7916260045232
1,828.6139480517719
2,828.4367784566233
3,828.2606220803979
4,828.0859768469785
5,827.9133304079257
6,827.7431569586988
7,827.5759142441851
8,827.412040785501
9,827.2519533538341
10,827.0960447103785
11,826.9446816239076
12,826.7982031695537
13,826.6569193049414
14,826.521109714488
15,826.3910229104688
16,826.2668755801407
17,826.1488521704331
18,826.037104703737
19,825.9317528192552
20,825.8328840342489
21,825.7405542185468
22,825.654788274078
23,825.5755810094348
24,825.5028981979501
25,825.4366778063943
26,825.3768313799983
27,825.3232455682571
28,825.2757837750931
29,825.2342879165675
30,825.1985802694395
31,825.1684653941127
32,825.1437321151218
33,825.1241555410433
34,825.109499104251
35,825.0995166001449
36,825.0939542055075
37,825.0925524562191
38,825.0950481656396
39,825.101176266831
40,825.1106715645516
41,825.1232703862682
42,825.1387121246267
43,825.156740666288
44,825.1771057037151
45,825.199563927891
46,825.2238801016683
47,825.2498280154944
48,825.2771913290269
49,825.3057643032251
50,825.3353524278074
51,825.3657729488439
52,825.3968553011855
53,825.428441450657
54,825.460386151005
55,825.4925571198058
56,825.5248351358815
57,825.5571140588091
58,825.5893007693451
59,825.6213150283227
60,825.6530892510499
61,825.6845681945214
62,825.7157085557654
63,825.7464784811528
64,825.7768569881882
65,825.806833302903
66,825.8364061173855
67,825.8655827734033
68,825.894378379499
69,825.9228148699136
70,825.9509200138559
71,825.9787263835083
72,826.0062702895705
73,826.033590694342
74,826.0607281139686
75,826.0877235232953
76,826.1146172785853
77,826.1414480744716
78,826.1682519509831
79,826.195061364427
80,826.2219043336531
81,826.2488036720437
82,826.2757763153361
83,826.3028327549698
84,826.3299765852776
85,826.3572041708188
86,826.3845044384367
87,826.4118587977748
88,826.4392411933688
89,826.4666182897142
90,826.493949787451
91,826.5211888648016
92,826.5482827345619
93,826.5751733035933
94,826.601797918992
95,826.6280901833271
96,826.6539808209067
97,826.6793985776127
98,826.7042711374324
99,826.728526038812
100,826.7520915739898
101,826.7748976556205
102,826.7968766373751
103,826.8179640777545
104,826.8380994380677
105,826.8572267065258
106,826.8752949416559
107,826.8922587302351
108,826.9080785570709
109,826.9227210853958
110,826.9361593474016
111,826.9483728452
112,826.9593475637794
113,826.9690758991427
114,826.9775565061562
115,826.9847940712364
116,826.9907990147756
117,826.9955871275586
118,826.9991791449158
119,827.0016002622967
120,827.0028795962444
121,827.0030495953623
122,827.0021454069876
123,827.0002042070684
124,826.9972645028846
125,826.9933654201253
126,826.9885459868641
127,826.9828444269148
128,826.9762974740053
129,826.96893971643
130,826.9608029797438
131,826.9519157532325
132,826.9423026647144
133,826.9319840075536
134,826.9209753232694
135,826.9092870428149
136,826.8969241897556
137,826.8838861493393
138,826.8701665084419
139,826.8557529718798
140,826.8406273599946
141,826.8247656907082
142,826.8081383470541
143,826.7907103292083
144,826.7724415884865
145,826.7532874395637
146,826.733199046353
147,826.7121239764415
148,826.6900068184116
149,826.6667898556246
150,826.6424137892101
151,826.6168185020371
152,826.5899438541908
153,826.5617304990659
154,826.5321207080889
155,826.5010591914346
156,826.4684939016508
157,826.4343768067431
158,826.3986646195644
159,826.3613194718778
160,826.3223095240786
161,826.2816095044107
162,826.2392011736159
163,826.1950737120037
164,826.1492240263506
165,826.101656974584
166,826.052385507156
167,826.001430725352
168,825.9488218584262
169,825.8945961631798
170,825.8387987509823
171,825.7814823479611
172,825.7227069940809
173,825.6625396865268
174,825.6010539727877
175,825.5383294990813
176,825.4744515195664
177,825.4095103707829
178,825.3436009144061
179,825.2768219505756
180,825.2092756043586
181,825.1410666892837
182,825.0723020536825
183,825.0030899172291
184,824.9335392063504
185,824.8637588980434
186,824.7938573820735
187,824.7239418515284
188,824.654117731057
189,824.5844881503822
190,824.515153467769
191,824.4462108445542
192,824.3777538684178
193,824.3098722204892
194,824.2426513802301
195,824.1761723628107
196,824.1105114862556
197,824.0457401687436
198,823.981924758406
199,823.9191263979053
200,823.8574009244677
201,823.796798804216
202,823.7373650985558
203,823.6791394599448
204,823.6221561540467
205,823.5664441049412
206,823.5120269603051
207,823.4589231745078
208,823.4071461087274
209,823.3567041476844
210,823.3076008324061
211,823.2598350081054
212,823.2134009862252
213,823.1682887203309
214,823.1244839969719
215,823.0819686443094
216,823.0407207621132
217,823.0007149761816
218,822.9619227189007
219,822.9243125363316
220,822.8878504212105
221,822.8525001705164
222,822.818223765927
223,822.7849817757841
224,822.7527337778254
225,822.7214388021247
226,822.6910557928358
227,822.6615440855035
228,822.6328638944441
229,822.6049768027032
230,822.5778462457506
231,822.5514379794491
232,822.5257205231097
233,822.5006655696764
234,822.4762483567773
235,822.4524479938922
236,822.4292477418475
237,822.4066352411149
238,822.3846026850007
239,822.363146933271
240,822.3422695618157
241,822.3219768451659
242,822.302279671096
243,822.2831933895137
244,822.264737600294
245,822.2469358857854
246,822.2298154932577
247,822.2134069712871
248,822.1977437632805
249,822.18286176207
250,822.1687988315807
251,822.1555943036701
252,822.1432884593254
253,822.1319220036165
254,822.1215355438876
255,822.112169080773
256,822.1038615211676
257,822.0966502206431
258,822.090570560102
259,822.0856555585577
260,822.0819355219973
261,822.0794377279904
262,822.0781861467943
263,822.0782012013235
264,822.0794995697593
265,822.0820940352295
266,822.0859933864369
267,822.0912023713936
268,822.0977217044278
269,822.1055481255471
270,822.1146745113707
271,822.1250900373656
272,822.1367803909877
273,822.1497280342933
274,822.1639125130923
275,822.1793108081819
276,822.1958977225153
277,822.213646296432
278,822.23252824184
279,822.2525143858915
280,822.2735751149344
281,822.2956808098913
282,822.3188022645049
283,822.3429110780569
284,822.3679800142296
285,822.3939833178724
286,822.4208969816813
287,822.4486989551177
288,822.477369288456
289,822.5068902063367
290,822.537246107952
291,822.56842349405
292,822.6004108230039
293,822.6331982990556
294,822.6667775965595
295,822.701141525513
296,822.7362836457487
297,822.7721978392393
298,822.8088778514749
299,822.8463168136392
300,822.8845067573822
301,822.9234381335762
302,822.963099346004
303,823.0034763110223
304,823.0445520546747
305,823.0863063583356
306,823.1287154619625
307,823.171751831147
308,823.215383991619
309,823.2595764331837
310,823.3042895839799
311,823.3494798549298
312,823.3950997528578
313,823.4410980588212
314,823.4874200662412
315,823.534007872223
316,823.5808007150378
317,823.6277353503599
318,823.6747464580781
319,823.72176707088
320,823.7687290161216
321,823.8155633636632
322,823.8622008737682
323,823.9085724403767
324,823.9546095260201
325,824.0002445854902
326,824.0454114761811
327,824.0900458536026
328,824.1340855508165
329,824.1774709407323
330,824.2201452804376
331,824.2620550366822
332,824.303150190979
333,824.3433845218135
334,824.382715860647
335,824.4211063177333
336,824.4585224731984
337,824.4949355290408
338,824.5303214195806
339,824.564660881145
340,824.5979394853027
341,824.630147642471
342,824.6612805833904
343,824.6913383246418
344,824.7203256217692
345,824.7482519107272
346,824.7751312361679
347,824.800982164009
348,824.8258276757477
349,824.8496950426298
350,824.8726156784982
351,824.894624970637
352,824.9157620881554
353,824.9360697677453
354,824.9555940774446
355,824.9743841603159
356,824.9924919612068
357,825.0099719404959
358,825.0268807788262
359,825.0432770765061
360,825.0592210507265
361,825.0747742330597
362,825.0899991689847
363,825.1049591205667
364,825.1197177726784
365,825.134338942072
366,825.1488862875929
367,825.1634230195849
368,825.1780116072152
369,825.1927134834771
370,825.2075887481471
371,825.2226958684561
372,825.2380913760285
373,825.2538295577937
374,825.269962138904
375,825.2865379571289
376,825.3036026297767
377,825.321198215205
378,825.3393628714042
379,825.358130514306
380,825.377530478473
381,825.3975871826831
382,825.4183198027823
383,825.4397419543874
384,825.4618613887296
385,825.4846797058425
386,825.50819209008
387,825.5323870736771
388,825.5572463348462
389,825.5827445376304
390,825.608849221244
391,825.6355207468907
392,825.6627123099668
393,825.6903700250364
394,825.7184330898841
395,825.7468340329527
396,825.7754990453541
397,825.8043483948233
398,825.8332969154587
399,825.8622545646657
400,825.8911270374879
401,825.9198164281288
402,825.9482219285753
403,825.9762405545172
404,826.0037678887991
405,826.030698832362
406,826.056928352565
407,826.0823522194594
408,826.106867721973
409,826.1303743576835
410,826.1527744915247
411,826.1739739798945
412,826.1938827570325
413,826.2124153807781
414,826.2294915356441
415,826.2450364924614
416,826.2589815249088
417,826.271264283791
418,826.28182913042
419,826.2906274310732
420,826.2976178148572
421,826.3027663972179
422,826.3060469711271
423,826.3074411679029
424,826.3069385894344
425,826.3045369127764
426,826.3002419664225
427,826.2940677754526
428,826.2860365708785
429,826.2761787573297
430,826.2645328328174
431,826.2511452546814
432,826.2360702470585
433,826.2193695473936
434,826.2011120923953
435,826.181373646683
436,826.1602363796026
437,826.1377883971414
438,826.1141232365932
439,826.089339331533
440,826.0635394539489
441,826.0368301395041
442,826.0093211010154
443,825.9811246339274
444,825.9523550158406
445,825.9231279008146
446,825.8935597089813
447,825.8637670129377
448,825.8338659238809
449,825.8039714819803
450,825.7741970566661
451,825.7446537631035
452,825.7154499010176
453,825.6866904212301
454,825.6584764238748
455,825.6309046908046
456,825.6040672537905
457,825.5780509997896
458,825.5529373143888
459,825.5288017642
460,825.5057138185754
461,825.4837366106191
462,825.4629267371037
463,825.4433340964632
464,825.4250017632513
465,825.4079658961122
466,825.3922556747222
467,825.3778932601739
468,825.3648937738046
469,825.3532652916572
470,825.3430088545748
471,825.3341184960498
472,825.3265812909511
473,825.3203774287077
474,825.3154803151309
475,825.3118567079952
476,825.3094668923977
477,825.3082649022654
478,825.308198793727
479,825.309210974223
480,825.3112385885571
481,825.3142139606056
482,825.3180650878235
483,825.322716184767
484,825.3280882707244
485,825.3340997948143
486,825.3406672899283
487,825.3477060454265
488,825.3551307879984
489,825.3628563601184
490,825.3707983851388
491,825.3788739072077
492,825.3870019940821
493,825.3951042926049
494,825.403105529653
495,825.4109339540755
496,825.4185217163667
497,825.4258051827693
498,825.4327251801154
499,825.4392271677259
500,825.4452613336143
501,825.4507826145646
502,825.4557506431789
503,825.4601296285442
504,825.4638881796114
505,825.4669990816815
506,825.4694390370627
507,825.4711883811478
508,825.4722307845565
509,825.4725529504042
510,825.4721443133965
511,825.4709967449578
512,825.4691042667935
513,825.4664627745705
514,825.4630697736114
515,825.4589241289907
516,825.4540258323918
517,825.4483757870767
518,825.4419756107428
519,825.4348274549151
520,825.4269338395447
521,825.4182975025199
522,825.4089212650721
523,825.398807915069
524,825.3879601108749
525,825.3763803090205
526,825.3640707192919
527,825.351033290851
528,825.3372697325507
529,825.3227815696799
530,825.3075702380592
531,825.2916372150377
532,825.2749841858367
533,825.2576132428712
534,825.2395271150245
535,825.2207294232422
536,825.2012249583273
537,825.1810199765467
538,825.1601225084819
539,825.1385426762339
540,825.1162930137066
541,825.0933887844271
542,825.0698482910157
543,825.0456931696378
544,825.0209486615787
545,824.9956438529936
546,824.9698118735264
547,824.9434900450684
548,824.9167199733133
549,824.889547576904
550,824.8620230518669
551,824.8342007719488
552,824.8061391270771
553,824.7779003020298
554,824.7495499966897
555,824.7211570896062
556,824.692793248324
557,824.6645324919963
558,824.6364507131535
559,824.6086251660462
560,824.5811339290793
561,824.5540553486676
562,824.5274674714344
563,824.5014474712524
564,824.4760710773014
565,824.4514120091792
566,824.4275414252173
567,824.4045273905172
568,824.3824343715344
569,824.3613227637788
570,824.341248458122
571,824.3222624496927
572,824.304410492013
573,824.2877327979584
574,824.2722637878953
575,824.2580318838491
576,824.2450593475666
577,824.2333621606289
578,824.2229499461673
579,824.2138259332573
580,824.2059869658458
581,824.1994235577457
582,824.1941199938589
583,824.1900544759241
584,824.1871993098498
585,824.1855211318127
586,824.1849811712914
587,824.1855355498302
588,824.1871356140113
589,824.1897283003703
590,824.1932565295782
591,824.1976596273558
592,824.2028737700314
593,824.2088324530314
594,824.2154669806245
595,824.222706974779
596,824.230480900272
597,824.23871660257
598,824.2473418546598
599,824.2562849087989
600,824.2654750488388
601,824.2748431381431
602,824.2843221572269
603,824.2938477245452
604,824.3033585937626
605,824.3127971213228
606,824.3221096989204
607,824.3312471464915
608,824.3401650625754
609,824.34882412987
610,824.3571903739191
611,824.3652353723778
612,824.3729364122979
613,824.3802765941035
614,824.3872448829312
615,824.3938361096808
616,824.4000509245787
617,824.4058957052058
618,824.4113824195086
619,824.416528443486
620,824.4213563337622
621,824.4258935567577
622,824.4301721776256
623,824.4342285128058
624,824.4381027499346
625,824.4418385384594
626,824.445482554135
627,824.4490840407424
628,824.4526943327114
629,824.456366362567
630,824.4601541568029
631,824.4641123227565
632,824.4682955279746
633,824.4727579735354
634,824.4775528642376
635,824.4827318808395
636,824.4883446614738
637,824.4944383002551
638,824.5010568711879
639,824.5082409854716
640,824.5160273900685
641,824.5244486138923
642,824.5335326647242
643,824.5433027760489
644,824.5537772001733
645,824.5649690430699
646,824.576886136824
647,824.5895309464208
648,824.6029005085588
649,824.6169864012609
650,824.6317747440372
651,824.6472462289256
652,824.663376183293
653,824.680134666571
654,824.6974866049216
655,824.7153919689066
656,824.7338059986737
657,824.7526794794119
658,824.7719590676254
659,824.7915876663694
660,824.8115048451476
661,824.8316472981943
662,824.8519493338995
663,824.8723433882485
664,824.8927605559722
665,824.9131311341457
666,824.9333851738211
667,824.9534530356814
668,824.9732659456457
669,824.9927565461195
670,825.0118594383944
671,825.0305117115654
672,825.0486534531741
673,825.0662282367189
674,825.0831835811015
675,825.0994713766182
676,825.1150482710757
677,825.1298760085026
678,825.1439217127662
679,825.1571581100171
680,825.1695636870326
681,825.1811227859091
682,825.1918256379606
683,825.2016683408687
684,825.210652783678
685,825.2187865246681
686,825.2260826274902
687,825.2325594609123
688,825.2382404668979
689,825.243153900952
690,825.2473325483145
691,825.2508134200056
692,825.2536374336232
693,825.2558490842565
694,825.2574961100609
695,825.2586291550122
696,825.2593014292569
697,825.2595683664956
698,825.2594872781951
699,825.2591170053972
700,825.2585175694909
701,825.2577498229059
702,825.2568750994774
703,825.2559548631982
704,825.255050354018
705,825.2542222300805
706,825.2535302066392
707,825.2530326926202
708,825.2527864264342
709,825.2528461128853
710,825.2532640625681
711,825.2540898343146
712,825.2553698808292
713,825.2571471981031
714,825.2594609803028
715,825.2623462830077
716,825.2658336987187
717,825.2699490495818
718,825.2747131033433
719,825.2801413195934
720,825.2862436341838
721,825.2930242900492
722,825.3004817222833
723,825.3086085042096
724,825.3173913595436
725,825.3268112436768
726,825.3368434947078
727,825.3474580524679
728,825.3586197419878
729,825.3702886170116
730,825.3824203591014
731,825.3949667280052
732,825.4078760588588
733,825.4210938013131
734,825.4345630946947
735,825.4482253717106
736,825.4620209813754
737,825.47588982043
738,825.4897719618833
739,825.503608269446
740,825.5173409873776
741,825.530914296514
742,825.5442748288758
743,825.557372135095
744,825.5701591005769
745,825.582592307728
746,825.5946323429805
747,825.6062440489392
748,825.6173967236862
749,825.6280642711347
750,825.6382253083374
751,825.6478632373195
752,825.6569662894806
753,825.6655275497002
754,825.673544965476
755,825.6810213441388
756,825.6879643386127
757,825.6943864195047
758,825.7003048286496
759,825.7057415068078
760,825.7107229864744
761,825.7152802401826
762,825.7194484754613
763,825.7232668695752
764,825.7267782398541
765,825.7300286480313
766,825.7330669390655
767,825.7359442165373
768,825.7387132585555
769,825.7414278807015
770,825.7441422557101
771,825.7469102024356
772,825.7497844582358
773,825.7528159488504
774,825.7560530686193
775,825.7595409825012
776,825.7633209605028
777,825.7674297545306
778,825.7718990265222
779,825.7767548345624
780,825.7820171810615
781,825.7876996251424
782,825.7938089608688
783,825.8003449634203
784,825.8073002057089
785,825.8146599476476
786,825.8224020994859
787,825.8304972595688
788,825.8389088255225
789,825.8475931762024
790,825.8564999201723
791,825.8655722056303
792,825.8747470868991
793,825.8839559437732
794,825.8931249516714
795,825.9021756020048
796,825.9110252728683
797,825.9195878497515
798,825.9277743946984
799,825.9354938611415
800,825.9426538511624
801,825.9491614116961
802,825.9549238652526
803,825.9598496691701
804,825.9638492960611
805,825.9668361272122
806,825.9687273496345
807,825.9694448457133
808,825.9689160623278
809,825.9670748448106
810,825.9638622210424
811,825.9592271225686
812,825.9531270323941
813,825.9455285521697
814,825.936407883922
815,825.9257512229599
816,825.9135550592185
817,825.8998263842376
818,825.8845828002934
819,825.8678525272663
820,825.8496743024004
821,825.8300971689357
822,825.809180151708
823,825.7869918203504
824,825.7636097427848
825,825.7391198332601
826,825.7136156009428
827,825.6871973071459
828,825.6599710411617
829,825.6320477260653
830,825.6035420670202
831,825.5745714555945
832,825.5452548439957
833,825.5157116027734
834,825.4860603747561
835,825.4564179373497
836,825.4268980849771
837,825.3976105429762
838,825.3686599233993
839,825.3401447322133
840,825.3121564370348
841,825.2847786049093
842,825.258086120328
843,825.2321444942124
844,825.2070092748078
845,825.1827255712747
846,825.1593277001788
847,825.1368389638673
848,825.115271567777
849,825.0946266812418
850,825.0748946436102
851,825.0560553144655
852,825.0380785632732
853,825.0209248898906
854,825.0045461636047
855,824.9888864654644
856,824.9738830170513
857,824.9594671781898
858,824.9455654958371
859,824.9321007862662
860,824.9189932328156
861,824.9061614823039
862,824.8935237248362
863,824.8809987437901
864,824.8685069247704
865,824.8559712141126
866,824.8433180192081
867,824.8304780447223
868,824.8173870608639
869,824.8039866019208
870,824.790224594501
871,824.7760559148603
872,824.7614428737159
873,824.7463556256549
874,824.7307724990944
875,824.71468024201
876,824.698074178523
877,824.680958271951
878,824.6633450910115
879,824.6452556774781
880,824.6267193157128
881,824.6077732070639
882,824.588462054884
883,824.5688375686815
884,824.5489578984156
885,824.528887011856
886,824.5086940291073
887,824.4884525287281
888,824.4682398392944
889,824.4481363288537
890,824.4282247028539
891,824.4085893191559
892,824.389315526735
893,824.3704890325799
894,824.3521952991991
895,824.3345189734334
896,824.3175433462422
897,824.3013498425088
898,824.2860175393474
899,824.2716227109802
900,824.2582383981796
901,824.2459340004827
902,824.2347748897756
903,824.2248220444927
904,824.216131704866
905,824.2087550516932
906,824.2027379135491
907,824.1981205090029
908,824.1949372302154
909,824.1932164723524
910,824.192980510393
911,824.194245422134
912,824.1970210542149
913,824.2013110270774
914,824.2071127747857
915,824.2144176160926
916,824.2232108537546
917,824.2334718998842
