frame_number,force
0,828.791626000549
1,828.4684931053143
2,828.1486075986537
3,827.8351315786812
4,827.5310609427199
5,827.2391526676389
6,826.9618632209398
7,826.7013001680007
8,826.4591882762771
9,826.2368507044421
10,826.0352051087468
11,825.8547736567674
12,825.6957050511438
13,825.5578058893482
14,825.4405782493766
15,825.3432604514658
16,825.264868463894
17,825.2042361731358
18,825.1600534552775
19,825.1309015204632
20,825.1152853550761
21,825.1116632877479
22,825.1184737836824
23,825.1341595976731
24,825.1571894479627
25,825.186077394144
26,825.2194000862736
27,825.2558120238575
28,825.294058957485
29,825.3329896004009
30,825.3715658952694
31,825.4088721453796
32,825.4441232548006
33,825.4766720896537
34,825.5060156829178
35,825.5317997936282
36,825.5538212257949
37,825.5720272717193
38,825.586511665879
39,825.5975065651302
40,825.6053703300134
41,825.6105712191994
42,825.6136674225007
43,825.6152840578252
44,825.6160878331061
45,825.6167601095212
46,825.617969192984
47,825.6203428257583
48,825.6244419618723
49,825.6307369186436
50,825.6395868969728
51,825.651223703301
52,825.665740364817
53,825.683085242281
54,825.703062138482
55,825.7253366699593
56,825.7494488103613
57,825.7748311115539
58,825.8008317421718
59,825.8267411989484
60,825.8518213781507
61,825.8753356567861
62,825.8965787102684
63,825.9149049497747
64,825.9297546518537
65,825.940677029687
66,825.9473496486667
67,825.9495937472789
68,825.9473851896958
69,825.9408608782292
70,825.9303204400788
71,825.9162229515742
72,825.8991785092105
73,825.8799346375464
74,825.8593577857032
75,825.8384104709289
76,825.8181249515146
77,825.7995745414503
78,825.7838436739639
79,825.7719975940257
80,825.7650523206977
81,825.7639454639901
82,825.7695085876271
83,825.7824419019387
84,825.8032920281515
85,825.8324334409832
86,825.8700541176892
87,825.9161459838123
88,825.9705008444379
89,826.0327124178248
90,826.1021847725773
91,826.1781470303666
92,826.2596737739718
93,826.3457102396185
94,826.4351010873968
95,826.5266213931186
96,826.6190085445927
97,826.7109939008292
98,826.8013332259974
99,826.8888349472189
100,826.9723853036709
101,827.0509696217863
102,827.1236892849921
103,827.1897743040254
104,827.2485915785978
105,827.2996489942923
106,827.3425955729386
107,827.3772180667713
108,827.4034345650441
109,827.4212857421061
110,827.4309243197704
111,827.4326032556586
112,827.4266631845799
113,827.4135197054609
114,827.3936511320671
115,827.3675872381316
116,827.3358993185742
117,827.2991916221551
118,827.2580939775003
119,827.213255281992
120,827.1653374409697
121,827.115009325681
122,827.06294039694
123,827.0097938396527
124,826.9562193253108
125,826.902845769035
126,826.850274584584
127,826.7990739277353
128,826.7497742713534
129,826.7028654124163
130,826.6587947363537
131,826.6179663485804
132,826.5807405835446
133,826.5474333953007
134,826.5183151696959
135,826.4936085734319
136,826.4734852142019
137,826.4580611478319
138,826.4473915724187
139,826.4414652825329
140,826.4401995232992
141,826.4434357774265
142,826.4509368341284
143,826.4623853355268
144,826.477383902554
145,826.4954568963249
146,826.5160538760514
147,826.53855485325
148,826.5622774628556
149,826.5864861512525
150,826.6104034319875
151,826.6332231745564
152,826.6541257438715
153,826.6722946194276
154,826.6869339632157
155,826.6972864999582
156,826.7026509784819
157,826.7023983868417
158,826.6959860812526
159,826.6829691534108
160,826.6630086814397
161,826.6358768520467
162,826.6014591597902
163,826.5597539317729
164,826.5108693666504
165,826.4550182290974
166,826.3925103546742
167,826.3237431930156
168,826.249190738993
169,826.1693913376419
170,826.0849349382897
171,825.9964503653047
172,825.9045930607866
173,825.8100336044956
174,825.7134472216255
175,825.6155044465468
176,825.5168630128123
177,825.4181608276214
178,825.3200096364251
179,825.2229888254875
180,825.1276388409281
181,825.0344539120284
182,824.943874055445
183,824.856276612972
184,824.7719678045595
185,824.6911749515739
186,824.6140401402123
187,824.5406161498674
188,824.4708654289963
189,824.4046626953476
190,824.3418013513746
191,824.2820034177275
192,824.2249322227799
193,824.170206750935
194,824.1174164375249
195,824.0661353797935
196,824.015935388239
197,823.9663978376523
198,823.9171246292801
199,823.8677486062501
200,823.8179435510665
201,823.7674336398317
202,823.7160020823027
203,823.6634986315079
204,823.6098456109083
205,823.5550420681119
206,823.4991657099251
207,823.4423724412077
208,823.3848935157596
209,823.327030388851
210,823.2691473381775
211,823.211661875973
212,823.155032979289
213,823.0997472742569
214,823.0463035494392
215,822.9951962521201
216,822.9468987683299
217,822.9018472280708
218,822.860425397902
219,822.8229510490977
220,822.7896640682961
221,822.7607164999864
222,822.7361646958511
223,822.7159638294673
224,822.6999651697728
225,822.6879165685887
226,822.679466515611
227,822.6741718544125
228,822.6715089202254
229,822.6708875620321
230,822.6716673053091
231,822.6731748094489
232,822.6747218019481
233,822.6756228373191
234,822.6752124570398
235,822.6728615159933
236,822.6679925350826
237,822.6600939152145
238,822.6487327137085
239,822.6335655179113
240,822.6143468709952
241,822.5909347998672
242,822.5632932722158
243,822.5314917716885
244,822.495702461142
245,822.4561954704518
246,822.4133326778702
247,822.3675600641152
248,822.3193985091813
249,822.2694329383057
250,822.2182999775266
251,822.1666745484578
252,822.1152559553346
253,822.0647540194326
254,822.0158758100338
255,821.9693135340362
256,821.9257340854476
257,821.8857705268915
258,821.8500153941528
259,821.8190153174626
260,821.7932662185897
261,821.7732083757203
262,821.7592209061613
263,821.7516155676085
264,821.7506301045311
265,821.7564215812565
266,821.7690601761147
267,821.7885237645961
268,821.8146934317532
269,821.8473500063673
270,821.8861718471002
271,821.9307343033307
272,821.980511358387
273,822.0348798960948
274,822.0931268850425
275,822.1544596073111
276,822.2180188553612
277,822.2828947933652
278,822.3481450141343
279,822.4128142766459
280,822.4759554388156
281,822.5366511316655
282,822.5940357225543
283,822.647317082074
284,822.6957976036481
285,822.7388938502676
286,822.7761541394394
287,822.8072733143318
288,822.832103914793
289,822.8506630667189
290,822.863134703467
291,822.8698670771035
292,822.8713657056721
293,822.8682819102601
294,822.8613970868286
295,822.8516029729093
296,822.839878394622
297,822.8272632144561
298,822.8148303635173
299,822.8036569050552
300,822.7947950488343
301,822.7892439514205
302,822.787923067264
303,822.7916478453783
304,822.801108666377
305,822.8168539022342
306,822.8392777352778
307,822.8686130008703
308,822.9049290142275
309,822.9481341810222
310,822.9979831277125
311,823.0540880421154
312,823.1159338120586
313,823.182896364431
314,823.254263417078
315,823.3292567779195
316,823.4070553648202
317,823.486818156946
318,823.5677062534484
319,823.6489031963149
320,823.729632827071
321,823.8091741814657
322,823.8868731865151
323,823.9621511410206
324,824.0345101238343
325,824.1035356089385
326,824.168896683452
327,824.2303443349737
328,824.2877082852882
329,824.3408928384704
330,824.3898722032462
331,824.4346856892645
332,824.4754330182826
333,824.5122697801854
334,824.5454028754135
335,824.57508561865
336,824.6016120250955
337,824.6253097720744
338,824.6465315573959
339,824.6656450268465
340,824.6830219364126
341,824.6990275580773
342,824.7140113980913
343,824.7283000534404
344,824.7421925950222
345,824.755958397731
346,824.7698369747211
347,824.784039192262
348,824.7987492370061
349,824.8141268035591
350,824.8303090838123
351,824.8474122211247
352,824.8655319372331
353,824.8847430984875
354,824.9050981266124
355,824.9266243749639
356,824.9493208049919
357,824.9731544306879
358,824.9980570324118
359,825.0239226088141
360,825.0506059687624
361,825.0779227717828
362,825.1056512241474
363,825.1335355483989
364,825.161291232404
365,825.1886118943266
366,825.2151774359799
367,825.2406631084699
368,825.2647492042835
369,825.2871312297677
370,825.3075304676065
371,825.3257047303639
372,825.3414588870843
373,825.3546545767948
374,825.365218539017
375,825.3731491753579
376,825.3785211651093
377,825.3814880771089
378,825.3822829520254
379,825.3812168229895
380,825.3786751166987
381,825.3751118327308
382,825.3710413619733
383,825.367027829624
384,825.3636719584434
385,825.3615955986745
386,825.3614242113276
387,825.363767730874
388,825.3692003923447
389,825.3782402662983
390,825.3913293795513
391,825.4088154021883
392,825.4309359379745
393,825.4578064509183
394,825.489412772432
395,825.5256089073172
396,825.5661204573862
397,825.610553474209
398,825.6584080889322
399,825.7090959716045
400,825.7619605590978
401,825.8162990021144
402,825.8713848640916
403,825.9264907058063
404,825.9809097436967
405,826.0339757652198
406,826.085080503235
407,826.1336877961033
408,826.1793440841591
409,826.2216850601801
410,826.2604385403482
411,826.2954237785331
412,826.3265474821827
413,826.3537967922144
414,826.3772295783322
415,826.3969625610695
416,826.4131578875981
417,826.4260088214749
418,826.4357252278328
419,826.4425195750907
420,826.4465941723612
421,826.448130289943
422,826.4472797202208
423,826.4441592678652
424,826.4388485736739
425,826.4313914962909
426,826.4218009656008
427,826.4100668418741
428,826.396165974173
429,826.3800734198138
430,826.3617736783156
431,826.3412708070077
432,826.3185964353661
433,826.2938149960135
434,826.267025900643
435,826.2383627990527
436,826.2079903739562
437,826.1760993228562
438,826.1429002653047
439,826.1086172787344
440,826.0734816366295
441,826.0377261736015
442,826.0015805521521
443,825.9652674961019
444,825.92899978413
445,825.8929775882411
446,825.857385716262
447,825.8223904681515
448,825.7881360565674
449,825.7547407915051
450,825.7222934261897
451,825.6908501679812
452,825.6604328598272
453,825.631028729933
454,825.6025919103602
455,825.5750467194973
456,825.5482925815414
457,825.5222104270907
458,825.4966704130253
459,825.4715407701182
460,825.4466975438148
461,825.4220349541222
462,825.3974760650707
463,825.3729834079129
464,825.3485691029102
465,825.324303840082
466,825.300323857098
467,825.2768349262117
468,825.2541124739303
469,825.2324973284917
470,825.2123870626332
471,825.1942232668816
472,825.1784752863364
473,825.1656210698497
474,825.1561259238916
475,825.1504201608852
476,825.1488768273031
477,825.1517908082474
478,825.1593605634022
479,825.1716735219582
480,825.1886958091137
481,825.2102666467583
482,825.2360975814837
483,825.2657765998354
484,825.2987770607884
485,825.3344711437913
486,825.3721472321909
487,825.4110304444337
488,825.4503054584186
489,825.4891407762982
490,825.5267135047776
491,825.5622335694727
492,825.5949662276466
493,825.6242519609139
494,825.6495232436883
495,825.670318036826
496,825.686289969211
497,825.6972150775767
498,825.7029948233899
499,825.7036550112081
500,825.6993402782927
501,825.6903040855509
502,825.6768945880275
503,825.6595372173139
504,825.63871509453
505,825.6149485052804
506,825.5887746906906
507,825.5607291627339
508,825.5313295935644
509,825.501063027275
510,825.4703767504355
511,825.43967273744
512,825.4093052831187
513,825.3795813134265
514,825.3507628977054
515,825.3230715744031
516,825.296694119465
517,825.2717892621033
518,825.2484946493656
519,825.2269332356084
520,825.2072183360749
521,825.1894568089391
522,825.173750102038
523,825.1601931333112
524,825.148871164041
525,825.1398549956764
526,825.13319496582
527,825.1289143085235
528,825.1270024628587
529,825.1274088571768
530,825.1300375785765
531,825.1347432065713
532,825.1413279955859
533,825.1495405377284
534,825.1590760005303
535,825.1695779982628
536,825.1806421291635
537,825.1918212090636
538,825.2026322339141
539,825.2125650724203
540,825.2210928370387
541,825.2276838364315
542,825.2318149431825
543,825.2329860608289
544,825.2307351503923
545,825.2246530580818
546,825.2143972687036
547,825.1997037308068
548,825.1803960362753
549,825.1563914849279
550,825.1277039250647
551,825.0944436190991
552,825.0568145359935
553,825.0151093516579
554,824.9697022299841
555,824.9210394143985
556,824.8696278367851
557,824.8160221829337
558,824.7608109816166
559,824.7046022955928
560,824.6480095426857
561,824.5916378888384
562,824.5360715461547
563,824.4818622062053
564,824.429518764395
565,824.3794984548679
566,824.3321995297179
567,824.2879556800767
568,824.2470324620612
569,824.2096259763937
570,824.1758639183643
571,824.1458089231296
572,824.1194639745046
573,824.096779536323
574,824.0776619343628
575,824.0619823503281
576,824.0495857036365
577,824.0402988133101
578,824.0339375221816
579,824.030312775183
580,824.0292358375409
581,824.0305228613747
582,824.0339988657935
583,824.0395009751815
584,824.0468806337728
585,824.0560045969363
586,824.0667547132552
587,824.0790266651227
588,824.0927278390909
589,824.1077744302532
590,824.1240878653032
591,824.1415906912545
592,824.1602021809579
593,824.1798339968155
594,824.2003862841658
595,824.2217445158705
596,824.2437773128358
597,824.266335380628
598,824.2892516541259
599,824.3123427103925
600,824.3354114559841
601,824.3582509856011
602,824.3806493549691
603,824.402394880573
604,824.4232815381051
605,824.4431140758297
606,824.4617125447076
607,824.4789160645581
608,824.4945857924125
609,824.5086071615023
610,824.5208914251025
611,824.531376407924
612,824.5400263096004
613,824.5468305353448
614,824.5518017801992
615,824.5549737903682
616,824.5563992340541
617,824.5561479196137
618,824.5543053145958
619,824.5509711308293
620,824.5462577627271
621,824.5402885427326
622,824.5331959516719
623,824.5251199770887
624,824.5162067483649
625,824.5066074744067
626,824.4964776443459
627,824.4859764427911
628,824.4752663556213
629,824.4645129545249
630,824.4538847804758
631,824.4435530722174
632,824.4336909093029
633,824.4244713318183
634,824.4160642265465
635,824.4086321295883
636,824.4023254105832
637,824.3972774603671
638,824.3936005406855
639,824.3913829806783
640,824.3906884010366
641,824.3915574488061
642,824.3940120602443
643,824.398061704649
644,824.403710669197
645,824.4109653512303
646,824.4198406445797
647,824.4303646942934
648,824.4425814977462
649,824.4565510570206
650,824.4723469985107
651,824.4900517242903
652,824.5097493066265
653,824.5315165972532
654,824.5554133664301
655,824.5814725123463
656,824.6096913524491
657,824.6400247896016
658,824.6723808561466
659,824.7066188155572
660,824.7425496670533
661,824.7799386333961
662,824.8185090989676
663,824.8579475144749
664,824.8979089381257
665,824.9380230642769
666,824.9779007348541
667,825.0171409959261
668,825.0553387515301
669,825.092093020156
670,825.1270157542175
671,825.159741136797
672,825.1899352154696
673,825.217305685415
674,825.2416115800123
675,825.2626725075464
676,825.2803768605403
677,825.2946881958005
678,825.3056488992795
679,825.3133804403353
680,825.3180799477589
681,825.3200133045832
682,825.3195052717952
683,825.3169272788883
684,825.312683548579
685,825.3071962390528
686,825.3008902957697
687,825.2941786537389
688,825.2874482976471
689,825.2810475303128
690,825.2752747169013
691,825.2703688147917
692,825.2665021189698
693,825.2637757105509
694,825.2622179575417
695,825.2617860935445
696,825.2623705683186
697,825.2638017081077
698,825.2658582769737
699,825.2682776798706
700,825.2707676393666
701,825.2730191126834
702,825.274720025281
703,825.2755692329556
704,825.2752901108851
705,825.2736432762771
706,825.2704380769599
707,825.265542584399
708,825.2588919210071
709,825.2504947830209
710,825.2404379439021
711,825.2288883899154
712,825.2160926721996
713,825.2023731323088
714,825.1881208341997
715,825.1737852302922
716,825.1598607667662
717,825.1468708129137
718,825.13534949383
719,825.1258222005767
720,825.1187857202568
721,825.1146890286979
722,825.1139157809401
723,825.1167694197862
724,825.1234616295632
725,825.1341046069165
726,825.1487073164119
727,825.1671755995369
728,825.189315797999
729,825.2148414928689
730,825.243383020965
731,825.2744995170109
732,825.3076932761843
733,825.3424262159302
734,825.3781381138094
735,825.4142660946013
736,825.4502645930281
737,825.4856248281975
738,825.5198927480741
739,825.5526844362506
740,825.583698095774
741,825.6127219142185
742,825.6396373578116
743,825.664417709911
744,825.687121906061
745,825.7078839069878
746,825.7268980340187
747,825.7444008989411
748,825.7606507831507
749,825.7759055623608
750,825.790400536988
751,825.8043277349756
752,825.8178182743496
753,825.8309291755237
754,825.8436356750166
755,825.8558296785726
756,825.8673245305797
757,825.8778657968091
758,825.887147280503
759,825.8948310484245
760,825.9005699056869
761,825.9040306001882
762,825.9049160875312
763,825.9029854236791
764,825.8980701971748
765,825.8900867491437
766,825.8790436792684
767,825.8650443211455
768,825.8482840927225
769,825.8290429721987
770,825.8076737881621
771,825.7845874079148
772,825.7602361142639
773,825.7350964198962
774,825.7096523535083
775,825.684380023397
776,825.6597341282247
777,825.6361369986465
778,825.6139705911529
779,825.5935715495048
780,825.5752290796904
781,825.5591851325797
782,825.5456363680694
783,825.5347375162818
784,825.5266058890782
785,825.5213268365454
786,825.5189599114377
787,825.519545440039
788,825.5231110921201
789,825.5296778928677
790,825.5392649896658
791,825.5518924698778
792,825.5675816754721
793,825.5863527615691
794,825.6082196216104
795,825.6331826466765
796,825.6612200088858
797,825.6922782063247
798,825.7262625159582
799,825.7630279136358
800,825.8023710404035
801,825.8440238413002
802,825.8876494317128
803,825.9328405671955
804,825.9791209341761
805,826.0259493780947
806,826.072727043837
807,826.118807141787
808,826.1635067227841
809,826.2061195897307
810,826.2459294226677
811,826.2822223847253
812,826.3142988350328
813,826.3414841588756
814,826.3631390000265
815,826.3786692892758
816,826.3875364259952
817,826.3892678118992
818,826.3834676719675
819,826.3698277830026
820,826.3481374873063
821,826.3182923155158
822,826.2803006851017
823,826.2342883494077
824,826.1805004061389
825,826.1193007363975
826,826.051168842222
827,825.9766942082839
828,825.8965684502905
829,825.8115755895078
830,825.7225808493115
831,825.6305184132748
832,825.5363785597659
833,825.4411944654144
834,825.3460288041152
835,825.2519601488239
836,825.1600691327465
837,825.0714242827393
838,824.9870673542583
839,824.9079979268168
840,824.835157061258
841,824.7694100001654
842,824.7115281412562
843,824.6621707572299
844,824.6218671456587
845,824.5910000609136
846,824.5697913912427
847,824.5582910672168
848,824.5563701035699
849,824.5637185102836
850,824.5798485997669
851,824.6041039623592
852,824.635674050203
853,824.6736139032056
854,824.7168681478191
855,824.764298116722
856,824.8147108352488
857,824.8668886490449
858,824.9196183346667
859,824.9717185981431
860,825.0220649514066
861,825.069611119744
862,825.1134063962619
863,825.1526086656656
864,825.1864930932526
865,825.2144566933408
866,825.2360191730755
867,825.2508206270279
868,825.2586168646014
869,825.2592733394057
870,825.2527586943257
871,825.2391387715035
872,825.2185716197495
873,825.1913036624527
874,825.1576668380679
875,825.1180762387993
876,825.0730275825952
877,825.0230937686393
878,824.9689197765979
879,824.9112152689173
880,824.850744447361
881,824.7883129853369
882,824.7247521735972
883,824.660900746845
884,824.5975851621888
885,824.5355993307143
886,824.4756849342037
887,824.4185134764142
888,824.3646711086535
889,824.314647047857
890,824.2688261275359
891,824.2274857399707
892,824.1907971543255
893,824.1588309181902
894,824.1315657819916
895,824.1089003869619
896,824.0906668698598
897,824.0766455191766
898,824.0665796118559
899,824.0601895787603
900,824.0571857198566
901,824.057278806368
902,824.0601880500673
903,824.0656460986331
904,824.0734009763294
905,824.0832152758962
906,824.0948633543259
907,824.1081275992427
908,824.1227948575962
909,824.1386538633114
910,824.1554940974478
911,824.1731061167692
912,824.1912831059011
913,824.20982328856
914,824.2285328484891
915,824.247229091048
916,824.2657436753499
917,824.2839258651296
