frame_number,force
0,828.7916260002229
1,828.4684931049906
2,828.1486075983306
3,827.8351315783574
4,827.5310609423938
5,827.2391526673086
6,826.9618632206038
7,826.7013001676573
8,826.4591882759247
9,826.2368507040792
10,826.0352051083723
11,825.8547736563809
12,825.6957050507461
13,825.5578058889415
14,825.4405782489634
15,825.3432604510486
16,825.2648684634746
17,825.2042361727152
18,825.160053454856
19,825.1309015200401
20,825.1152853546504
21,825.1116632873178
22,825.1184737832461
23,825.1341595972291
24,825.1571894475094
25,825.1860773936804
26,825.2194000857984
27,825.2558120233697
28,825.2940589569846
29,825.3329895998883
30,825.3715658947461
31,825.408872144848
32,825.4441232542641
33,825.4766720891167
34,825.5060156823847
35,825.5317997931023
36,825.553821225278
37,825.5720272712128
38,825.5865116653838
39,825.5975065646466
40,825.6053703295415
41,825.610571218739
42,825.6136674220511
43,825.6152840573857
44,825.6160878326755
45,825.6167601090984
46,825.6179691925678
47,825.6203428253473
48,825.6244419614651
49,825.6307369182383
50,825.6395868965676
51,825.6512237028937
52,825.6657403644052
53,825.6830852418617
54,825.7030621380525
55,825.7253366695173
56,825.7494488099055
57,825.7748311110832
58,825.8008317416858
59,825.8267411984475
60,825.8518213776359
61,825.8753356562594
62,825.8965787097324
63,825.9149049492327
64,825.929754651309
65,825.9406770291433
66,825.9473496481281
67,825.9495937467495
68,825.9473851891789
69,825.9408608777272
70,825.9303204395936
71,825.9162229511071
72,825.8991785087613
73,825.8799346371137
74,825.8593577852848
75,825.838410470522
76,825.8181249511157
77,825.7995745410556
78,825.78384367357
79,825.7719975936304
80,825.7650523202999
81,825.7639454635895
82,825.7695085872244
83,825.7824419015355
84,825.8032920277503
85,825.8324334405864
86,825.8700541172994
87,825.9161459834322
88,825.9705008440702
89,826.032712417472
90,826.1021847722421
91,826.1781470300516
92,826.2596737736795
93,826.3457102393517
94,826.4351010871583
95,826.5266213929108
96,826.6190085444172
97,826.7109939006871
98,826.8013332258895
99,826.8888349471457
100,826.9723853036319
101,827.05096962178
102,827.1236892850156
103,827.1897743040747
104,827.2485915786681
105,827.2996489943778
106,827.3425955730338
107,827.3772180668705
108,827.4034345651417
109,827.4212857421968
110,827.4309243198496
111,827.4326032557215
112,827.4266631846214
113,827.4135197054766
114,827.3936511320534
115,827.3675872380851
116,827.3358993184921
117,827.2991916220352
118,827.2580939773408
119,827.2132552817914
120,827.1653374407261
121,827.1150093253931
122,827.0629403966068
123,827.0097938392735
124,826.9562193248855
125,826.9028457685649
126,826.8502745840716
127,826.7990739271843
128,826.7497742707678
129,826.7028654118006
130,826.6587947357125
131,826.6179663479184
132,826.5807405828673
133,826.547433394614
134,826.5183151690062
135,826.4936085727454
136,826.4734852135251
137,826.4580611471711
138,826.4473915717791
139,826.4414652819188
140,826.4401995227142
141,826.443435776874
142,826.4509368336105
143,826.4623853350453
144,826.4773839021101
145,826.4954568959203
146,826.5160538756871
147,826.5385548529266
148,826.5622774625729
149,826.58648615101
150,826.6104034317848
151,826.6332231743927
152,826.6541257437453
153,826.6722946193366
154,826.6869339631568
155,826.6972864999275
156,826.7026509784753
157,826.7023983868551
158,826.695986081282
159,826.6829691534518
160,826.663008681488
161,826.6358768520982
162,826.6014591598414
163,826.5597539318204
164,826.5108693666906
165,826.4550182291268
166,826.3925103546898
167,826.3237431930145
168,826.2491907389729
169,826.1693913376006
170,826.0849349382255
171,825.9964503652159
172,825.9045930606727
173,825.8100336043567
174,825.7134472214618
175,825.6155044463588
176,825.5168630126011
177,825.418160827388
178,825.3200096361713
179,825.2229888252158
180,825.1276388406417
181,825.0344539117309
182,824.9438740551393
183,824.8562766126606
184,824.771967804245
185,824.6911749512591
186,824.6140401399002
187,824.5406161495611
188,824.4708654286984
189,824.4046626950609
190,824.3418013511016
191,824.2820034174697
192,824.2249322225376
193,824.1702067507083
194,824.1174164373136
195,824.066135379598
196,824.0159353880596
197,823.966397837489
198,823.9171246291326
199,823.8677486061175
200,823.8179435509483
201,823.7674336397265
202,823.7160020822091
203,823.6634986314244
204,823.6098456108338
205,823.5550420680453
206,823.4991657098655
207,823.4423724411537
208,823.3848935157097
209,823.3270303888029
210,823.2691473381284
211,823.2116618759202
212,823.1550329792294
213,823.099747274187
214,823.0463035493555
215,822.9951962520187
216,822.9468987682072
217,822.9018472279233
218,822.8604253977267
219,822.8229510488925
220,822.78966406806
221,822.7607164997189
222,822.7361646955527
223,822.7159638291394
224,822.6999651694177
225,822.6879165682093
226,822.6794665152103
227,822.6741718539934
228,822.671508919791
229,822.6708875615861
230,822.671667304855
231,822.6731748089896
232,822.6747218014868
233,822.6756228368589
234,822.6752124565836
235,822.6728615155438
236,822.6679925346425
237,822.6600939147858
238,822.6487327132924
239,822.6335655175078
240,822.614346870603
241,822.5909347994835
242,822.5632932718368
243,822.5314917713099
244,822.4957024607603
245,822.4561954700648
246,822.4133326774772
247,822.3675600637167
248,822.3193985087786
249,822.2694329378999
250,822.218299977118
251,822.1666745480463
252,822.1152559549204
253,822.0647540190156
254,822.0158758096142
255,821.9693135336142
256,821.9257340850237
257,821.885770526467
258,821.8500153937297
259,821.8190153170433
260,821.7932662181776
261,821.7732083753194
262,821.7592209057763
263,821.7516155672439
264,821.7506301041914
265,821.756421580945
266,821.7690601758335
267,821.7885237643451
268,821.8146934315304
269,821.8473500061694
270,821.8861718469236
271,821.9307343031714
272,821.9805113582404
273,822.0348798959561
274,822.0931268849071
275,822.154459607174
276,822.2180188552176
277,822.2828947932106
278,822.3481450139645
279,822.4128142764575
280,822.4759554386056
281,822.5366511314315
282,822.5940357222945
283,822.6473170817875
284,822.6957976033353
285,822.7388938499305
286,822.7761541390817
287,822.8072733139583
288,822.8321039144099
289,822.8506630663329
290,822.863134703085
291,822.8698670767321
292,822.8713657053179
293,822.8682819099291
294,822.8613970865265
295,822.8516029726396
296,822.8398783943869
297,822.827263214256
298,822.8148303633509
299,822.8036569049194
300,822.7947950487255
301,822.7892439513344
302,822.7879230671961
303,822.7916478453243
304,822.801108666333
305,822.8168539021968
306,822.8392777352439
307,822.8686130008366
308,822.9049290141913
309,822.9481341809807
310,822.9979831276632
311,823.054088042056
312,823.1159338119866
313,823.1828963643433
314,823.2542634169715
315,823.3292567777911
316,823.4070553646673
317,823.486818156766
318,823.5677062532394
319,823.6489031960751
320,823.7296328267993
321,823.8091741811617
322,823.8868731861797
323,823.9621511406552
324,824.0345101234411
325,824.1035356085205
326,824.1688966830125
327,824.2303443345162
328,824.2877082848169
329,824.3408928379904
330,824.3898722027636
331,824.4346856887862
332,824.4754330178158
333,824.5122697797365
334,824.5454028749876
335,824.5750856182513
336,824.6016120247266
337,824.6253097717365
338,824.6465315570888
339,824.6656450265687
340,824.6830219361613
341,824.6990275578485
342,824.7140113978802
343,824.7283000532424
344,824.7421925948325
345,824.7559583975446
346,824.7698369745325
347,824.784039192066
348,824.7987492367984
349,824.8141268033364
350,824.8303090835724
351,824.8474122208661
352,824.8655319369549
353,824.8847430981896
354,824.9050981262952
355,824.9266243746297
356,824.9493208046442
357,824.9731544303314
358,824.9980570320516
359,825.0239226084562
360,825.0506059684122
361,825.0779227714452
362,825.1056512238255
363,825.1335355480944
364,825.161291232118
365,825.1886118940594
366,825.2151774357303
367,825.2406631082362
368,825.2647492040626
369,825.2871312295556
370,825.3075304673981
371,825.3257047301537
372,825.3414588868663
373,825.3546545765629
374,825.3652185387642
375,825.3731491750773
376,825.3785211647943
377,825.3814880767536
378,825.3822829516255
379,825.3812168225421
380,825.3786751162025
381,825.3751118321861
382,825.3710413613819
383,825.3670278289894
384,825.3636719577704
385,825.3615955979687
386,825.3614242105951
387,825.3637677301211
388,825.3692003915785
389,825.3782402655258
390,825.3913293787796
391,825.4088154014245
392,825.4309359372251
393,825.4578064501894
394,825.4894127717293
395,825.5256089066448
396,825.5661204567473
397,825.6105534736056
398,825.6584080883649
399,825.7090959710731
400,825.761960558602
401,825.816299001654
402,825.8713848636663
403,825.9264907054156
404,825.9809097433395
405,826.0339757648942
406,826.085080502939
407,826.1336877958348
408,826.179344083915
409,826.2216850599568
410,826.2604385401418
411,826.2954237783395
412,826.326547481998
413,826.3537967920345
414,826.3772295781531
415,826.3969625608875
416,826.41315788741
417,826.4260088212778
418,826.4357252276244
419,826.4425195748687
420,826.4465941721234
421,826.4481302896868
422,826.4472797199429
423,826.4441592675628
424,826.4388485733443
425,826.4313914959326
426,826.4218009652133
427,826.4100668414574
428,826.3961659737283
429,826.3800734193436
430,826.3617736778227
431,826.3412708064965
432,826.3185964348417
433,826.2938149954815
434,826.2670259001095
435,826.2383627985233
436,826.2079903734367
437,826.1760993223518
438,826.1429002648205
439,826.1086172782756
440,826.0734816362012
441,826.037726173209
442,826.0015805517997
443,825.965267495793
444,825.9289997838661
445,825.8929775880222
446,825.8573857160867
447,825.8223904680169
448,825.7881360564689
449,825.7547407914371
450,825.7222934261459
451,825.6908501679555
452,825.6604328598139
453,825.6310287299269
454,825.6025919103568
455,825.5750467194923
456,825.5482925815307
457,825.5222104270707
458,825.4966704129929
459,825.4715407700712
460,825.4466975437517
461,825.4220349540418
462,825.3974760649724
463,825.3729834077963
464,825.348569102775
465,825.3243038399286
466,825.3003238569277
467,825.2768349260264
468,825.2541124737324
469,825.2324973282838
470,825.2123870624173
471,825.1942232666597
472,825.1784752861104
473,825.1656210696206
474,825.1561259236594
475,825.1504201606496
476,825.1488768270627
477,825.1517908080007
478,825.1593605631472
479,825.1716735216926
480,825.1886958088352
481,825.210266646465
482,825.2360975811742
483,825.265776599509
484,825.2987770604448
485,825.3344711434304
486,825.372147231813
487,825.4110304440393
488,825.4503054580083
489,825.489140775873
490,825.5267135043388
491,825.5622335690209
492,825.5949662271823
493,825.6242519604368
494,825.6495232431986
495,825.6703180363234
496,825.6862899686956
497,825.6972150770498
498,825.702994822853
499,825.7036550106635
500,825.6993402777432
501,825.6903040849999
502,825.6768945874784
503,825.6595372167706
504,825.6387150939959
505,825.6149485047581
506,825.588774690182
507,825.5607291622397
508,825.5313295930832
509,825.5010630268041
510,825.4703767499711
511,825.4396727369772
512,825.4093052826526
513,825.379581312952
514,825.3507628972179
515,825.3230715738977
516,825.2966941189372
517,825.2717892615501
518,825.2484946487849
519,825.2269332349988
520,825.2072183354359
521,825.1894568082713
522,825.1737501013428
523,825.1601931325905
524,825.1488711632969
525,825.1398549949112
526,825.1331949650365
527,825.1289143077246
528,825.1270024620477
529,825.1274088563573
530,825.1300375777535
531,825.1347432057498
532,825.1413279947715
533,825.149540536927
534,825.1590759997476
535,825.1695779975039
536,825.180642128433
537,825.191821208365
538,825.2026322332498
539,825.2125650717913
540,825.2210928364452
541,825.2276838358729
542,825.2318149426574
543,825.2329860603351
544,825.2307351499264
545,825.2246530576393
546,825.2143972682796
547,825.1997037303967
548,825.1803960358747
549,825.1563914845336
550,825.1277039246744
551,825.0944436187116
552,825.0568145356083
553,825.0151093512746
554,824.9697022296019
555,824.9210394140165
556,824.8696278364029
557,824.8160221825516
558,824.7608109812353
559,824.704602295213
560,824.6480095423082
561,824.5916378884642
562,824.5360715457854
563,824.4818622058417
564,824.4295187640381
565,824.3794984545185
566,824.3321995293767
567,824.2879556797433
568,824.2470324617341
569,824.2096259760712
570,824.1758639180441
571,824.1458089228092
572,824.1194639741811
573,824.0967795359937
574,824.0776619340248
575,824.0619823499782
576,824.0495857032713
577,824.0402988129263
578,824.0339375217753
579,824.0303127747501
580,824.0292358370772
581,824.0305228608761
582,824.0339988652559
583,824.039500974601
584,824.0468806331469
585,824.0560045962634
586,824.0667547125349
587,824.0790266643555
588,824.0927278382778
589,824.107774429396
590,824.1240878644047
591,824.1415906903189
592,824.1602021799898
593,824.17983399582
594,824.2003862831482
595,824.2217445148373
596,824.243777311794
597,824.2663353795842
598,824.2892516530868
599,824.3123427093644
600,824.3354114549732
601,824.3582509846132
602,824.3806493540093
603,824.4023948796456
604,824.4232815372135
605,824.4431140749756
606,824.4617125438914
607,824.4789160637793
608,824.4945857916692
609,824.508607160792
610,824.5208914244226
611,824.5313764072718
612,824.5400263089728
613,824.5468305347389
614,824.5518017796126
615,824.5549737897992
616,824.5563992335016
617,824.5561479190771
618,824.5543053140746
619,824.5509711303228
620,824.5462577622344
621,824.5402885422536
622,824.533195951207
623,824.5251199766379
624,824.5162067479291
625,824.5066074739866
626,824.4964776439425
627,824.4859764424057
628,824.4752663552551
629,824.4645129541789
630,824.4538847801506
631,824.4435530719134
632,824.4336909090202
633,824.4244713315562
634,824.4160642263031
635,824.4086321293604
636,824.4023254103665
637,824.3972774601572
638,824.3936005404776
639,824.3913829804683
640,824.3906884008213
641,824.3915574485826
642,824.39401206001
643,824.3980617044016
644,824.4037106689347
645,824.4109653509514
646,824.4198406442827
647,824.4303646939766
648,824.4425814974082
649,824.4565510566598
650,824.4723469981253
651,824.4900517238789
652,824.5097493061883
653,824.5315165967879
654,824.555413365939
655,824.5814725118325
656,824.6096913519174
657,824.6400247890571
658,824.6723808555943
659,824.706618815002
660,824.7425496664994
661,824.779938632847
662,824.8185090984254
663,824.857947513941
664,824.8979089376011
665,824.9380230637616
666,824.9779007343478
667,825.0171409954274
668,825.0553387510373
669,825.092093019667
670,825.127015753731
671,825.1597411363126
672,825.189935214987
673,825.2173056849344
674,825.2416115795344
675,825.2626725070718
676,825.2803768600695
677,825.2946881953335
678,825.3056488988154
679,825.3133804398726
680,825.3180799472959
681,825.3200133041192
682,825.3195052713297
683,825.3169272784214
684,825.3126835481112
685,825.3071962385848
686,825.3008902953018
687,825.2941786532715
688,825.2874482971803
689,825.2810475298456
690,825.2752747164319
691,825.270368814317
692,825.2665021184865
693,825.263775710057
694,825.262217957036
695,825.2617860930271
696,825.2623705677902
697,825.2638017075689
698,825.2658582764257
699,825.2682776793147
700,825.2707676388044
701,825.2730191121167
702,825.2747200247114
703,825.2755692323851
704,825.275290110316
705,825.2736432757122
706,825.2704380764026
707,825.2655425838526
708,825.2588919204745
709,825.2504947825039
710,825.240437943401
711,825.2288883894296
712,825.2160926717274
713,825.2023731318478
714,825.1881208337472
715,825.1737852298456
716,825.1598607663228
717,825.146870812471
718,825.1353494933861
719,825.1258222001308
720,825.1187857198084
721,825.1146890282475
722,825.1139157804887
723,825.1167694193344
724,825.1234616291122
725,825.1341046064673
726,825.1487073159651
727,825.1671755990925
728,825.1893157975568
729,825.2148414924286
730,825.2433830205262
731,825.274499516573
732,825.3076932757468
733,825.3424262154928
734,825.3781381133718
735,825.4142660941637
736,825.4502645925904
737,825.4856248277597
738,825.5198927476363
739,825.5526844358131
740,825.5836980953372
741,825.6127219137826
742,825.6396373573765
743,825.6644177094765
744,825.6871219056271
745,825.7078839065541
746,825.7268980335842
747,825.744400898505
748,825.7606507827121
749,825.7759055619194
750,825.7904005365442
751,825.8043277345299
752,825.8178182739034
753,825.8309291750783
754,825.8436356745725
755,825.85582967813
756,825.8673245301383
757,825.8778657963687
758,825.8871472800646
759,825.8948310479901
760,825.9005699052592
761,825.9040305997703
762,825.9049160871265
763,825.9029854232906
764,825.8980701968053
765,825.8900867487953
766,825.8790436789421
767,825.8650443208421
768,825.8482840924423
769,825.8290429719422
770,825.807673787929
771,825.7845874077054
772,825.7602361140779
773,825.7350964197323
774,825.7096523533638
775,825.6843800232683
776,825.6597341281071
777,825.6361369985351
778,825.6139705910429
779,825.5935715493914
780,825.5752290795697
781,825.5591851324483
782,825.5456363679251
783,825.5347375161234
784,825.5266058889052
785,825.5213268363575
786,825.5189599112348
787,825.519545439821
788,825.5231110918875
789,825.5296778926214
790,825.5392649894072
791,825.5518924696084
792,825.5675816751935
793,825.5863527612827
794,825.608219621317
795,825.6331826463763
796,825.6612200085792
797,825.6922782060112
798,825.7262625156371
799,825.7630279133057
800,825.8023710400623
801,825.8440238409454
802,825.887649431342
803,825.9328405668066
804,825.9791209337675
805,826.0259493776656
806,826.0727270433871
807,826.1188071413168
808,826.1635067222958
809,826.2061195892284
810,826.2459294221559
811,826.2822223842095
812,826.3142988345189
813,826.3414841583698
814,826.3631389995347
815,826.3786692888038
816,826.3875364255487
817,826.3892678114831
818,826.3834676715863
819,826.3698277826601
820,826.3481374870051
821,826.3182923152582
822,826.2803006848886
823,826.2342883492389
824,826.1805004060124
825,826.11930073631
826,826.0511688421699
827,825.9766942082623
828,825.8965684502937
829,825.8115755895293
830,825.7225808493437
831,825.6305184133095
832,825.5363785597947
833,825.4411944654291
834,825.3460288041084
835,825.2519601487885
836,825.160069132676
837,825.0714242826277
838,824.9870673541012
839,824.907997926611
840,824.8351570610015
841,824.7694099998581
842,824.7115281408994
843,824.662170756827
844,824.6218671452144
845,824.5910000604337
846,824.569791390733
847,824.5582910666835
848,824.5563701030188
849,824.5637185097206
850,824.5798485991974
851,824.6041039617878
852,824.6356740496342
853,824.6736139026432
854,824.7168681472659
855,824.7642981161806
856,824.8147108347221
857,824.8668886485356
858,824.9196183341776
859,824.971718597677
860,825.0220649509658
861,825.0696111193306
862,825.1134063958776
863,825.152608665312
864,825.186493092931
865,825.2144566930525
866,825.2360191728209
867,825.2508206268061
868,825.2586168644108
869,825.259273339244
870,825.2527586941908
871,825.2391387713927
872,825.2185716196602
873,825.1913036623815
874,825.1576668380102
875,825.11807623875
876,825.0730275825498
877,825.0230937685945
878,824.9689197765515
879,824.9112152688679
880,824.8507444473076
881,824.7883129852789
882,824.7247521735334
883,824.6609007467737
884,824.5975851621082
885,824.5355993306229
886,824.4756849341004
887,824.4185134762978
888,824.3646711085232
889,824.3146470477122
890,824.2688261273763
891,824.2274857397956
892,824.1907971541342
893,824.1588309179818
894,824.1315657817654
895,824.1089003867166
896,824.0906668695945
897,824.0766455188905
898,824.066579611548
899,824.0601895784299
900,824.0571857195033
901,824.0572788059917
902,824.0601880496686
903,824.0656460982129
904,824.0734009758884
905,824.0832152754352
906,824.0948633538457
907,824.1081275987442
908,824.1227948570806
909,824.1386538627809
910,824.1554940969048
911,824.1731061162169
912,824.191283105343
913,824.209823288
914,824.2285328479319
915,824.247229090498
916,824.2657436748111
917,824.2839258646059
