frame_number,force
0,828.791626030957
1,828.6587319023791
2,828.5260454780222
3,828.3937737500688
4,828.2621222926707
5,828.131294567599
6,828.0014912467243
7,827.8729095559362
8,827.7457426445899
9,827.6201789840408
10,827.4964017982456
11,827.374588528765
12,827.2549103358084
13,827.1375316363099
14,827.0226096795278
15,826.9102941604041
16,826.8007268708865
17,826.6940413895026
18,826.5903628095382
19,826.4898075061453
20,826.3924829425955
21,826.2984875157136
22,826.2079104402972
23,826.1208316720811
24,826.0373218685827
25,825.9574423869469
26,825.8812453176942
27,825.808773553076
28,825.7400608885697
29,825.6751321559135
30,825.6140033859999
31,825.5566819998678
32,825.5031670259184
33,825.4534493412935
34,825.4075119351622
35,825.3653301915259
36,825.3268721890855
37,825.2920990156961
38,825.2609650949629
39,825.2334185226309
40,825.2094014105894
41,825.1888502365387
42,825.1716961975853
43,825.1578655661995
44,825.1472800470834
45,825.1398571335974
46,825.1355104625143
47,825.134150166042
48,825.1356832201895
49,825.1400137886557
50,825.1470435614523
51,825.1566720874926
52,825.1687971003938
53,825.1833148367921
54,825.2001203465085
55,825.219107793884
56,825.2401707495128
57,825.2632024714961
58,825.2880961752455
59,825.3147452908239
60,825.343043706818
61,825.3728859998176
62,825.404167648713
63,825.4367852331974
64,825.4706366160545
65,825.5056211089976
66,825.5416396219948
67,825.5785947961856
68,825.6163911206675
69,825.6549350335621
70,825.6941350078398
71,825.7339016224264
72,825.7741476192022
73,825.8147879466452
74,825.8557397910527
75,825.8969225964585
76,825.9382580745587
77,825.9796702060779
78,826.0210852350139
79,826.062431657067
80,826.103640203421
81,826.1446438209762
82,826.1853776501479
83,826.2257790013348
84,826.2657873310761
85,826.3053442187785
86,826.3443933447735
87,826.3828804704173
88,826.4207534209047
89,826.4579620713499
90,826.4944583364302
91,826.5301961635851
92,826.5651315294633
93,826.5992224390477
94,826.6324289266674
95,826.6647130579701
96,826.6960389318837
97,826.7263726816439
98,826.7556824740008
99,826.7839385057116
100,826.8111129964221
101,826.837180177121
102,826.8621162735255
103,826.8858994839532
104,826.9085099513534
105,826.9299297292398
106,826.9501427413525
107,826.9691347350222
108,826.9868932283651
109,827.0034074515324
110,827.018668282287
111,827.0326681762217
112,827.0454010920259
113,827.0568624123114
114,827.0670488606047
115,827.0759584151413
116,827.0835902200612
117,827.0899444945424
118,827.0950224403446
119,827.0988261482228
120,827.101358503668
121,827.1026230924645
122,827.102624106624
123,827.1013662513832
124,827.0988546540899
125,827.0950947759446
126,827.0900923276153
127,827.0838531897261
128,827.076383339116
129,827.067688781606
130,827.0577754918289
131,827.0466493605092
132,827.0343161494725
133,827.0207814545909
134,827.0060506768118
135,826.9901290013793
136,826.9730213853464
137,826.9547325535254
138,826.9352670030797
139,826.9146290169895
140,826.8928226865623
141,826.8698519430101
142,826.8457205979287
143,826.8204323923529
144,826.7939910539243
145,826.7664003616051
146,826.7376642172998
147,826.7077867237019
148,826.6767722676282
149,826.6446256080459
150,826.6113519679315
151,826.5769571290194
152,826.5414475284113
153,826.5048303559015
154,826.4671136507993
155,826.4283063969818
156,826.3884186148858
157,826.3474614491315
158,826.3054472505037
159,826.2623896511499
160,826.2183036320789
161,826.1732055822796
162,826.127113348966
163,826.0800462785584
164,826.0320252480586
165,825.9830726865407
166,825.9332125865792
167,825.8824705055612
168,825.83087355698
169,825.778450391967
170,825.7252311714526
171,825.6712475294205
172,825.616532527749
173,825.5611206031253
174,825.5050475065423
175,825.4483502359222
176,825.391066962427
177,825.3332369509402
178,825.2749004751323
179,825.2160987274618
180,825.1568737245103
181,825.0972682081682
182,825.037325543347
183,824.977089613034
184,824.9166047116128
185,824.8559154374552
186,824.7950665858258
187,824.7341030431496
188,824.6730696836449
189,824.6120112691835
190,824.5509723530181
191,824.489997187729
192,824.4291296374691
193,824.3684130943786
194,824.307890398943
195,824.2476037641219
196,824.187594703265
197,824.1279039620671
198,824.0685714549556
199,824.0096362062864
200,823.9511362965827
201,823.8931088138897
202,823.8355898102182
203,823.778614262997
204,823.7222160414154
205,823.6664278774847
206,823.6112813416582
207,823.5568068229037
208,823.5030335131959
209,823.4499893964204
210,823.3977012416411
211,823.3461946006433
212,823.2954938096454
213,823.2456219950973
214,823.1966010835848
215,823.1484518159763
216,823.101193765989
217,823.0548453633025
218,823.0094239212216
219,822.9649456687787
220,822.9214257870713
221,822.8788784495648
222,822.8373168660542
223,822.7967533299932
224,822.7571992689489
225,822.7186652979402
226,822.6811612753561
227,822.6446963609989
228,822.6092790756203
229,822.5749173611608
230,822.5416186408015
231,822.5093898778856
232,822.4782376328001
233,822.4481681170059
234,822.4191872435454
235,822.3913006734856
236,822.3645138578396
237,822.3388320745356
238,822.3142604599886
239,822.2908040347935
240,822.2684677230806
241,822.2472563651808
242,822.2271747234462
243,822.208227481327
244,822.1904192360091
245,822.1737544850174
246,822.1582376071627
247,822.1438728381304
248,822.1306642409569
249,822.1186156717131
250,822.1077307408893
251,822.0980127711556
252,822.0894647522662
253,822.082089293912
254,822.0758885773398
255,822.0708643065739
256,822.0670176600529
257,822.0643492433746
258,822.0628590436374
259,822.0625463856475
260,822.0634098901123
261,822.0654474339289
262,822.0686561127624
263,822.073032206243
264,822.0785711462263
265,822.0852674886121
266,822.0931148891783
267,822.1021060837513
268,822.1122328728785
269,822.1234861110781
270,822.1358557007565
271,822.1493305909191
272,822.1638987807895
273,822.179547328363
274,822.1962623638033
275,822.2140291074641
276,822.2328318921767
277,822.2526541893093
278,822.2734786379934
279,822.2952870768842
280,822.3180605778296
281,822.3417794808481
282,822.3664234298278
283,822.3919714083638
284,822.4184017751493
285,822.4456922983323
286,822.473820188265
287,822.5027621280789
288,822.5324943015653
289,822.5629924179382
290,822.5942317332704
291,822.6261870686167
292,822.6588328249975
293,822.6921429954697
294,822.7260911745532
295,822.7606505653945
296,822.7957939851955
297,822.8314938695876
298,822.8677222767432
299,822.9044508920632
300,822.9416510342718
301,822.9792936637084
302,823.0173493935607
303,823.0557885047783
304,823.0945809654304
305,823.1336964552289
306,823.1731043957702
307,823.2127739868129
308,823.2526742486981
309,823.292774070878
310,823.333042266424
311,823.3734476323015
312,823.413959015076
313,823.4545453815595
314,823.4951758937475
315,823.5358199872982
316,823.5764474527645
317,823.6170285187645
318,823.6575339362082
319,823.6979350626503
320,823.7382039458681
321,823.7783134058475
322,823.8182371144892
323,823.8579496724368
324,823.8974266825128
325,823.9366448193223
326,823.9755818946568
327,824.0142169183823
328,824.0525301545327
329,824.0905031723499
330,824.1281188920493
331,824.1653616250957
332,824.2022171087394
333,824.2386725345054
334,824.2747165702751
335,824.3103393755747
336,824.3455326096548
337,824.3802894319795
338,824.4146044949143
339,824.4484739286831
340,824.4818953189507
341,824.5148676776249
342,824.5473914075327
343,824.579468261548
344,824.6111012965664
345,824.6422948225194
346,824.6730543464658
347,824.70338651174
348,824.7332990321534
349,824.7628006213216
350,824.7919009172625
351,824.8206104024689
352,824.848940319692
353,824.876902583717
354,824.9045096894846
355,824.9317746170279
356,824.9587107338101
357,824.9853316951132
358,825.0116513431451
359,825.037683605519
360,825.0634423937208
361,825.0889415021315
362,825.1141945081152
363,825.1392146736422
364,825.1640148488516
365,825.188607377873
366,825.2130040071406
367,825.2372157964095
368,825.2612530327274
369,825.285125147685
370,825.3088406382997
371,825.3324069918278
372,825.3558306146969
373,825.3791167656582
374,825.4022694932711
375,825.425291577918
376,825.4481844786562
377,825.4709482852676
378,825.4935816758705
379,825.5160818804522
380,825.5384446506474
381,825.5606642360502
382,825.5827333673085
383,825.6046432462335
384,825.6263835431855
385,825.6479424020329
386,825.66930645302
387,825.6904608338951
388,825.7113892196872
389,825.7320738615437
390,825.7524956350533
391,825.7726340984678
392,825.7924675611954
393,825.8119731628767
394,825.8311269632401
395,825.8499040427447
396,825.8682786137576
397,825.886224141679
398,825.9037134751371
399,825.9207189841612
400,825.9372127051267
401,825.9531664912207
402,825.9685521671717
403,825.9833416869983
404,825.9975072935272
405,826.0110216783986
406,826.0238581412763
407,826.0359907470232
408,826.0473944797174
409,826.0580453925229
410,826.0679207525679
411,826.0769991800765
412,826.085260781047
413,826.0926872728026
414,826.0992621018169
415,826.1049705533443
416,826.1097998524847
417,826.1137392563833
418,826.1167801373219
419,826.118916056544
420,826.1201428287018
421,826.1204585768429
422,826.1198637778652
423,826.1183612984001
424,826.1159564210973
425,826.1126568612611
426,826.1084727736894
427,826.1034167494373
428,826.0975038021163
429,826.0907513432834
430,826.0831791464775
431,826.07480929953
432,826.065666144905
433,826.0557762080326
434,826.0451681138591
435,826.0338724920987
436,826.0219218718765
437,826.0093505666001
438,825.9961945499792
439,825.9824913241386
440,825.9682797807368
441,825.9536000559617
442,825.9384933802196
443,825.9230019232613
444,825.907168635364
445,825.8910370851017
446,825.8746512942362
447,825.8580555703417
448,825.8412943379064
449,825.8244119687794
450,825.8074526129267
451,825.7904600305103
452,825.7734774262932
453,825.7565472873051
454,825.7397112245906
455,825.7230098197347
456,825.7064824767815
457,825.6901672801206
458,825.674100858886
459,825.6583182583726
460,825.6428528189199
461,825.6277360626638
462,825.6129975885016
463,825.5986649755616
464,825.5847636953742
465,825.5713170328161
466,825.558346015738
467,825.5458693530855
468,825.5339033813281
469,825.5224620191593
470,825.5115567306165
471,825.5011964969029
472,825.4913877972456
473,825.4821345991223
474,825.4734383582099
475,825.4652980284433
476,825.4577100826207
477,825.4506685439824
478,825.4441650291092
479,825.4381888023165
480,825.4327268414764
481,825.4277639149799
482,825.4232826694029
483,825.4192637273395
484,825.4156857947565
485,825.4125257770637
486,825.4097589029194
487,825.4073588546566
488,825.4052979041577
489,825.4035470529939
490,825.402076175603
491,825.4008541641971
492,825.3998490740746
493,825.3990282681387
494,825.3983585596552
495,825.3978063524924
496,825.3973377781807
497,825.3969188291238
498,825.3965154872644
499,825.3960938475099
500,825.3956202353039
501,825.395061317911
502,825.3943842092712
503,825.3935565685708
504,825.3925466928731
505,825.391323604267
506,825.3898571320572
507,825.3881179905455
508,825.3860778529203
509,825.3837094216588
510,825.3809864956787
511,825.3778840342925
512,825.3743782178904
513,825.3704465052447
514,825.3660676873582
515,825.3612219378355
516,825.3558908597721
517,825.350057529095
518,825.3437065341849
519,825.3368240115374
520,825.3293976772421
521,825.321416854158
522,825.3128724947838
523,825.3037571999216
524,825.2940652333002
525,825.2837925323929
526,825.2729367157046
527,825.2614970868315
528,825.2494746355669
529,825.236872036284
530,825.2236936437291
531,825.2099454862756
532,825.1956352566152
533,825.1807722998165
534,825.1653675986431
535,825.1494337559957
536,825.132984974315
537,825.1160370317766
538,825.0986072551107
539,825.080714488868
540,825.0623790609317
541,825.0436227440698
542,825.02446871331
543,825.0049414988608
544,824.9850669342285
545,824.9648720990937
546,824.9443852564972
547,824.923635783938
548,824.9026540981038
549,824.8814715731195
550,824.8601204524447
551,824.8386337547762
552,824.8170451744453
553,824.7953889767869
554,824.7736998889021
555,824.752012986268
556,824.7303635757758
557,824.708787075941
558,824.6873188951316
559,824.6659943086936
560,824.6448483358583
561,824.6239156172925
562,824.6032302941062
563,824.582825889093
564,824.5627351909376
565,824.5429901421045
566,824.5236217311125
567,824.504659889914
568,824.4861333971077
569,824.4680697876734
570,824.450495269817
571,824.4334346493741
572,824.4169112620965
573,824.400946914041
574,824.385561830164
575,824.3707746110842
576,824.3566021978793
577,824.3430598447786
578,824.3301610997111
579,824.3179177927553
580,824.306340032589
581,824.2954362109806
582,824.2852130152453
583,824.2756754484143
584,824.2668268567523
585,824.2586689642511
586,824.2512019137865
587,824.2444243146593
588,824.238333296198
589,824.2329245670323
590,824.2281924796009
591,824.2241300994544
592,824.2207292789438
593,824.2179807349024
594,824.2158741299269
595,824.2143981568227
596,824.2135406257173
597,824.2132885532951
598,824.2136282535796
599,824.2145454296767
600,824.2160252658673
601,824.2180525193952
602,824.2206116112308
603,824.2236867150449
604,824.2272618436283
605,824.231320932044
606,824.2358479168668
607,824.2408268109652
608,824.2462417733884
609,824.2520771740111
610,824.258317652621
611,824.264948172105
612,824.2719540654123
613,824.2793210760867
614,824.2870353923341
615,824.295083674744
616,824.3034530778416
617,824.312131265595
618,824.3211064209074
619,824.3303672490846
620,824.3399029753199
621,824.349703336375
622,824.3597585667753
623,824.3700593798981
624,824.3805969443439
625,824.391362855965
626,824.402349105924
627,824.4135480451782
628,824.4249523458283
629,824.4365549597934
630,824.4483490752617
631,824.4603280712874
632,824.4724854708298
633,824.4848148925255
634,824.4973100016077
635,824.5099644605641
636,824.5227718802702
637,824.5357257724141
638,824.5488195040247
639,824.56204625491
640,824.5753989787928
641,824.5888703687958
642,824.6024528276708
643,824.6161384428435
644,824.6299189661139
645,824.6437857977675
646,824.6577299748745
647,824.671742163604
648,824.6858126554423
649,824.6999313672829
650,824.7140878454027
651,824.7282712733792
652,824.7424704840339
653,824.7566739755599
654,824.7708699321337
655,824.7850462493727
656,824.7991905649437
657,824.8132902944736
658,824.8273326727249
659,824.8413047997998
660,824.8551936919282
661,824.8689863362288
662,824.8826697487466
663,824.8962310350705
664,824.9096574528903
665,824.9229364759259
666,824.9360558587238
667,824.9490037018431
668,824.9617685169486
669,824.974339291301
670,824.9867055511249
671,824.9988574233223
672,825.0107856949912
673,825.0224818702048
674,825.0339382235068
675,825.0451478495481
676,825.0561047082181
677,825.0668036645399
678,825.077240522602
679,825.0874120529301
680,825.0973160129664
681,825.1069511605983
682,825.1163172608816
683,825.1254150862117
684,825.1342464102521
685,825.1428139959784
686,825.1511215782332
687,825.1591738412098
688,825.1669763912358
689,825.1745357251879
690,825.1818591948506
691,825.1889549675868
692,825.1958319837594
693,825.2024999114058
694,825.208969098606
695,825.2152505238406
696,825.2213557444824
697,825.2272968434949
698,825.2330863744487
699,825.2387373050532
700,825.2442629594541
701,825.2496769595238
702,825.2549931652777
703,825.2602256144751
704,825.2653884614583
705,825.2704959153468
706,825.275562177768
707,825.2806013803621
708,825.2856275223497
709,825.2906544084623
710,825.2956955874984
711,825.3007642917012
712,825.3058733771073
713,825.3110352650458
714,825.3162618850515
715,825.3215646195345
716,825.3269542506235
717,825.3324409096703
718,825.3380340299731
719,825.3437423033558
720,825.3495736412854
721,825.3555351412276
722,825.361633058901
723,825.3678727869868
724,825.3742588407139
725,825.3807948505624
726,825.3874835621274
727,825.3943268429862
728,825.4013256962636
729,825.4084802805073
730,825.415789935476
731,825.4232532134398
732,825.4308679155808
733,825.4386311330347
734,825.4465392920282
735,825.45458820244
736,825.4627731089626
737,825.471088743927
738,825.4795293808032
739,825.4880888873926
740,825.4967607777945
741,825.5055382623266
742,825.514414294704
743,825.5233816159351
744,825.5324327945273
745,825.5415602627096
746,825.5507563484983
747,825.5600133035617
748,825.5693233269797
749,825.5786785851528
750,825.5880712282786
751,825.5974934039535
752,825.6069372685046
753,825.6163949965962
754,825.6258587895181
755,825.6353208823975
756,825.6447735503807
757,825.6542091136276
758,825.6636199407642
759,825.6729984502531
760,825.6823371090163
761,825.6916284276041
762,825.7008649512704
763,825.7100392464841
764,825.7191438826115
765,825.7281714087237
766,825.7371143256427
767,825.7459650534726
768,825.7547158950094
769,825.7633589956228
770,825.7718863004576
771,825.780289510023
772,825.7885600353557
773,825.7966889539432
774,825.8046669674809
775,825.8124843624299
776,825.8201309742635
777,825.8275961562352
778,825.8348687534034
779,825.8419370824649
780,825.8487889177363
781,825.8554114834535
782,825.8617914525126
783,825.8679149517969
784,825.8737675742534
785,825.879334397847
786,825.884600011446
787,825.8895485475967
788,825.8941637220232
789,825.8984288795476
790,825.9023270459907
791,825.9058409855312
792,825.9089532630137
793,825.9116463107712
794,825.9139024996557
795,825.915704214075
796,825.9170339308819
797,825.9178743019237
798,825.9182082399624
799,825.9180190075699
800,825.9172903085692
801,825.9160063815754
802,825.9141520951126
803,825.9117130436701
804,825.9086756439532
805,825.9050272305257
806,825.9007561499583
807,825.8958518524739
808,825.8903049799255
809,825.8841074488378
810,825.8772525272461
811,825.8697349042118
812,825.8615507511184
813,825.8526977741199
814,825.8431752573086
815,825.8329840963145
816,825.8221268221045
817,825.8106076147726
818,825.7984323070692
819,825.7856083773645
820,825.7721449317254
821,825.7580526748637
822,825.7433438698986
823,825.7280322870909
824,825.7121331418858
825,825.6956630227342
826,825.6786398093125
827,825.6610825819421
828,825.6430115231583
829,825.6244478125028
830,825.6054135157121
831,825.5859314695539
832,825.5660251635976
833,825.5457186201833
834,825.5250362737836
835,825.5040028509076
836,825.4826432516629
837,825.4609824340454
838,825.4390453019554
839,825.4168565978541
840,825.3944408009324
841,825.3718220316864
842,825.3490239638311
843,825.3260697445105
844,825.3029819237663
845,825.2797823941987
846,825.2564923416887
847,825.233132207936
848,825.2097216653983
849,825.1862796050046
850,825.1628241367765
851,825.1393726032389
852,825.1159416052094
853,825.0925470392327
854,825.0692041456105
855,825.0459275657372
856,825.0227314073076
857,824.9996293158972
858,824.9766345513848
859,824.953760067665
860,824.9310185941047
861,824.908422717249
862,824.8859849614101
863,824.863717866929
864,824.8416340650544
865,824.8197463485238
866,824.7980677370679
867,824.7766115372015
868,824.7553913958383
869,824.73442134743
870,824.7137158544389
871,824.6932898409578
872,824.6731587192256
873,824.6533384086972
874,824.633845347252
875,824.6146964940809
876,824.5959093238035
877,824.5775018114144
878,824.5594924077739
879,824.541900005495
880,824.5247438952705
881,824.508043712901
882,824.491819377527
883,824.4760910218006
884,824.4608789149506
885,824.4462033798657
886,824.4320847054253
887,824.4185430553582
888,824.405598374877
889,824.3932702962404
890,824.3815780442662
891,824.3705403426727
892,824.360175321981
893,824.3505004295587
894,824.3415323422246
895,824.3332868817133
896,824.3257789332114
897,824.319022367145
898,824.3130299643478
899,824.3078133447096
900,824.3033828993939
901,824.2997477267332
902,824.296915571931
903,824.2948927707432
904,824.2936841974021
905,824.29329321719
906,824.293721644256
907,824.2949697053809
908,824.2970360103694
909,824.2999175295763
910,824.3036095788342
911,824.3081058118134
912,824.3133982196673
913,824.3194771377249
914,824.3263312589759
915,824.333947654103
916,824.3423117978471
917,824.3514076015267
