acceleration,velocity,displacement
0.044334801757479385,0.0,0.0
0.04275469018894747,2.1772372986606713e-05,5.443093246651678e-09
0.041177048224195364,4.275530758989242e-05,2.157501339077646e-08
0.039604337000867,6.295065389615802e-05,4.800150376228907e-08
0.03803900079621307,8.236148834542804e-05,8.432953932268558e-08
0.03648345877127327,0.00010099210323729962,1.301679372183675e-07
0.03494009691516416,0.00011884799215890898,1.8512796106741965e-07
0.03341126024427486,0.00013593583144876873,2.488239169693391e-07
0.031899245304991296,0.00015226345783608526,3.2087373929055263e-07
0.030406293022267543,0.00016783984241789998,4.008995643540489e-07
0.02893458192947364,0.0001826750611558353,4.885282902474827e-07
0.027486221807270745,0.0001967802620900214,5.833921210589468e-07
0.026063247751039624,0.000210167629479599,6.851290939513519e-07
0.024667614678595504,0.00022285034508700777,7.933835875930036e-07
0.02330119228407069,0.0002348425468276743,9.078068105716741e-07
0.021965760440750895,0.0002461592850088797,1.0280572685308126e-06
0.020663005055301106,0.0002568164763828927,1.1538012088787558e-06
0.01939451437679545,0.00026683085624091684,1.2847130420347083e-06
0.018161775764760423,0.00027621992877630583,1.4204757382890139e-06
0.016966172920085214,0.0002850019159475172,1.5607811994699695e-06
0.015808983581375592,0.0002931957050728824,1.7053306047250694e-06
0.014691377687160903,0.00030082079539001653,1.8538347298407942e-06
0.013614416001637314,0.0003078972438122161,2.006014239641352e-06
0.01257904919872283,0.0003144456101123061,2.1615999531224826e-06
0.011586117396500195,0.0003204869017611119,2.320333081090837e-06
0.01063635013159744,0.0003260425186431363,2.4819654361918992e-06
0.009730366760450951,0.0003311341978661484,2.6462596153192206e-06
0.008868677272054804,0.00033578395887427483,2.8129891545043262e-06
0.008051683494730589,0.0003400140490659712,2.981938656489388e-06
0.007279680677916306,0.0003438468901091329,3.152903891283164e-06
0.006552859428970051,0.0003473050251358545,3.325691870094411e-06
0.005871307984064893,0.0003504110669891132,3.5001208931256527e-06
0.005235014790888899,0.00035318764768285166,3.676020571793644e-06
0.004643871378632483,0.000355657369225232,3.853231826020665e-06
0.004097675488466259,0.00035784275594200667,4.031606857312475e-06
0.003596134436097237,0.0003597662084231475,4.211009098403763e-06
0.003138868677188273,0.0003614499592014689,4.391313140309918e-06
0.00272541554622428,0.00036291603025732206,4.572404637674615e-06
0.0023552331397425803,0.0003641861924288138,4.754180193346149e-06
0.0020277043160018657,0.0003652819267927499,4.93654722315154e-06
0.0017421407851999544,0.0003662243880680503,5.11942380186674e-06
0.0014977872670120978,0.0003670343700811033,5.302738491404028e-06
0.001293825694839902,0.00036773227332156634,5.486430152254695e-06
0.0011293794481412325,0.0003683380746073116,5.670447739236915e-06
0.0010035175956037516,0.00036887129886824786,5.854750082605805e-06
0.0009152591330439775,0.0003693509930504098,6.03930565558547e-06
0.000863577201445275,0.00036979570213403214,6.2240923293815806e-06
0.0008474032725027966,0.0003702234472525192,6.409097116728218e-06
0.0008656312906979189,0.0003706517058933194,6.5943159050146775e-06
0.0009171217621345233,0.0003710973941565275,6.77975318002714e-06
0.0010007057807736417,0.00037157685104225455,6.9654217413268355e-06
0.0011151889829057464,0.0003721058247331744,7.151342410270693e-06
0.0012593554209486813,0.000372699460834138,7.337543731662521e-06
0.0014319713482080412,0.00037337229252642714,7.524061670002663e-06
0.0016317889067572204,0.00037413823259016847,7.710939301281812e-06
0.0018575497103077874,0.0003750105672444347,7.898226501240464e-06
0.0021079883129216277,0.00037600195175024203,8.085979630989133e-06
0.002381835553115932,0.0003771244077167514,8.274261220855882e-06
0.0026778217618293617,0.00037838932204548774,8.463139653296441e-06
0.002994679822205415,0.0003798074474414964,8.652688845668187e-06
0.003331148069236886,0.00038138890441435697,8.84298793363215e-06
0.0036859730182763847,0.0003831431846862353,9.034120955907298e-06
0.004057911913029163,0.00038507915591906166,9.226176541058622e-06
0.004445735085751843,0.0003872050676687569,9.419247596955577e-06
0.004848228124652935,0.00038952855847135807,9.613431003490606e-06
0.005264193845713238,0.00039205666396394963,9.808827309099433e-06
0.00569245406817189,0.00039479582594242093,1.0005540431576026e-05
0.006131851194898662,0.0003977519022581886,1.0203677363626178e-05
0.0065812496009899435,0.00040093017745716075,1.0403347883555015e-05
0.007039536835445206,0.0004043353740662695,1.0604664271435872e-05
0.00750562464162017,0.00040797166443553586,1.0807741031061324e-05
0.007978449802686822,0.0004118426830466126,1.101269461793186e-05
0.00845697481935235,0.00041595153920212237,1.1219643173494045e-05
0.008940188428778757,0.00042030083001415514,1.1428706265798115e-05
0.009427105975802224,0.0004248926536153004,1.164000463670548e-05
0.00991676964975605,0.00042972862252168995,1.1853659955739727e-05
0.010408248602482696,0.00043480987708474964,1.2069794580641337e-05
0.010900638964580293,0.0004401370989765154,1.2288531324656654e-05
0.01139306377697098,0.0004457105246619032,1.250999323056626e-05
0.011884672853329233,0.0004515299588194783,1.2734303351436605e-05
0.012374642587230918,0.00045759478767961833,1.2961584538061379e-05
0.012862175717128178,0.0004639039922557081,1.3191959233045211e-05
0.013346501062375489,0.00047045616145058403,1.3425549271471784e-05
0.013826873243433667,0.0004772495050270363,1.3662475688091189e-05
0.014302572398380911,0.00048428186643748993,1.3902858530957321e-05
0.014772903906194703,0.0004915507355136338,1.4146816681445103e-05
0.015237198125857143,0.0004990532610216467,1.4394467680578922e-05
0.015694810159737466,0.0005067862630930454,1.4645927561607595e-05
0.01614511964925405,0.0005147462455452933,1.4901310688767179e-05
0.016587530609370446,0.0005229294081099494,1.5160729602180989e-05
0.017021471305461645,0.0005313316585886574,1.542429486885564e-05
0.017446394172453146,0.0005399486249581361,1.569211493974234e-05
0.017861775772572447,0.0005487756674443924,1.5964296012842972e-05
0.018267116784944717,0.0005578078905837718,1.6240941902350014e-05
0.018661942017630013,0.0005670401552844154,1.652215391381706e-05
0.019045800431069158,0.0005764670908965902,1.6808030725362313e-05
0.01941826516141471,0.0005860831072947111,1.709866827491014e-05
0.019778933532741214,0.0005958824069682502,1.7394159653475878e-05
0.02012742704761683,0.0006058589971133397,1.7694595004496276e-05
0.020463391345399543,0.0006160067017115938,1.8000061429202508e-05
0.02078649611759818,0.0006263191735773432,1.8310642898024743e-05
0.021096434970594043,0.0006367899063493913,1.8626420168006427e-05
0.02139292522809813,0.0006474122463990643,1.894747070619354e-05
0.02167570766804228,0.0006581794046230994,1.927386861894908e-05
0.021944546190039774,0.0006690844680876199,1.960568458712676e-05
0.02219922741031576,0.0006801204114877088,1.9942985807020592e-05
0.02243956018209345,0.0006912801083858111,2.028583593698897e-05
0.022665375041095465,0.0007025563421916084,2.0634295049633325e-05
0.02287652357768775,0.0007139418168463042,2.09884195893928e-05
0.02307287773833579,0.00072542916717531,2.1348262335398206e-05
0.023254329059614536,0.0007370109688747976,2.1713872369410732e-05
0.023420787838502884,0.000748679748099327,2.2085295048654263e-05
0.023572182243799204,0.0007604279906199026,2.2462571983334072e-05
0.023708457374743426,0.0007722481505245383,2.2845741018620182e-05
0.02382957427405856,0.0007841326584367387,2.3234836220860502e-05
0.023935508902957044,0.0007960739292309926,2.3629887867777435e-05
0.02402625108526262,0.0008080643692280475,2.4030922442392194e-05
0.024101803427000877,0.0008200963828561133,2.4437962630413234e-05
0.02416218021709929,0.0008321623787671383,2.485102732081905e-05
0.02420740631464014,0.0008442547754000732,2.527013160936085e-05
0.024237516028120687,0.0008563660059857633,2.569528680470731e-05
0.024252551992523443,0.0008684885229909244,2.612650043695148e-05
0.02425256405088374,0.0008806148020017761,2.6563776268199656e-05
0.02423760814847573,0.000892737345051616,2.7007114304963004e-05
0.024207745249481834,0.0009048486834011053,2.7456510812076183e-05
0.02416304028759077,0.0009169413797853735,2.7911958327872805e-05
0.024103561162660107,0.0009290080301479363,2.8373445680356133e-05
0.024029377795330414,0.0009410412648874339,2.8840958004114976e-05
0.02394056125023067,0.0009530337496488242,2.931447675774904e-05
0.02383718293659217,0.0009649781856955299,2.979397974158513e-05
0.02371931389281614,0.000976867309902882,3.0279441115484732e-05
0.023587024159631455,0.0009886938944159939,3.077083141656445e-05
0.023440382245163732,0.0010004507460171926,3.126811757667275e-05
0.02327945468434616,0.00101213070524957,3.177126293948944e-05
0.02310430569446046,0.0010237266453442717,3.22802272771379e-05
0.02291499692807184,0.0010352314709999048,3.2794966806223944e-05
0.022711587324556932,0.001046638117063062,3.331543420323968e-05
0.02249413306194545,0.0010579395471596877,3.384157861929537e-05
0.02226268761152361,0.001069128752328055,3.437334569416731e-05
0.022017301897937887,0.0010801987497054205,3.4910677569675676e-05
0.021758024566848375,0.001091142581321617,3.5453512902432434e-05
0.021484902360373682,0.0011019533130534225,3.6001786876026194e-05
0.02119798059840117,0.0011126240337931163,3.655543121273783e-05
0.02089730376184517,0.0011231478548831778,3.711437418490691e-05
0.02058291617237324,0.0011335179098667324,3.767854062609438e-05
0.020254862761858037,0.0011437273546002903,3.8247851942211135e-05
0.01991318992395529,0.0011537693677717436,3.8822226122804145e-05
0.019557946439702885,0.0011636371518626582,3.940157775271275e-05
0.019189184468362885,0.0011733239345896747,3.998581802432583e-05
0.018806960594071363,0.0011828229708552834,4.0574854750687074e-05
0.01841133691803227,0.0011921275452333093,4.116859237970922e-05
0.018002382185086024,0.0012012309750090888,4.1766932009769816e-05
0.017580172932387058,0.001210126613788457,4.23697714069692e-05
0.01714479464661356,0.0012188078556832072,4.297700502433712e-05
0.016696342915174134,0.0012272681400736542,4.3588524023276333e-05
0.016234924556393616,0.001235500956941546,4.420421629753013e-05
0.015760658713293903,0.001243499852758968,4.482396649995526e-05
0.015273677895441045,0.0012512584369111517,4.544765607237279e-05
0.01477412895370161,0.0012587703886234372,4.6075163278756437e-05
0.014262173974348999,0.0012660294643554498,4.670636324200116e-05
0.01373799108162069,0.0012730295056194423,4.734112798449488e-05
0.013201775140640316,0.0012797644471750076,4.797932647269349e-05
0.012653738354833964,0.0012862283255488762,4.8620824665874466e-05
0.012094110753194819,0.0012924152878258835,4.926548556921816e-05
0.01152314056333413,0.0012983196006550158,4.991316929133838e-05
0.010941094467005434,0.0013039356594126007,5.056373310635529e-05
0.010348257735989252,0.0013092579974633494,5.121703152057428e-05
0.009744934247690774,0.0013142812954592695,5.1872916343804934e-05
0.009131446381623868,0.0013190003906165982,5.25312367653239e-05
0.008508134799821413,0.0013234102859119596,5.319183943445604e-05
0.007875358115832815,0.0013275061591408732,5.385456854571925e-05
0.007233492457814269,0.001331283371784285,5.4519265928450536e-05
0.006582930931593217,0.0013347374776316368,5.518577114080452e-05
0.0059240829894802345,0.0013378642311119052,5.5853921567990406e-05
0.0052573737108801075,0.0013406595952869954,5.652355252459013e-05
0.0045832430011971655,0.0013431197494650146,5.719449736077813e-05
0.0039021447156529867,0.001345241096394227,5.786658757224294e-05
0.0032145457138275965,0.0013470202690015972,5.8539652913591895e-05
0.002520924849776883,0.0013484541366424983,5.921352151500292e-05
0.0018217719019504152,0.0013495398108304302,5.988802000187115e-05
0.0011175864476231695,0.0013502746504178236,6.0562973617183214e-05
0.0004088766879942662,0.001350656266201728,6.12382063463381e-05
-0.0003038417680139076,0.001350682524931723,6.191354104412147e-05
-0.00102004715155883,0.00135035155270183,6.258879956352985e-05
-0.0017392128022909088,0.0013496617377133674,6.326380288613366e-05
-0.0024608084454419924,0.0013486117324014342,6.393837125366236e-05
-0.0031843014651898455,0.0013472004549237762,6.461232430049366e-05
-0.003909158161811245,0.001345427090017026,6.528548118672886e-05
-0.004634844980723008,0.0013432910892313924,6.595766073154096e-05
-0.005360829703141797,0.0013407921705604262,6.662868154648892e-05
-0.006086582590765958,0.0013379303174869493,6.729836216850076e-05
-0.0068115774802876405,0.0013347057774691859,6.796652119223979e-05
-0.00753529282680521,0.0013311190598924126,6.863297740158019e-05
-0.008257212697647199,0.0013271709335112994,6.929754989993112e-05
-0.008976827719319375,0.0013228624234070578,6.99600582391607e-05
-0.009693635979609285,0.0013181948074823258,7.062032254688305e-05
-0.010407143884672572,0.0013131696125162553,7.12781636518827e-05
-0.011116866968079897,0.0013077886098030672,7.193340320746253e-05
-0.011822330647175874,0.0013020538103992534,7.25858638125131e-05
-0.012523070922259546,0.0012959674600068946,7.323536913011464e-05
-0.013218635015797738,0.0012895320335223803,7.388174400349696e-05
-0.013908581950829191,0.0012827502292807236,7.452481456919773e-05
-0.014592483068843337,0.0012756249630258055,7.516440836727436e-05
-0.015269922488108283,0.0012681593616365675,7.580035444843996e-05
-0.015940497503870082,0.001260356756638573,7.643248347800874e-05
-0.016603818932419762,0.0012522206775295005,7.706062783655076e-05
-0.017259511400975997,0.0012437548449461516,7.768462171716967e-05
-0.017907213584626994,0.0012349631636997507,7.830430121933115e-05
-0.018546578390708758,0.0012258497157059168,7.891950443918257e-05
-0.019177273090741347,0.0012164187528355542,7.953007155631794e-05
-0.019798979400478745,0.0012066746897127492,8.013584491695501e-05
-0.02041139350912124,0.0011966220964853493,8.073666911350453e-05
-0.02101422605896232,0.0011862656915933283,8.13323910605242e-05
-0.021607202076447396,0.001175610334559476,8.19228600670624e-05
-0.022190060854406425,0.0011646610188267624,8.250792790540896e-05
-0.022762555783857313,0.0011534228646671964,8.308744887628246e-05
-0.02332445413324429,0.0011419011121879211,8.366127987049624e-05
-0.023875536773625784,0.0011301011144612036,8.422928042715853e-05
-0.024415597849758986,0.0011180283308053574,8.479131278847517e-05
-0.024944444398400458,0.0011056883202433174,8.534724195123733e-05
-0.025461895916258616,0.0010930867351646525,8.589693571508932e-05
-0.02596778388078814,0.0010802293152153907,8.644026472768433e-05
-0.026461951227490933,0.0010671218814383209,8.697710252684776e-05
-0.02694425178716509,0.0010537703306846568,8.75073255798785e-05
-0.02741454968600679,0.001040180630316364,8.803081332012876e-05
-0.027872718711409204,0.00102635881321701,8.85474481810121e-05
-0.028318641647101232,0.0010123109731273825,8.905711562759819e-05
-0.028752209583006134,0.0009980432603198556,8.955970418596e-05
-0.02917332120736127,0.0009835618776222637,9.005510547044553e-05
-0.029581882090471964,0.0009688730767978054,9.054321420905055e-05
-0.029977803970694366,0.0009539831552825138,9.102392826707063e-05
-0.0303610040538573,0.0009388984532763758,9.149714866921036e-05
-0.030731404336941017,0.0009236253511786763,9.196277962032412e-05
-0.03108893096565615,0.000908170267353027,9.242072852495705e-05
-0.03143351363391436,0.0008925396562031344,9.28709060058461e-05
-0.03176508503161006,0.0008767400065367533,9.331322592153107e-05
-0.03208358034618366,0.0008607778401923049,9.374760538321334e-05
-0.03238893682305298,0.0008446597108999958,9.417396477098642e-05
-0.032681093390229184,0.0008283922033466752,9.459222774954808e-05
-0.03295999035282561,0.0008119819324109114,9.500232128348748e-05
-0.033225569162917794,0.0007954355425319756,9.54041756522232e-05
-0.033477772268957304,0.0007787597071740068,9.57977244646497e-05
-0.03371654304656418,0.0007619611283451264,9.618290467352948e-05
-0.03394182580950299,0.0007450465361311096,9.655965658964854e-05
-0.03415356589721865,0.0007280226882044293,9.692792389573244e-05
-0.034351709834129135,0.0007108963692715923,9.728765366010145e-05
-0.034536205556160327,0.00069367439042402,9.763879635002535e-05
-0.03470700270100179,0.0006763635883597295,9.798130584472129e-05
-0.034864052959137935,0.0006589708244446945,9.831513944792239e-05
-0.035007310481875206,0.0006415029835844413,9.864025789992967e-05
-0.03513673234047298,0.0006239669728788542,9.89566253890455e-05
-0.03525227902837601,0.0006063697200366419,9.926420956227437e-05
-0.03535391499739704,0.0005887181715301987,9.956298153516609e-05
-0.035441609218303693,0.0005710192904762735,9.98529159006677e-05
-0.03551533575606496,0.0005532800542326813,0.00010013399073684494
-0.03557507434982875,0.0005355074517062079,0.00010040618761332966
-0.03562081098795476,0.000517708480371762,0.00010066949159634915
-0.03565253846988422,0.0004998901430073022,0.00010092389125219392
-0.035670256949017626,0.0004820594441525767,0.00010116937864898389
-0.035673974453411895,0.00046422338630196935,0.00010140594935659752
-0.035663707382857276,0.00044638896584290206,0.00010163360244463374
-0.035639480981056536,0.0004285631687519236,0.00010185234047828245
-0.035601329780557314,0.00041075296606152013,0.00010206216951198581
-0.03554929801656738,0.00039296530911223895,0.00010226309908077926
-0.0354834400043393,0.0003752071246070123,0.00010245514218920908
-0.03540382047423759,0.0003574853094873681,0.00010263831529773267
-0.035310514859081495,0.00033980672565403833,0.00010281263830651802
-0.035203609529916274,0.00032217819455678887,0.00010297813453657073
-0.035083201978257025,0.00030460649167974555,0.00010313483070812987
-0.03494940094390762,0.00028709834094920437,0.0001032827569162871
-0.03480232648728669,0.0002696604090914058,0.00010342194660379726
-0.034642110004748254,0.00025229929996839706,0.00010355243653106221
-0.0344688941855613,0.00023502154892081969,0.00010367426674328451
-0.03428283291019703,0.0002178336171468801,0.00010378748053480143
-0.034084091091049616,0.00020074188614656844,0.00010389212441062479
-0.03387284445815489,0.00018375265225926732,0.00010398824804522625
-0.03364927929419306,0.00016687212132118033,0.00010407590423862137
-0.03341359212464504,0.0001501064034664708,0.00010415514886981828
-0.03316598937028518,0.00013346150809273824,0.00010422604084770808
-0.03290668696955738,0.0001169433390077776,0.00010428864205948322
-0.03263590997824203,0.00010055768977082776,0.00010434301731667786
-0.03235389215357521,8.431023923787345e-05,0.00010438923429893004
-0.032060875529787154,6.820654731703286e-05,0.00010442736349556876
-0.0317571099919915,5.225205093658819e-05,0.00010445747814513216
-0.03144285285538831,3.645206022474324e-05,0.0001044796541729225
-0.031118368456759693,2.0811754896706236e-05,0.00010449397012670287
-0.030783927765085834,5.336180841244856e-06,0.00010450050711063736
-0.030439808017998043,-9.969753104526114e-06,0.00010449934871757153
-0.030086292390285607,-2.5101278206597027e-05,0.00010449058095974376
-0.029723669699464498,-4.0053768729034554e-05,0.00010447429219800985
-0.029352234150899315,-5.482274469162551e-05,0.00010445057306965468
-0.028972285122320182,-6.940387450993039e-05,0.0001044195164148543
-0.028584126985667924,-8.379297753692741e-05,0.00010438121720184259
-0.028188068963570668,-9.798602652423705e-05,0.0001043357724508273
-0.027784425017261916,-0.0001119791500194452,0.00010428328115669137
-0.027373513761406235,-0.00012576863471411222,0.00010422384421050799
-0.026955658399551122,-0.00013935092775435156,0.00010415756431989086
-0.026531186672117586,-0.00015272263902226874,0.00010408454592819671
-0.026100430807515933,-0.00016588054339217712,0.00010400489513259309
-0.0256637274664096,-0.00017882158296065852,0.00010391871960100489
-0.02522141766925124,-0.00019154286924457373,0.00010382612848795357
-0.024773846697687067,-0.0002040416853363083,0.00010372723234930835
-0.024321363960999806,-0.00021631548800098003,0.00010362214305597403
-0.023864322818783847,-0.00022836190969592593,0.0001035109737065498
