frame_number,force
0,828.7916260290775
1,828.6587319007809
2,828.5260454766998
3,828.3937737490154
4,828.262122291879
5,828.1312945670619
6,828.001491246435
7,827.8729095558876
8,827.7457426447758
9,827.6201789844552
10,827.4964017988827
11,827.3745885296195
12,827.2549103368747
13,827.1375316375822
14,827.0226096810004
15,826.9102941620706
16,826.8007268727401
17,826.6940413915362
18,826.590362811744
19,826.4898075085144
20,826.392482945118
21,826.2984875183784
22,826.2079104430925
23,826.1208316749955
24,826.0373218716057
25,825.9574423900688
26,825.8812453209057
27,825.8087735563689
28,825.7400608919363
29,825.6751321593466
30,825.6140033894932
31,825.5566820034161
32,825.5031670295174
33,825.453449344939
34,825.4075119388498
35,825.3653301952504
36,825.3268721928404
37,825.2920990194731
38,825.260965098753
39,825.2334185264245
40,825.2094014143761
41,825.1888502403077
42,825.1716962013257
43,825.1578655699005
44,825.1472800507352
45,825.1398571371906
46,825.1355104660408
47,825.1341501694949
48,825.1356832235632
49,825.1400137919449
50,825.1470435646521
51,825.1566720905982
52,825.1687971033999
53,825.1833148396922
54,825.2001203492952
55,825.2191077965496
56,825.2401707520498
57,825.2632024738974
58,825.2880961775045
59,825.3147452929344
60,825.3430437087743
61,825.372886001614
62,825.4041676503433
63,825.4367852346547
64,825.4706366173317
65,825.5056211100871
66,825.5416396228883
67,825.578594796875
68,825.6163911211456
69,825.6549350338224
70,825.6941350078765
71,825.733901622234
72,825.7741476187748
73,825.8147879459764
74,825.8557397901351
75,825.896922595285
76,825.9382580731219
77,825.9796702043709
78,826.0210852330306
79,826.0624316548027
80,826.1036402008722
81,826.1446438181407
82,826.185377647025
83,826.225778997925
84,826.2657873273813
85,826.3053442148022
86,826.3443933405205
87,826.3828804658929
88,826.4207534161148
89,826.4579620663004
90,826.4944583311269
91,826.5301961580343
92,826.5651315236721
93,826.5992224330234
94,826.632428920418
95,826.6647130515032
96,826.696038925207
97,826.7263726747647
98,826.7556824669265
99,826.7839384984496
100,826.8111129889797
101,826.8371801695049
102,826.8621162657423
103,826.88589947601
104,826.9085099432572
105,826.9299297209973
106,826.9501427329702
107,826.9691347265075
108,826.9868932197265
109,827.0034074427799
110,827.0186682734313
111,827.032668167275
112,827.0454010830015
113,827.0568624032239
114,827.0670488514705
115,827.075958405978
116,827.0835902108873
117,827.0899444853765
118,827.0950224312058
119,827.0988261391313
120,827.1013584946439
121,827.1026230835274
122,827.1026240977939
123,827.1013662426797
124,827.0988546455327
125,827.0950947675531
126,827.0900923194083
127,827.0838531817219
128,827.0763833313318
129,827.0676887740585
130,827.0577754845337
131,827.0466493534803
132,827.0343161427224
133,827.0207814481306
134,827.006050670651
135,826.9901289955263
136,826.973021379809
137,826.9547325483102
138,826.9352669981927
139,826.914629012436
140,826.8928226823467
141,826.8698519391357
142,826.8457205943977
143,826.8204323891662
144,826.7939910510812
145,826.7664003591036
146,826.7376642151369
147,826.7077867218728
148,826.6767722661268
149,826.6446256068658
150,826.6113519670655
151,826.5769571284603
152,826.5414475281518
153,826.5048303559348
154,826.4671136511192
155,826.4283063975822
156,826.3884186157608
157,826.3474614502753
158,826.3054472519102
159,826.2623896528128
160,826.2183036339911
161,826.1732055844334
162,826.1271133513537
163,826.0800462811726
164,826.0320252508914
165,825.9830726895837
166,825.933212589823
167,825.8824705089952
168,825.830873560592
169,825.7784503957437
170,825.7252311753792
171,825.6712475334812
172,825.6165325319273
173,825.5611206074046
174,825.5050475109051
175,825.4483502403514
176,825.3910669669049
177,825.3332369554498
178,825.274900479657
179,825.2160987319853
180,825.1568737290158
181,825.0972682126392
182,825.037325547767
183,824.9770896173865
184,824.9166047158815
185,824.8559154416236
186,824.7950665898771
187,824.7341030470675
188,824.6730696874125
189,824.6120112727842
190,824.5509723564359
191,824.4899971909483
192,824.4291296404748
193,824.3684130971561
194,824.3078904014786
195,824.2476037664022
196,824.187594705277
197,824.1279039637981
198,824.0685714563938
199,824.0096362074206
200,823.9511362974024
201,823.8931088143851
202,823.8355898103796
203,823.7786142628154
204,823.722216040882
205,823.6664278765918
206,823.6112813403992
207,823.556806821273
208,823.5030335111893
209,823.449989394034
210,823.3977012388716
211,823.3461945974886
212,823.2954938061042
213,823.2456219911686
214,823.1966010792684
215,823.1484518112721
216,823.1011937608973
217,823.0548453578236
218,823.0094239153565
219,822.9649456625298
220,822.9214257804429
221,822.8788784425627
222,822.8373168586854
223,822.7967533222667
224,822.7571992608747
225,822.71866528953
226,822.6811612666226
227,822.6446963519555
228,822.6092790662816
229,822.5749173515422
230,822.5416186309188
231,822.5093898677553
232,822.4782376224397
233,822.4481681064336
234,822.4191872327806
235,822.3913006625489
236,822.3645138467527
237,822.3388320633206
238,822.3142604486671
239,822.2908040233872
240,822.268467711612
241,822.247256353672
242,822.2271747119189
243,822.2082274698025
244,822.1904192245089
245,822.1737544735626
246,822.1582375957734
247,822.1438728268256
248,822.1306642297551
249,822.1186156606324
250,822.1077307299474
251,822.0980127603698
252,822.0894647416535
253,822.08208928349
254,822.0758885671263
255,822.0708642965864
256,822.0670176503077
257,822.0643492338871
258,822.0628590344224
259,822.0625463767184
260,822.0634098814817
261,822.065447425608
262,822.0686561047609
263,822.0730321985692
264,822.0785711388876
265,822.0852674816149
266,822.0931148825285
267,822.102106077455
268,822.1122328669409
269,822.123486105503
270,822.135855695547
271,822.1493305860777
272,822.163898776318
273,822.1795473242632
274,822.1962623600775
275,822.2140291041143
276,822.2328318892047
277,822.2526541867164
278,822.2734786357804
279,822.2952870750502
280,822.3180605763725
281,822.3417794797648
282,822.3664234291134
283,822.3919714080114
284,822.4184017751498
285,822.4456922986758
286,822.4738201889395
287,822.5027621290712
288,822.532494302861
289,822.562992419522
290,822.594231735126
291,822.6261870707278
292,822.6588328273488
293,822.6921429980456
294,822.7260911773393
295,822.7606505683774
296,822.7957939883628
297,822.8314938729285
298,822.867722280249
299,822.9044508957265
300,822.941651038086
301,822.9792936676677
302,823.0173493976598
303,823.0557885090122
304,823.0945809697944
305,823.1336964597183
306,823.1731044003808
307,823.2127739915408
308,823.2526742535391
309,823.2927740758272
310,823.3330422714765
311,823.3734476374522
312,823.413959020319
313,823.4545453868888
314,823.495175899157
315,823.5358199927814
316,823.5764474583154
317,823.6170285243777
318,823.6575339418779
319,823.6979350683708
320,823.7382039516332
321,823.7783134116506
322,823.8182371203242
323,823.857949678298
324,823.8974266883951
325,823.9366448252201
326,823.9755819005644
327,824.0142169242936
328,824.0525301604407
329,824.0905031782472
330,824.128118897928
331,824.1653616309474
332,824.2022171145559
333,824.238672540278
334,824.274716575995
335,824.3103393812336
336,824.3455326152451
337,824.3802894374942
338,824.4146045003473
339,824.4484739340284
340,824.481895324203
341,824.5148676827802
342,824.5473914125873
343,824.5794682664985
344,824.6111013014097
345,824.6422948272525
346,824.6730543510856
347,824.7033865162426
348,824.7332990365343
349,824.7628006255759
350,824.7919009213857
351,824.820610406457
352,824.848940323542
353,824.8769025874267
354,824.9045096930521
355,824.931774620452
356,824.9587107370907
357,824.985331698251
358,825.0116513461427
359,825.0376836083808
360,825.0634423964528
361,825.0889415047402
362,825.1141945106082
363,825.1392146760277
364,825.164014851139
365,825.1886073800723
366,825.213004009263
367,825.2372157984673
368,825.2612530347342
369,825.2851251496555
370,825.3088406402488
371,825.3324069937709
372,825.3558306166494
373,825.3791167676361
374,825.4022694952897
375,825.4252915799921
376,825.4481844808005
377,825.4709482874966
378,825.493581678199
379,825.5160818828944
380,825.5384446532162
381,825.5606642387571
382,825.5827333701634
383,825.6046432492452
384,825.6263835463615
385,825.6479424053797
386,825.669306456543
387,825.6904608375988
388,825.7113892235748
389,825.7320738656175
390,825.7524956393156
391,825.7726341029202
392,825.7924675658387
393,825.811973167712
394,825.8311269682682
395,825.8499040479664
396,825.8682786191735
397,825.8862241472888
398,825.9037134809397
399,825.9207189901546
400,825.9372127113073
401,825.9531664975839
402,825.9685521737113
403,825.9833416937067
404,825.9975073003949
405,826.0110216854148
406,826.0238581484293
407,826.0359907543002
408,826.047394487104
409,826.0580454000034
410,826.0679207601243
411,826.0769991876889
412,826.0852607886947
413,826.0926872804642
414,826.0992621094714
415,826.104970560971
416,826.1097998600642
417,826.1137392638971
418,826.1167801447534
419,826.1189160638785
420,826.1201428359261
421,826.120458583945
422,826.1198637848348
423,826.1183613052281
424,826.1159564277758
425,826.1126568677839
426,826.1084727800514
427,826.1034167556342
428,826.0975038081444
429,826.0907513491394
430,826.0831791521584
431,826.0748093050339
432,826.0656661502304
433,826.0557762131778
434,826.045168118822
435,826.0338724968775
436,826.0219218764706
437,826.0093505710097
438,825.9961945542057
439,825.9824913281851
440,825.9682797846084
441,825.9536000596644
442,825.9384933837605
443,825.9230019266477
444,825.907168638603
445,825.8910370882005
446,825.8746512972016
447,825.8580555731806
448,825.841294340626
449,825.8244119713862
450,825.8074526154272
451,825.7904600329108
452,825.7734774285994
453,825.7565472895226
454,825.7397112267246
455,825.7230098217906
456,825.7064824787648
457,825.6901672820369
458,825.6741008607414
459,825.6583182601734
460,825.642852820673
461,825.627736064377
462,825.612997590184
463,825.5986649772238
464,825.5847636970287
465,825.5713170344766
466,825.5583460174191
467,825.5458693548017
468,825.5339033830932
469,825.5224620209864
470,825.5115567325173
471,825.5011964988888
472,825.4913877993284
473,825.4821346013148
474,825.4734383605249
475,825.4652980308944
476,825.4577100852216
477,825.4506685467469
478,825.4441650320506
479,825.438188805447
480,825.4327268448061
481,825.4277639185169
482,825.4232826731533
483,825.4192637313074
484,825.4156857989443
485,825.4125257814726
486,825.4097589075501
487,825.4073588595089
488,825.4052979092304
489,825.4035470582851
490,825.4020761811095
491,825.4008541699138
492,825.3998490799953
493,825.3990282742559
494,825.3983585659603
495,825.397806358976
496,825.3973377848325
497,825.3969188359324
498,825.3965154942175
499,825.3960938545947
500,825.3956202425068
501,825.3950613252172
502,825.3943842166652
503,825.3935565760369
504,825.3925467003946
505,825.3913236118267
506,825.3898571396367
507,825.388117998126
508,825.3860778604827
509,825.3837094291845
510,825.3809865031491
511,825.3778840416882
512,825.3743782251918
513,825.370446512433
514,825.3660676944156
515,825.3612219447457
516,825.3558908665201
517,825.3500575356679
518,825.3437065405722
519,825.3368240177307
520,825.3293976832348
521,825.3214168599445
522,825.3128725003602
523,825.3037572052853
524,825.2940652384507
525,825.2837925373314
526,825.2729367204345
527,825.2614970913576
528,825.2494746398961
529,825.2368720404249
530,825.2236936476924
531,825.2099454900734
532,825.1956352602613
533,825.1807723033252
534,825.1653676020295
535,825.149433759276
536,825.1329849775057
537,825.1160370348941
538,825.0986072581715
539,825.0807144918878
540,825.0623790639245
541,825.0436227470484
542,825.0244687162862
543,825.0049415018461
544,824.9850669372339
545,824.9648721021289
546,824.9443852595707
547,824.9236357870582
548,824.9026541012778
549,824.8814715763535
550,824.8601204557439
551,824.8386337581444
552,824.817045177885
553,824.795388980298
554,824.7736998924827
555,824.7520129899144
556,824.7303635794821
557,824.708787079699
558,824.6873188989306
559,824.6659943125201
560,824.6448483396973
561,824.6239156211277
562,824.6032302979204
563,824.5828258928681
564,824.5627351946555
565,824.5429901457472
566,824.523621734662
567,824.504659893352
568,824.4861334004155
569,824.4680697908324
570,824.450495272809
571,824.4334346521813
572,824.4169112647012
573,824.4009469164257
574,824.3855618323108
575,824.3707746129753
576,824.3566021994963
577,824.3430598461031
578,824.3301611007241
579,824.3179177934386
580,824.3063400329241
581,824.2954362109507
582,824.2852130148352
583,824.2756754476106
584,824.2668268555437
585,824.2586689626286
586,824.2512019117436
587,824.2444243121917
588,824.2383332933033
589,824.2329245637105
590,824.228192475854
591,824.2241300952866
592,824.2207292743607
593,824.2179807299107
594,824.2158741245339
595,824.2143981510362
596,824.2135406195454
597,824.213288546746
598,824.2136282466623
599,824.2145454224016
600,824.2160252582461
601,824.2180525114408
602,824.2206116029571
603,824.2236867064671
604,824.2272618347635
605,824.231320922911
606,824.2358479074862
607,824.2408268013594
608,824.2462417635807
609,824.2520771640256
610,824.258317642483
611,824.264948161841
612,824.2719540550498
613,824.2793210656544
614,824.28703538186
615,824.2950836642565
616,824.3034530673689
617,824.3121312551647
618,824.3211064105471
619,824.330367238822
620,824.3399029651815
621,824.3497033263869
622,824.359758556963
623,824.3700593702861
624,824.3805969349556
625,824.3913628468229
626,824.4023490970491
627,824.4135480365906
628,824.4249523375463
629,824.4365549518336
630,824.4483490676387
631,824.4603280640143
632,824.4724854639181
633,824.4848148859852
634,824.4973099954481
635,824.5099644547926
636,824.522771874893
637,824.5357257674364
638,824.5488194994504
639,824.562046250743
640,824.5753989750373
641,824.5888703654558
642,824.6024528247501
643,824.6161384403456
644,824.6299189640424
645,824.643785796127
646,824.6577299736699
647,824.6717421628406
648,824.6858126551268
649,824.699931367423
650,824.7140878460064
651,824.7282712744557
652,824.7424704855931
653,824.7566739776124
654,824.770869934691
655,824.7850462524469
656,824.7991905685478
657,824.8132902986209
658,824.8273326774294
659,824.8413048050754
660,824.8551936977889
661,824.8689863426883
662,824.8826697558189
663,824.8962310427698
664,824.9096574612306
665,824.92293648492
666,824.9360558683828
667,824.9490037121773
668,824.9617685279668
669,824.9743393030107
670,824.9867055635316
671,824.9988574364302
672,825.0107857088028
673,825.0224818847207
674,825.0339382387251
675,825.0451478654644
676,825.0561047248249
677,825.0668036818274
678,825.077240540558
679,825.0874120715401
680,825.0973160322133
681,825.1069511804616
682,825.116317281338
683,825.1254151072357
684,825.1342464318166
685,825.1428140180535
686,825.1511216007873
687,825.1591738642093
688,825.1669764146452
689,825.1745357489697
690,825.1818592189662
691,825.188954991996
692,825.1958320084206
693,825.2024999362759
694,825.2089691236403
695,825.215250548993
696,825.2213557697064
697,825.2272968687428
698,825.2330863996713
699,825.2387373302
700,825.2442629844744
701,825.2496769843666
702,825.2549931898924
703,825.2602256388114
704,825.2653884854676
705,825.2704959389821
706,825.2755622009842
707,825.2806014031165
708,825.2856275446023
709,825.2906544301751
710,825.295695608636
711,825.3007643122315
712,825.3058733970006
713,825.3110352842751
714,825.3162619035928
715,825.3215646373667
716,825.3269542677283
717,825.3324409260313
718,825.338034045577
719,825.3437423181931
720,825.3495736553497
721,825.3555351545158
722,825.3616330714127
723,825.3678727987244
724,825.3742588516827
725,825.3807948607703
726,825.3874835715842
727,825.394326851704
728,825.4013257042564
729,825.4084802877915
730,825.4157899420707
731,825.4232532193671
732,825.4308679208656
733,825.4386311377035
734,825.4465392961092
735,825.4545882059629
736,825.4627731119574
737,825.4710887464244
738,825.4795293828332
739,825.4880888889851
740,825.4967607789803
741,825.5055382631367
742,825.5144142951685
743,825.5233816160833
744,825.532432794387
745,825.5415602623079
746,825.5507563478617
747,825.5600133027147
748,825.5693233259457
749,825.5786785839539
750,825.588071226935
751,825.5974934024831
752,825.6069372669233
753,825.6163949949175
754,825.6258587877536
755,825.6353208805573
756,825.6447735484738
757,825.654209111663
758,825.6636199387511
759,825.6729984482016
760,825.6823371069369
761,825.6916284255067
762,825.7008649491651
763,825.7100392443803
764,825.7191438805177
765,825.7281714066476
766,825.7371143235916
767,825.745965051455
768,825.7547158930341
769,825.7633589936994
770,825.7718862985962
771,825.7802895082332
772,825.788560033647
773,825.7966889523246
774,825.8046669659612
775,825.8124843610171
776,825.8201309729649
777,825.8275961550574
778,825.8348687523523
779,825.841937081546
780,825.8487889169537
781,825.8554114828104
782,825.8617914520114
783,825.8679149514395
784,825.8737675740415
785,825.8793343977823
786,825.8846000115308
787,825.8895485478339
788,825.8941637224161
789,825.8984288801004
790,825.9023270467075
791,825.9058409864165
792,825.9089532640721
793,825.9116463120077
794,825.9139025010759
795,825.9157042156851
796,825.917033932688
797,825.9178743039324
798,825.9182082421803
799,825.9180190100036
800,825.9172903112257
801,825.9160063844614
802,825.9141520982349
803,825.9117130470348
804,825.9086756475657
805,825.9050272343898
806,825.9007561540757
807,825.8958518568444
808,825.8903049845469
809,825.8841074537056
810,825.8772525323537
811,825.8697349095505
812,825.8615507566781
813,825.8526977798891
814,825.8431752632756
815,825.8329841024657
816,825.8221268284249
817,825.8106076212458
818,825.7984323136781
819,825.7856083840916
820,825.7721449385524
821,825.7580526817716
822,825.743343876867
823,825.7280322940985
824,825.7121331489101
825,825.6956630297515
826,825.6786398162986
827,825.6610825888725
828,825.6430115300077
829,825.6244478192457
830,825.605413522323
831,825.5859314760071
832,825.5660251698671
833,825.5457186262424
834,825.5250362796054
835,825.5040028564656
836,825.482643256931
837,825.4609824389981
838,825.4390453065679
839,825.4168566021024
840,825.3944408047938
841,825.3718220351401
842,825.3490239668578
843,825.3260697470922
844,825.3029819258869
845,825.2797823958439
846,825.2564923428456
847,825.2331322085934
848,825.2097216655467
849,825.1862796046362
850,825.162824135885
851,825.1393726018197
852,825.1159416032597
853,825.0925470367511
854,825.0692041425975
855,825.0459275621955
856,825.0227314032419
857,824.9996293113142
858,824.9766345462934
859,824.9537600620771
860,824.9310185880339
861,824.9084227107111
862,824.8859849544227
863,824.863717859512
864,824.8416340572296
865,824.8197463403152
866,824.7980677285015
867,824.7766115283056
868,824.7553913866433
869,824.7344213379685
870,824.7137158447453
871,824.6932898310679
872,824.6731587091759
873,824.6533383985249
874,824.6338453369941
875,824.614696483775
876,824.5959093134862
877,824.5775018011219
878,824.5594923975412
879,824.5418999953556
880,824.524743885256
881,824.5080437030416
882,824.4918193678511
883,824.4760910123356
884,824.4608789057237
885,824.4462033709033
886,824.4320846967528
887,824.418543047
888,824.4055983668557
889,824.3932702885771
890,824.3815780369808
891,824.3705403357827
892,824.3601753155014
893,824.3505004235006
894,824.3415323365963
895,824.3332868765191
896,824.3257789284523
897,824.3190223628201
898,824.3130299604547
899,824.3078133412445
900,824.3033828963515
901,824.2997477241075
902,824.2969155697145
903,824.2948927689272
904,824.2936841959763
905,824.2932932161428
906,824.2937216435748
907,824.2949697050523
908,824.2970360103783
909,824.299917529906
910,824.3036095794669
911,824.30810581273
912,824.313398220847
913,824.3194771391459
914,824.3263312606155
915,824.3339476559382
916,824.3423117998555
917,824.3514076036862
918,824.3612174538611
