frame_number,force
0,828.7916260151036
1,828.6490901711003
2,828.5068108711409
3,828.3650436097985
4,828.2240417931523
5,828.08405572001
6,827.9453315922464
7,827.8081105621008
8,827.6726278232991
9,827.539111751884
10,827.4077831015694
11,827.2788542572355
12,827.1525285489048
13,827.0289996273364
14,826.9084509014675
15,826.791055037488
16,826.6769735193076
17,826.5663562703704
18,826.459341336938
19,826.35605463295
20,826.2566097464136
21,826.1611078069751
22,826.0696374139372
23,825.9822746235758
24,825.8990829942322
25,825.8201136873009
26,825.7454056218742
27,825.6749856804787
28,825.6088689630644
29,825.5470590862091
30,825.4895485243911
31,825.4363189900885
32,825.3873418492868
33,825.3425785686801
34,825.3019811905239
35,825.2654928308885
36,825.2330481969769
37,825.2045741191773
38,825.1799900936137
39,825.1592088311722
40,825.1421368093431
41,825.1286748236681
42,825.1187185360283
43,825.1121590173519
44,825.1088832825595
45,825.1087748157672
46,825.1117140840357
47,825.1175790382654
48,825.1262456001298
49,825.1375881341288
50,825.1514799039289
51,825.1677935121877
52,825.1864013231009
53,825.2071758670068
54,825.2299902264563
55,825.2547184031106
56,825.2812356646591
57,825.3094188707362
58,825.3391467766359
59,825.3703003135234
60,825.4027628438479
61,825.4364203907915
62,825.4711618408327
63,825.5068791188116
64,825.5434673352279
65,825.5808249058249
66,825.6188536438173
67,825.6574588254102
68,825.6965492295573
69,825.7360371531282
70,825.7758384027596
71,825.8158722647175
72,825.8560614542337
73,825.896332046021
74,825.9366133879795
75,825.9768380004298
76,826.016941463538
77,826.0568622958072
78,826.0965418264775
79,826.1359240644149
80,826.1749555657599
81,826.2135853024733
82,826.2517645338987
83,826.2894466834251
84,826.3265872221467
85,826.3631435611275
86,826.3990749536331
87,826.4343424085716
88,826.4689086162949
89,826.5027378876551
90,826.5357961067233
91,826.5680506969723
92,826.5994706001484
93,826.6300262665445
94,826.65968965496
95,826.6884342403534
96,826.7162350271116
97,826.7430685659212
98,826.7689129723042
99,826.7937479448452
100,826.8175547811325
101,826.8403163895732
102,826.8620172955815
103,826.8826436409872
104,826.9021831757473
105,826.9206252411649
106,826.9379607439871
107,826.9541821210206
108,826.9692832942014
109,826.9832596162454
110,826.9961078070938
111,827.0078258814602
112,827.0184130679552
113,827.0278697204801
114,827.0361972227631
115,827.0433978869739
116,827.0494748473009
117,827.0544319492572
118,827.0582736353848
119,827.0610048279971
120,827.0626308096191
121,827.0631571018607
122,827.0625893435968
123,827.0609331695761
124,827.0581940908764
125,827.0543773788787
126,827.049487954564
127,827.0435302849097
128,827.0365082879784
129,827.0284252480134
130,827.0192837415161
131,827.0090855749928
132,826.997831734856
133,826.985522349849
134,826.9721566662625
135,826.9577330361516
136,826.9422489187598
137,826.9257008954534
138,826.9080846985966
139,826.889395254859
140,826.8696267433392
141,826.8487726686244
142,826.8268259485648
143,826.8037790162342
144,826.7796239353106
145,826.754352527915
146,826.7279565138283
147,826.700427659914
148,826.6717579384889
149,826.6419396932725
150,826.6109658114271
151,826.5788299000563
152,826.5455264653518
153,826.5110510923801
154,826.4754006233454
155,826.438573332087
156,826.4005690925104
157,826.3613895386247
158,826.3210382139179
159,826.2795207080501
160,826.2368447792613
161,826.193020461334
162,826.1480601542949
163,826.1019786982256
164,826.0547934296429
165,826.0065242200221
166,825.9571934962127
167,825.9068262427247
168,825.8554499861465
169,825.8030947622393
170,825.7497930664993
171,825.6955797891145
172,825.6404921352814
173,825.5845695318292
174,825.5278535211304
175,825.470387643343
176,825.4122173080294
177,825.3533896560784
178,825.2939534126796
179,825.2339587320007
180,825.1734570342875
181,825.1125008363255
182,825.0511435764942
183,824.9894394359012
184,824.927443157289
185,824.8652098635428
186,824.8027948777037
187,824.7402535463932
188,824.677641068464
189,824.6150123304328
190,824.5524217498153
191,824.4899231269451
192,824.4275695053465
193,824.3654130403286
194,824.3035048752912
195,824.2418950253278
196,824.1806322680756
197,824.1197640422009
198,824.059336354184
199,823.9993936940249
200,823.9399789602379
201,823.8811333941983
202,823.8228965237174
203,823.7653061156301
204,823.7083981370989
205,823.6522067252635
206,823.5967641648649
207,823.542100873602
208,823.4882453951121
209,823.4352243995181
210,823.383062691418
211,823.3317832251214
212,823.2814071268994
213,823.2319537240828
214,823.1834405810282
215,823.1358835421934
216,823.0892967826637
217,823.0436928663621
218,822.9990828119564
219,822.9554761662639
220,822.9128810847839
221,822.8713044188655
222,822.830751808958
223,822.791227783418
224,822.752735862442
225,822.7152786667065
226,822.6788580301682
227,822.6434751162087
228,822.609130535965
229,822.5758244673971
230,822.5435567734467
231,822.5123271175559
232,822.4821350748633
233,822.4529802375898
234,822.4248623133875
235,822.3977812156651
236,822.3717371450615
237,822.346730661296
238,822.322762744582
239,822.2998348457345
240,822.2779489241267
241,822.2571074728528
242,822.2373135308374
243,822.2185706820925
244,822.200883042715
245,822.1842552363936
246,822.168692359155
247,822.1541999339099
248,822.1407838552659
249,822.1284503252026
250,822.1172057805376
251,822.1070568134419
252,822.0980100864457
253,822.0900722434251
254,822.0832498180936
255,822.0775491415537
256,822.0729762504136
257,822.0695367967426
258,822.0672359607572
259,822.0660783667051
260,822.0660680021427
261,822.0672081407669
262,822.0695012691306
263,822.0729490178204
264,822.0775520978891
265,822.0833102434358
266,822.0902221611485
267,822.0982854873732
268,822.1074967529748
269,822.117851356094
270,822.1293435429259
271,822.1419663967179
272,822.1557118351615
273,822.1705706161946
274,822.186532352005
275,822.2035855307911
276,822.2217175455789
277,822.2409147291307
278,822.2611623937886
279,822.2824448750371
280,822.3047455775945
281,822.3280470228871
282,822.3523308967929
283,822.3775780965585
284,822.403768775786
285,822.4308823863925
286,822.4588977164686
287,822.4877929229965
288,822.5175455584583
289,822.5481325905755
290,822.5795304148107
291,822.6117148597087
292,822.6446611854391
293,822.6783440760211
294,822.7127376258
295,822.7478153209456
296,822.7835500170399
297,822.8199139141092
298,822.8568785306667
299,822.8944146784279
300,822.9324924393528
301,822.9710811465943
302,823.0101493708463
303,823.0496649135848
304,823.0895948087416
305,823.1299053342701
306,823.1705620347575
307,823.2115297557829
308,823.2527726903355
309,823.2942544373383
310,823.3359380721462
311,823.3777862287263
312,823.4197611930022
313,823.4618250065478
314,823.5039395795154
315,823.5460668114907
316,823.5881687189012
317,823.6302075675386
318,823.6721460086347
319,823.7139472168355
320,823.75557502846
321,823.796994078605
322,823.8381699358672
323,823.879069233637
324,823.9196597970666
325,823.959910764945
326,823.9997927058427
327,824.0392777279853
328,824.0783395823639
329,824.116953758633
330,824.1550975734003
331,824.1927502505176
332,824.2298929929113
333,824.2665090453643
334,824.3025837475641
335,824.3381045766605
336,824.373061178516
337,824.407445386892
338,824.4412512301195
339,824.4744749253138
340,824.5071148607534
341,824.5391715674414
342,824.5706476810019
343,824.6015478949
344,824.6318789056177
345,824.66164935003
346,824.6908697349295
347,824.7195523585209
348,824.747711223741
349,824.7753619433884
350,824.8025216371803
351,824.8292088209615
352,824.8554432883446
353,824.8812459851379
354,824.9066388770552
355,824.9316448114203
356,824.9562873737792
357,824.9805907404724
358,825.0045795282404
359,825.028278641914
360,825.0517131211673
361,825.0749079872235
362,825.0978880903033
363,825.1206779585212
364,825.1433016488257
365,825.1657826004201
366,825.188143490948
367,825.210406095682
368,825.2325911500509
369,825.2547182159818
370,825.2768055525912
371,825.2988699916717
372,825.3209268182216
373,825.3429896561107
374,825.3650703590085
375,825.3871789068772
376,825.4093233085462
377,825.4315095109949
378,825.4537413160065
379,825.4760203048372
380,825.4983457715153
381,825.5207146653169
382,825.5431215429082
383,825.5655585306325
384,825.5880152974773
385,825.6104790393562
386,825.6329344754042
387,825.6553638570541
388,825.6777469907263
389,825.7000612750336
390,825.722281753428
391,825.7443811832167
392,825.7663301218124
393,825.7880970309702
394,825.8096483995577
395,825.830948885073
396,825.8519614736213
397,825.8726476574604
398,825.892967628672
399,825.9128804871189
400,825.9323444606459
401,825.9513171353943
402,825.969755694098
403,825.9876171602533
404,826.004858646044
405,826.0214376018534
406,826.0373120651735
407,826.0524409068238
408,826.0667840725926
409,826.0803028186759
410,826.0929599395422
411,826.1047199870284
412,826.1155494795478
413,826.1254171003415
414,826.1342938838523
415,826.1421533895192
416,826.1489718624756
417,826.1547283807482
418,826.1594049886585
419,826.1629868162588
420,826.1654621847284
421,826.1668226976808
422,826.1670633183486
423,826.1661824326462
424,826.1641818981286
425,826.1610670787958
426,826.1568468654959
427,826.1515336814165
428,826.1451434719253
429,826.1376956779009
430,826.129213191681
431,826.1197222948646
432,826.1092525774379
433,826.0978368380643
434,826.0855109658577
435,826.07231380443
436,826.0582869993744
437,826.0434748306102
438,826.0279240311596
439,826.0116835939568
440,825.9948045682163
441,825.9773398467934
442,825.9593439458695
443,825.9408727781271
444,825.9219834203483
445,825.9027338761969
446,825.8831828349286
447,825.8633894269319
448,825.8434129772336
449,825.8233127583347
450,825.8031477439283
451,825.7829763651317
452,825.7628562708522
453,825.7428440937747
454,825.7229952232456
455,825.7033635860978
456,825.6840014363065
457,825.6649591542989
458,825.6462850566921
459,825.6280252171608
460,825.6102232990427
461,825.5929204002052
462,825.5761549106066
463,825.559962382883
464,825.5443754161416
465,825.5294235529016
466,825.5151331888446
467,825.5015274948557
468,825.4886263508633
469,825.476446291274
470,825.4650004621673
471,825.4542985906896
472,825.4443469671888
473,825.4351484406549
474,825.4267024280794
475,825.4190049384397
476,825.4120486121091
477,825.405822776502
478,825.4003135186289
479,825.3955037749196
480,825.3913734382443
481,825.387899481656
482,825.3850560981118
483,825.3828148552606
484,825.3811448641906
485,825.3800129607472
486,825.3793838977101
487,825.3792205458815
488,825.3794841020438
489,825.3801343017321
490,825.3811296346951
491,825.3824275607763
492,825.383984723928
493,825.3857571623106
494,825.3877005128784
495,825.3897702092571
496,825.3919216718976
497,825.3941104894888
498,825.3962925905591
499,825.3984244042092
500,825.4004630090553
501,825.4023662698329
502,825.404092961636
503,825.4056028823148
504,825.4068569539313
505,825.407817314384
506,825.4084474004295
507,825.408712023377
508,825.4085774386624
509,825.4080114102941
510,825.4069832708328
511,825.405463977223
512,825.4034261625444
513,825.4008441836726
514,825.397694164888
515,825.3939540375744
516,825.3896035761633
517,825.3846244303546
518,825.379000153438
519,825.372716226389
520,825.3657600774449
521,825.3581210970394
522,825.3497906481899
523,825.340762072601
524,825.3310306928731
525,825.3205938113108
526,825.3094507058997
527,825.2976026240434
528,825.2850527746047
529,825.2718063186786
530,825.2578703593482
531,825.2432539304907
532,825.2279679845561
533,825.2120253791372
534,825.1954408620713
535,825.1782310547411
536,825.1604144331852
537,825.1420113066076
538,825.1230437928617
539,825.1035357904553
540,825.0835129465789
541,825.0630026206317
542,825.0420338426846
543,825.0206372662185
544,824.9988451143034
545,824.9766911182411
546,824.9542104476449
547,824.9314396310302
548,824.9084164661969
549,824.8851799200133
550,824.861770017649
551,824.8382277217347
552,824.8145948021769
553,824.7909136973295
554,824.7672273671245
555,824.7435791388111
556,824.7200125462084
557,824.6965711636761
558,824.6732984362048
559,824.6502375070976
560,824.6274310447226
561,824.6049210697762
562,824.5827487844192
563,824.5609544045761
564,824.5395769966174
565,824.5186543196105
566,824.4982226743209
567,824.4783167601746
568,824.4589695414222
569,824.4402121236774
570,824.422073641819
571,824.4045811599981
572,824.3877595842607
573,824.3716315881162
574,824.3562175511651
575,824.3415355106503
576,824.3276011256188
577,824.3144276533934
578,824.3020259382315
579,824.2904044122452
580,824.2795691087424
581,824.2695236880731
582,824.2602694758291
583,824.2518055129458
584,824.2441286170437
585,824.2372334543377
586,824.2311126215678
587,824.2257567374747
588,824.2211545432773
589,824.2172930114793
590,824.2141574622544
591,824.211731686667
592,824.2099980760388
593,824.2089377568186
594,824.2085307303089
595,824.2087560165306
596,824.209591801397
597,824.2110155862748
598,824.2130043389661
599,824.2155346451121
600,824.2185828589882
601,824.2221252525685
602,824.2261381616237
603,824.2305981275211
604,824.2354820334047
605,824.240767233516
606,824.2464316745626
607,824.2524540082085
608,824.2588136939688
609,824.2654910919642
610,824.2724675450303
611,824.279725449636
612,824.2872483150923
613,824.2950208107432
614,824.3030288011619
615,824.3112593696501
616,824.3197008304392
617,824.3283427298966
618,824.3371758368573
619,824.3461921221045
620,824.3553847271337
621,824.3647479225834
622,824.3742770569567
623,824.3839684963863
624,824.3938195562027
625,824.403828425028
626,824.4139940821113
627,824.4243162086692
628,824.4347950940526
629,824.4454315376189
630,824.4562267471476
631,824.467182234494
632,824.478299709022
633,824.4895809693597
634,824.5010277942313
635,824.5126418334613
636,824.5244245005282
637,824.5363768681725
638,824.548499568569
639,824.5607926995616
640,824.573255738409
641,824.5858874642549
642,824.5986858900341
643,824.6116482039248
644,824.6247707200204
645,824.6380488377316
646,824.6514770094745
647,824.6650487163017
648,824.6787564512472
649,824.6925917102963
650,824.7065449910051
651,824.7206057988561
652,824.7347626614896
653,824.7490031511162
654,824.7633139156615
655,824.7776807193233
656,824.7920884931162
657,824.806521395695
658,824.8209628843896
659,824.8353957960129
660,824.8498024366147
661,824.8641646790443
662,824.8784640670223
663,824.8926819244233
664,824.9067994685818
665,824.9207979265739
666,824.9346586535456
667,824.9483632522104
668,824.9618936926253
669,824.9752324313176
670,824.9883625288033
671,825.0012677645233
672,825.0139327482003
673,825.0263430266191
674,825.0384851848279
675,825.0503469407013
676,825.0619172316651
677,825.0731862922341
678,825.0841457210026
679,825.0947885359886
680,825.1051092177158
681,825.1151037399404
682,825.1247695883101
683,825.1341057674389
684,825.143112796988
685,825.1517926974288
686,825.1601489662442
687,825.1681865453388
688,825.1759117803646
689,825.1833323725702
690,825.1904573237589
691,825.19729687502
692,825.2038624400594
693,825.2101665340413
694,825.2162226987537
695,825.2220454246275
696,825.2276500698459
697,825.2330527766514
698,825.2382703850236
699,825.2433203440625
700,825.2482206215078
701,825.2529896117774
702,825.2576460427325
703,825.2622088812338
704,825.266697237544
705,825.2711302687442
706,825.2755270814577
707,825.2799066342811
708,825.2842876404122
709,825.2886884709911
710,825.2931270596019
711,825.2976208082443
712,825.3021864950127
713,825.3068401837742
714,825.3115971362865
715,825.3164717273577
716,825.3214773637854
717,825.3266264079507
718,825.3319301070806
719,825.3373985293285
720,825.3430405079248
721,825.3488635946818
722,825.3548740240601
723,825.3610766888162
724,825.3674751279906
725,825.374071527666
726,825.3808667345495
727,825.3878602820605
728,825.3950504283218
729,825.4024342053103
730,825.4100074783947
731,825.4177650154984
732,825.4257005650915
733,825.4338069421389
734,825.4420761209713
735,825.4504993338015
736,825.459067173333
737,825.4677696976894
738,825.4765965358002
739,825.485536991394
740,825.4945801438656
741,825.5037149444721
742,825.5129303065571
743,825.5222151887842
744,825.5315586706168
745,825.5409500195011
746,825.5503787494291
747,825.5598346708076
748,825.5693079318253
749,825.578789051801
750,825.5882689473134
751,825.597738952173
752,825.6071908323859
753,825.6166167971409
754,825.6260095066042
755,825.6353620769796
756,825.6446680829304
757,825.6539215570779
758,825.663116985914
759,825.672249301119
760,825.6813138650347
761,825.6903064489721
762,825.6992232031605
763,825.7080606174484
764,825.7168154722776
765,825.7254847798455
766,825.7340657156849
767,825.7425555411356
768,825.7509515174582
769,825.7592508127289
770,825.7674504031233
771,825.7755469706198
772,825.7835367993796
773,825.7914156730536
774,825.7991787750645
775,825.8068205937057
776,825.814334833756
777,825.8217143362099
778,825.8289510075298
779,825.836035759497
780,825.8429584603266
781,825.8497078974071
782,825.8562717519259
783,825.8626365856935
784,825.8687878405154
785,825.874709850394
786,825.8803858667054
787,825.8857980963162
788,825.8909277523779
789,825.8957551172767
790,825.900259616953
791,825.9044199056649
792,825.9082139602804
793,825.9116191833397
794,825.9146125143585
795,825.917170549049
796,825.9192696662227
797,825.9208861620727
798,825.9219963913365
799,825.9225769146516
800,825.9226046513508
801,825.9220570369013
802,825.9209121840598
803,825.9191490465853
804,825.916747584156
805,825.9136889270204
806,825.9099555387563
807,825.9055313752755
808,825.900402037914
809,825.8945549182492
810,825.88797933229
811,825.8806666419475
812,825.8726103621314
813,825.8638062522922
814,825.8542523916234
815,825.8439492373827
816,825.8328996659154
817,825.8211089959796
818,825.8085849939066
819,825.795337860014
820,825.7813801956568
821,825.7667269504565
822,825.7513953495813
823,825.7354048013601
824,825.7187767858384
825,825.7015347251433
826,825.6837038367995
827,825.6653109714704
828,825.6463844368922
829,825.626953809989
830,825.6070497393416
831,825.5867037403357
832,825.5659479853786
833,825.5448150915228
834,825.5233379077155
835,825.501549303797
836,825.4794819633106
837,825.4571681821052
838,825.4346396745716
839,825.4119273891965
840,825.3890613350455
841,825.3660704208193
842,825.3429823082072
843,825.3198232813156
844,825.2966181339519
845,825.2733900764944
846,825.2501606639601
847,825.2269497466725
848,825.2037754446078
849,825.1806541461013
850,825.1576005311523
851,825.1346276190854
852,825.1117468397808
853,825.0889681270764
854,825.0663000323576
855,825.0437498558895
856,825.0213237931812
857,824.9990270935511
858,824.9768642280012
859,824.9548390634708
860,824.9329550405471
861,824.9112153518183
862,824.8896231182835
863,824.8681815615332
864,824.8468941697099
865,824.8257648555131
866,824.804798104777
867,824.7839991144126
868,824.763373918827
869,824.7429295042482
870,824.7226739105782
871,824.702616320408
872,824.6827671346965
873,824.6631380344526
874,824.6437420276046
875,824.6245934801661
876,824.6057081308082
877,824.5871030880603
878,824.5687968095522
879,824.5508090629786
880,824.5331608688206
881,824.5158744252676
882,824.4989730162321
883,824.4824809037892
884,824.4664232067818
885,824.4508257676433
886,824.4357150097005
887,824.4211177872967
888,824.4070612310222
889,824.3935725901536
890,824.3806790741571
891,824.3684076948407
892,824.3567851104622
893,824.345837472812
894,824.3355902779929
895,824.3260682213781
896,824.3172950570898
897,824.3092934622551
898,824.3020849062206
899,824.2956895248452
900,824.2901259999848
901,824.2854114443045
902,824.2815612916141
903,824.2785891930022
904,824.2765069192147
905,824.275324270012
906,824.2750489915823
907,824.2756867033171
908,824.2772408352025
909,824.2797125767688
910,824.2831008380933
911,824.2874022229079
912,824.2926110135412
913,824.2987191672601
914,824.3057163235426
915,824.3135898218522
916,824.3223247295372
917,824.3319038795637
