acceleration,velocity,displacement
0.04440995412169267,0.0,0.0
0.042715189604888716,2.178128593164535e-05,5.445321482911337e-09
0.041023475420475373,4.271595218798637e-05,2.1569631012819267e-08
0.03933784942281409,6.280628339880873e-05,4.795018990951804e-08
0.03766132463388338,8.205607691298309e-05,8.416577998746599e-08
0.03599687712991998,0.00010047062735393393,1.2979745605419525e-07
0.03434743427425183,0.00011805670520497689,1.8442928919392296e-07
0.03271586338957874,0.00013482252962093453,2.476490979004008e-07
0.031104960951314986,0.00015077773570615797,3.1904916423217393e-07
0.029517442371988792,0.0001659333365369839,3.982269322929594e-07
0.027955932433919486,0.00018030168023846097,4.847856864868206e-07
0.026422956413211886,0.00019389640245024383,5.783352071589968e-07
0.024920931922874767,0.0002067323745342655,6.784924014051241e-07
0.023452161488570086,0.00021882564788712673,7.848819070104722e-07
0.022018825859740986,0.0002301933947242045,8.97136667663305e-07
0.020622978053553048,0.00024085384570252802,1.0148984777699882e-06
0.019266538128803308,0.0002508262247481171,1.1378184953826495e-06
0.017951288689284764,0.00026013068145263913,1.2655577219328385e-06
0.016678871117960778,0.0002687882214044505,1.397787447647111e-06
0.015450782543356597,0.00027682063481977986,1.5341896617031686e-06
0.014268373537517757,0.00028425042383999847,1.674457426368113e-06
0.013132846541407152,0.0002911007288597297,1.8182952145430451e-06
0.01204525500902202,0.000297395254247337,1.965419210319812e-06
0.01100650325660248,0.0003031581938137431,2.115557572335082e-06
0.01001734699878582,0.00030841415637759015,2.268450659882915e-06
0.009078394549348601,0.00031318809176462373,2.4238512219184685e-06
0.008190108659950446,0.0003175052175669485,2.5815245492513615e-06
0.007352808966362426,0.00032139094697352673,2.7412485903864804e-06
0.006566675008421566,0.0003248708179672227,2.9028140316216677e-06
0.005831749787600852,0.0003279704241662283,3.0660243421550303e-06
0.005147943824758127,0.00033071534756931803,3.230695785088917e-06
0.004515039679560695,0.00033313109344539776,3.3966573953425958e-06
0.003932696890918344,0.0003352430275880175,3.56375092560095e-06
0.003400457294232082,0.00033707631613430516,3.7318307615315306e-06
0.00291775066743511,0.00033865586812472195,3.900763807596287e-06
0.002483900655292278,0.0003400062809554038,4.070429344866319e-06
0.0020981309203510446,0.00034115178884931463,4.240718862317498e-06
0.0017595714690923823,0.0003421162144466755,4.411535863141496e-06
0.0014672651029128255,0.0003429229235896768,4.582795647650584e-06
0.0012201739460898726,0.0003435947833519275,4.754425074385985e-06
0.001017186007231513,0.0003441541233402579,4.926362301059032e-06
0.0008571217360527658,0.0003446227002760789,5.098556506963116e-06
0.0007387405425695937,0.0003450216658457345,5.270967598493569e-06
0.0006607472499355485,0.0003453715377938608,5.443565899403468e-06
0.0006217984549946406,0.00034569217422009336,5.616331827406956e-06
0.0006205087729894788,0.0003460027510270894,5.789255558718752e-06
0.0006554569460808871,0.000346321742456857,5.962336682089738e-06
0.0007251917990430444,0.00034666690464313794,6.135583843864737e-06
0.0008282380289546154,0.00034705526210013736,6.309014385550555e-06
0.0009631018179583459,0.0003475030970618656,6.482653975341056e-06
0.0011282762591889287,0.0003480259415811524,6.656536235001811e-06
0.0013222465863203985,0.00034863857229252974,6.830702363470231e-06
0.0015434951976898645,0.0003493550077385323,7.005200758477997e-06
0.001790506467089863,0.0003501885081547272,7.180086637451312e-06
0.0020617713341745626,0.0003511515776050433,7.355421658891254e-06
0.00235579166690868,0.0003522559683553141,7.531273545381344e-06
0.0026710843864441395,0.00035351268736865234,7.707715709312336e-06
0.0030061853423101054,0.0003549320048008409,7.88482688235471e-06
0.003359652923612213,0.0003565234643673215,8.06269074964675e-06
0.003730071390772943,0.0003582958954459178,8.24139558960006e-06
0.00411605391240188,0.0003602574267717115,8.421033920154467e-06
0.004516245293475588,0.0003624155015731809,8.60170215224069e-06
0.004929324383831987,0.00036477689399250777,8.783500251132113e-06
0.0053540061597163085,0.00036734772662839484,8.966531406287338e-06
0.0057890434751560445,0.0003701334890371129,9.150901710203716e-06
0.0062332284838421325,0.0003731390570268625,9.33671984671971e-06
0.006685393735712188,0.00037636871258175106,9.524096789121864e-06
0.007144412955984008,0.0003798261642546751,9.71314550833097e-06
0.00760920151788182,0.0003835145678731416,9.903980691362924e-06
0.008078716622975568,0.0003874365474083559,1.0096718470183298e-05
0.008551957204283625,0.00039159421586517073,1.029147616100168e-05
0.0090279635679422,0.0003959891960582272,1.048837201398253e-05
0.009505816790812747,0.0004006226411479159,1.0687524973284065e-05
0.009984637894311683,0.000405495254819197,1.0889054447275842e-05
0.010463586818358624,0.0004106073109973646,1.1093080088729983e-05
0.010941861223245844,0.0004159586730077657,1.1299721584731266e-05
0.011418695151115285,0.000421548812101356,1.1509098456008547e-05
0.011893357581211218,0.0004273768252844376,1.1721329865354995e-05
0.012365150912713063,0.0004334414524079187,1.1936534434778085e-05
0.012833409405793788,0.0004397410924875454,1.215483007100195e-05
0.013297497607964576,0.000446273819240985,1.2376333798934082e-05
0.013756808791059064,0.00045303739584074093,1.2601161602704514e-05
0.014210763424102433,0.0004600292888945313,1.2829428273888332e-05
0.014658807706829322,0.00046724668167726427,1.306124726653128e-05
0.015100412186384216,0.00047468648665056765,1.3296730558613238e-05
0.015535070476328815,0.0004823453573162459,1.353598851960494e-05
0.015962298094171934,0.0004902196994588711,1.377912978379872e-05
0.01638163143216681,0.0004983056818404558,1.4026261129123552e-05
0.016792626875090633,0.0005065992464172702,1.4277487361187984e-05
0.017194860075629686,0.0005150961181549503,1.4532911202331039e-05
0.017587925392186347,0.0005237918145219043,1.4792633185500253e-05
0.017971435486799206,0.0005326816547416507,1.5056751552816142e-05
0.018345021073928977,0.0005417607688818327,1.532536215872201e-05
0.0187083308047949,0.0005510241068515137,1.5598558377655347e-05
0.019061031266905674,0.0005604664473694389,1.5876431016210585e-05
0.019402807075044225,0.0005700824069549264,1.6159068229791675e-05
0.0197333610290382,0.000579866448980947,1.6446555443775645e-05
0.020052414314374135,0.0005898128928168001,1.673897527922508e-05
0.020359706722560607,0.0005999159230760338,1.7036407483198287e-05
0.02065499686786603,0.0006101695989736405,1.7338928863710705e-05
0.020938062376856567,0.0006205678637848212,1.764661322940032e-05
0.021208700028891345,0.0006311045543862581,1.795953133394309e-05
0.021466725829696668,0.000641773410850905,1.827775082525238e-05
0.021711975004335613,0.0006525680860594131,1.860133619947996e-05
0.021944301898648065,0.000663482155285159,1.89303487598161e-05
0.022163579779732857,0.0006745091257047542,1.926484658006358e-05
0.022369700527969744,0.0006856424457816799,1.9604884472935187e-05
0.02256257421628407,0.0006968755144677434,1.995051396299754e-05
0.022742128575933575,0.0007082016901657978,2.0301783264155928e-05
0.022908308350285424,0.0007196142993973525,2.0658737261546715e-05
0.023061074539142228,0.0007311066451197094,2.1021417497675982e-05
0.02320040353727497,0.0007426720146388137,2.1389862162615614e-05
0.023326286172802226,0.000754303687066333,2.17641060880419e-05
0.02343872665365876,0.0007659949402729482,2.214418074487672e-05
0.023537741432513155,0.0007777390572944913,2.253011424426858e-05
0.023623358001281087,0.0007895293321529398,2.2921931341630437e-05
0.023695613625753467,0.0008013590750596984,2.3319653443433597e-05
0.023754554029438116,0.0008132216169734963,2.3723298616441897e-05
0.023800232034583473,0.0008251103134895017,2.4132881599057647e-05
0.023832706167951478,0.0008370185480401354,2.4548413814440057e-05
0.02385203923926349,0.0008489397343919391,2.4969903385048077e-05
0.023858296900978616,0.0008608673184269997,2.539735514825281e-05
0.02385154619986014,0.0008727947792022094,2.5830770672660114e-05
0.023831854133613755,0.0008847156292855779,2.627014827478206e-05
0.02379928622948487,0.0008966234143763525,2.6715483035697545e-05
0.023753905164692543,0.0009085117122248969,2.7166766817347857e-05
0.0236957694501738,0.0009203741308786135,2.7623988278123735e-05
0.023624932198714855,0.0009322043062908356,2.80871328874161e-05
0.023541439996450426,0.000943995899339627,2.8556182938823712e-05
0.02344533189333706,0.0009557425923120738,2.903111756173664e-05
0.023336638524214713,0.0009674380849164618,2.9511912731043773e-05
0.023215381368608932,0.0009790760898896677,2.9998541274745304e-05
0.02308157215505782,0.0009906503282705844,3.0490972879285367e-05
0.02293521241433254,0.001002154524412932,3.098917409245625e-05
0.022776293184764585,0.0010135824008127062,3.149310832376266e-05
0.022604794872142574,0.001024927672826933,3.2002735842172564e-05
0.02242068726664153,0.001036184043361629,3.25180137712197e-05
0.02222392972038975,0.001047345197608387,3.30388960814622e-05
0.02201447149080581,0.001058404797911186,3.3565333580342095e-05
0.02179225225552501,0.0010693564788477686,3.4097273899531835e-05
0.021557202803485498,0.0010801938426125211,3.4634661479896907e-05
0.021309245903629922,0.0010909104547893,3.5177437554247363e-05
0.021048297348538036,0.001101499840602342,3.572554012809527e-05
0.020774267166751903,0.0011119554817311645,3.627890395867865e-05
0.020487060994657337,0.0011222708137715168,3.683746053255432e-05
0.020186581596510014,0.0011324392244193087,3.7401138042102024e-05
0.019872730519733657,0.0011424540524483696,3.796986136131894e-05
0.019545409871560487,0.0011523085875461932,3.8543552021317587e-05
0.019204524202077168,0.0011619960710646025,3.9122128185970284e-05
0.01884998247739308,0.00117150969773447,3.9705504628170054e-05
0.018481700125204108,0.0011808426183851195,4.029359270719995e-05
0.01809960113337601,0.0011899879436997646,4.0886300347721176e-05
0.017703620180012685,0.0011989387490281118,4.1483532020903144e-05
0.01729370477114424,0.001207688080265901,4.2085188728226644e-05
0.016869817360297575,0.0012162289607987615,4.269116798849281e-05
0.016431937423264695,0.001224554399494652,4.330136382856616e-05
0.015980063460770123,0.0012326573997156608,4.391566677836874e-05
0.015514214901329442,0.0012405309693061858,4.45339638706242e-05
0.015034433877330085,0.0012481681315008506,4.515613864582596e-05
0.014540786850339684,0.0012555619366827681,4.578207116287186e-05
0.014033366066540298,0.001262705474911988,4.641163801577055e-05
0.013512290828522412,0.0012695918891357538,4.704471235678249e-05
0.012977708573754769,0.001276214388986323,4.768116392631301e-05
0.012429795752192666,0.0012825662650678099,4.832085908982654e-05
0.011868758496640458,0.0012886409036300182,4.896366088200099e-05
0.011294833080800535,0.0012944318015243785,4.9609429058289595e-05
0.010708286162002494,0.0012999325813350792,5.025802015400446e-05
0.010109414808398947,0.0013051370065776796,5.090928755098265e-05
0.009498546313677482,0.0013100389968581988,5.1563081551841615e-05
0.008876037805831245,0.001314632642888076,5.221924946177818e-05
0.008242275659336842,0.001318912221254368,5.2877635677813795e-05
0.007597674721792755,0.0013228722088496504,5.35380817853398e-05
0.006942677366470319,0.0013265072968717162,5.420042666177014e-05
0.006277752382062973,0.0013298124043088495,5.486450658706528e-05
0.005603393711266924,0.001332782690832182,5.553015536085054e-05
0.004920119050632002,0.0013354135690226568,5.6197204425814246e-05
0.004228468324103912,0.0013377007158663409,5.6865482997036496e-05
0.003529002041259755,0.0013396400834576818,5.75348181968675e-05
0.0028222995491664505,0.0013412279088552883,5.820503519494574e-05
0.0021089571855805473,0.001342460723038975,5.8875957352919306e-05
0.0013895863420365139,0.0013433353589208793,5.954740637340927e-05
0.0006648114480254368,0.0013438489583683948,6.021920245273159e-05
-6.473210912483463e-05,0.00134399897820312,6.089116443687447e-05
-0.0007984001109791383,0.001343783195148094,6.156310998021227e-05
-0.0015355416612132858,0.0013431997097050458,6.223485570642556e-05
-0.0022755013435648147,0.0013422469489538513,6.290621737109028e-05
-0.0030176213618960724,0.001340923668277486,6.357701002539812e-05
-0.0037612436396954226,0.001339228952027088,6.424704818047427e-05
-0.004505711857439989,0.0013371622131528042,6.491614597176924e-05
-0.005250373409314513,0.0013347231918361157,6.558411732301647e-05
-0.005994581265970275,0.0013319119531672945,6.625077610926732e-05
-0.006737695736409881,0.0013287288839166995,6.691593631853832e-05
-0.00747908612818011,0.0013251746884505521,6.757941221163013e-05
-0.008218132309792896,0.001321250383841059,6.824101847970304e-05
-0.0089542261814546,0.001316957294218247,6.890057039921787e-05
-0.009686773059033385,0.0013122970444081252,6.955788398387446e-05
-0.01041519297186488,0.0013072715529004006,7.02127761332016e-05
-0.011138921869754232,0.001301883024189996,7.086506477747419e-05
-0.011857412731339823,0.0012961339405397224,7.151456901865662e-05
-0.012570136566348875,0.0012900270532153002,7.216110926709537e-05
-0.013276583307423446,0.0012835653732468572,7.280450737371092e-05
-0.013976262590743579,0.0012767521617723155,7.344458675746572e-05
-0.014668704426930497,0.001269590920017897,7.408117252791327e-05
-0.015353459764788694,0.0012620853789699672,7.471409160266023e-05
-0.01603010095139064,0.0012542394887909223,7.534317281960045e-05
-0.016698222092955416,0.001246057408029836,7.596824704380565e-05
-0.017357439320887423,0.0012375434926763752,7.65891472689822e-05
-0.0180073909659071,0.0012287022851046765,7.720570871342747e-05
-0.018647737641486146,0.0012195385029528283,7.781776891044185e-05
-0.019278162237361864,0.0012100570279831163,7.842516779317583e-05
-0.019898369824540404,0.0012002628949676407,7.902774777391352e-05
-0.020508087474130222,0.001190161280642973,7.962535381781618e-05
-0.021107063992791636,0.0011797574927762426,8.021783351117098e-05
-0.021695069576757153,0.0011690569593838555,8.080503712421101e-05
-0.0222718953841968,0.0011580652181436169,8.138681766859288e-05
-0.022837353023034378,0.001146787906041809,8.196303094963923e-05
-0.023391273950191832,0.0011352307492985025,8.253353561347431e-05
-0.02393350877946498,0.0011233995536160883,8.309819318920297e-05
-0.024463926497862987,0.0011113001947967564,8.365686812630618e-05
-0.024982413592840643,0.0010989386097740804,8.420942782744889e-05
-0.025488873094759928,0.0010863207881021803,8.475574267691795e-05
-0.025983223540450028,0.0010734527639433779,8.529568606492934e-05
-0.026465397864461098,0.00106034060859215,8.582913440806322e-05
-0.026935342224218922,0.0010469904235699801,8.635596716610375e-05
-0.027393014764268492,0.0010334083343228582,8.687606685557696e-05
-0.027838384324530934,0.0010196004845506583,8.738931906029533e-05
-0.028271429099090535,0.001005573031194753,8.789561243923168e-05
-0.028692135255226892,0.0009913321401061736,8.83948387320569e-05
-0.02910049552645702,0.0009768839824107526,8.888689276268614e-05
-0.02949650779681949,0.0009622347315799334,8.937167244118381e-05
-0.02988017369594685,0.0009473905612067419,8.984907876438048e-05
-0.030251497225537802,0.0009323576434763707,9.031901581555125e-05
-0.030610483437225486,0.0009171421483106798,9.078139076349801e-05
-0.030957137179540326,0.0009017502431564884,9.12361138613648e-05
-0.03129146192852982,0.0008861880933794709,9.168309844549879e-05
-0.0316134587137738,0.000870461863218895,9.212226093464838e-05
-0.031923125149662966,0.0008545777172530359,9.255352082976637e-05
-0.032220454581090636,0.0008385418223203475,9.297680071465971e-05
-0.032505435353221375,0.0008223603498367695,9.3392026257699e-05
-0.032778050215711146,0.0008060394784445364,9.379912621476932e-05
-0.03303827587141979,0.0007895853969227537,9.419803243361114e-05
-0.033286082677211226,0.0007730043072855959,9.458867985966323e-05
-0.03352143449996672,0.0007563024279913014,9.497100654348245e-05
-0.033744288725422594,0.0007394859971849541,9.534495364977651e-05
-0.033954596412787155,0.0007225612759004016,9.571046546804784e-05
-0.034152302585948875,0.0007055345511507176,9.606748942481063e-05
-0.03433734665265864,0.0006884121388410657,9.641597609730858e-05
-0.034509662944986585,0.0006712003864416544,9.675587922862925e-05
-0.03466918137548995,0.0006539056753615353,9.708715574408005e-05
-0.03481582820204643,0.0006365344229671512,9.740976576866223e-05
-0.034949526890287796,0.0006190930841940677,9.772367264545253e-05
-0.03507019905868067,0.0006015881527068255,9.802884295467776e-05
-0.03517776548911967,0.0005840261615698754,9.832524653324693e-05
-0.03527214718529952,0.0005664136834012706,9.861285649448972e-05
-0.03535326646075521,0.0005487573299897569,9.889164924783748e-05
-0.03542104803807979,0.0005310637513650481,9.916160451817618e-05
-0.03547542014143883,0.0005133396343201685,9.942270536459748e-05
-0.03551631556719338,0.0004955917003930104,9.967493819827578e-05
-0.0355436727220823,0.00047782670332069144,9.991829279920421e-05
-0.03555743662336917,0.0004600514259843286,0.00010015276233153046
-0.03555755985863409,0.0004422726768638278,0.00010037834335724251
-0.03554400350330859,0.00042449728602334213,0.0001005950358479643
-0.035516737992042864,0.0004067321006495043,0.00010080284319463251
-0.03547574393701706,0.0003889839801672393,0.0001010017722148367
-0.035421012883750345,0.0003712597909620474,0.00010119183315761903
-0.03535254799383463,0.0003535664007426512,0.0001013730397055452
-0.035270364644865625,0.0003359106725829761,0.0001015454089738766
-0.03517449094090443,0.0003182994586865336,0.00010170896150669399
-0.03506496813028778,0.00030073959391873554,0.0001018637212698453
-0.034941850929553875,0.0002832378891537751,0.00010200971564061344
-0.034805207751982335,0.00026580112448339107,0.00010214697539402273
-0.0346551208384095,0.0002484360423357931,0.00010227553468572753
-0.03449168628824292,0.00023114934055413003,0.00010239543103145
-0.034315013990468206,0.00021394766548445224,0.00010250670528295965
-0.03412522745714213,0.00019683760512254967,0.0001026094016006114
-0.03392246356466824,0.00017982568236709707,0.00010270356742248382
-0.03370687221115601,0.000162918348423141,0.00010278925343018138
-0.03347861590135605,0.00014612197639501297,0.00010286651351138592
-0.0332378692729106,0.00012944285510144631,0.00010293540471926003
-0.032984818578380225,0.00011288718313862362,0.00010299598722882005
-0.03271966113722799,9.646106320972155e-05,0.00010304832429040714
-0.03244260477134198,8.017049673257906e-05,0.00010309248218039272
-0.03215386723735427,6.402137873040499e-05,0.00010312853014925847
-0.03185367566880727,4.801949300386461e-05,0.00010315654036719203
-0.03154226604124446,3.2170507576351675e-05,0.00010317658786733709
-0.031219882673308857,1.6479970397713346e-05,0.0001031887504868306
-0.030886777776592343,9.533052852380436e-07,0.00010319310880575134
-0.030543211066633894,-1.4404191925568516e-05,0.00010318974608409125
-0.030189449446524255,-2.9587357053858054e-05,0.00010317874819684639
-0.029825766772202087,-4.459116110853964e-05,0.00010316020356730579
-0.029452443703810432,-5.9410713727542774e-05,0.00010313420309859677
-0.02906976764220516,-7.404126656404668e-05,0.00010310084010352387
-0.02867803274627356,-8.847821666116636e-05,0.00010306021023271757
-0.028277540025397882,-0.00010271710985408422,0.00010301241140108876
-0.027868597500245673,-0.00011675364423549511,0.00010295754371256635
-0.02745152042274228,-0.0001305836737162421,0.00010289570938307843
-0.0270266315425624,-0.00014420321170756825,0.00010282701266172247
-0.026594261403999432,-0.00015760843494420871,0.00010275155975005953
-0.026154748654599085,-0.00017079568745885835,0.00010266945871945876
-0.025708440345800103,-0.00018376148470895814,0.0001025808194264168
-0.02525569220589122,-0.00019650251784688097,0.00010248575342577784
-0.0247968688665491,-0.00020901565811499106,0.00010238437388178737
-0.024332344025164248,-0.0002212979613379194,0.00010227679547692415
-0.02386250052519563,-0.00023334667247550936,0.00010216313431847079
-0.023387730336281037,-0.0002451592301908785,0.0001020435078428042
