frame_number,force
0,859.8035300083452
1,859.778319396079
2,859.7530684961863
3,859.727737181619
4,859.7022856430968
5,859.6766745391325
6,859.6508651350215
7,859.62481942758
8,859.598500253822
9,859.5718713837354
10,859.5448975994145
11,859.5175447644093
12,859.489779887765
13,859.4615711870898
14,859.4328881547181
15,859.4037016309582
16,859.37398388836
17,859.3437087307675
18,859.3128516107854
19,859.2813897692241
20,859.2493023999041
21,859.2165708424643
22,859.1831788041683
23,859.1491126093235
24,859.1143614724009
25,859.0789177885707
26,859.042777433236
27,859.0059400606606
28,858.9684093916826
29,858.9301934818467
30,858.8913049633062
31,858.8517612555793
32,858.8115847414335
33,858.770802905167
34,858.7294484316512
35,858.6875592656361
36,858.6451786319866
37,858.602355018724
38,858.5591421256148
39,858.5155987809895
40,858.4717888283624
41,858.427780983054
42,858.3836486584661
43,858.3394697622383
44,858.2953264636382
45,858.2513049342994
46,858.2074950643863
47,858.1639901555795
48,858.1208865914638
49,858.0782834853576
50,858.036282305396
51,857.9949864767207
52,857.9545009609869
53,857.914931814119
54,857.876385724386
55,857.8389695342553
56,857.8027897506657
57,857.767952048877
58,857.7345607747202
59,857.7027184490686
60,857.6725252768931
61,857.6440786614833
62,857.6174727224682
63,857.5927978147903
64,857.5701400456809
65,857.5495807882018
66,857.5311961920122
67,857.515056693272
68,857.5012265256576
69,857.489763234349
70,857.4807171955815
71,857.4741311462138
72,857.4700397303276
73,857.4684690722703
74,857.4694363868365
75,857.47294963714
76,857.4790072495653
77,857.4875978935424
78,857.4987003320381
79,857.5122833466202
80,857.5283057388497
81,857.5467164078754
82,857.5674545027559
83,857.5904496471294
84,857.6156222330321
85,857.6428837795811
86,857.6721373508865
87,857.7032780264141
88,857.7361934164711
89,857.7707642154411
90,857.8068647855055
91,857.8443637638205
92,857.8831246866887
93,857.9230066251107
94,857.9638648269146
95,858.0055513613463
96,858.0479157625948
97,858.0908056692235
98,858.1340674571666
99,858.1775468649948
100,858.2210896111405
101,858.2645420029758
102,858.3077515370887
103,858.3505674895517
104,858.3928414949595
105,858.4344281132828
106,858.4751853835932
107,858.5149753633613
108,858.5536646516217
109,858.5911248941612
110,858.6272332691408
111,858.6618729521526
112,858.6949335603887
113,858.7263115758451
114,858.7559107470231
115,858.7836424675967
116,858.8094261293729
117,858.8331894457874
118,858.8548687414116
119,858.8744092028066
120,858.8917650864474
121,858.9068998801481
122,858.9197864155983
123,858.930406931379
124,858.9387530877614
125,858.9448259362171
126,858.9486358478357
127,858.9502024056954
128,858.9495542665418
129,858.9467289968328
130,858.9417728872149
131,858.9347407476514
132,858.9256956832522
133,858.9147088493393
134,858.9018591835792
135,858.8872331122487
136,858.8709242264016
137,858.8530329226381
138,858.8336660032727
139,858.8129362320993
140,858.7909618441829
141,858.7678660102783
142,858.7437762577975
143,858.7188238505894
144,858.6931431297537
145,858.6668708177951
146,858.6401452889972
147,858.6131058103933
148,858.5858917600863
149,858.5586418319066
150,858.5314932365394
151,858.5045809094692
152,858.4780367360302
153,858.4519888033515
154,858.4265606876019
155,858.4018707829432
156,858.378031676753
157,858.3551495743704
158,858.3333237757463
159,858.3126462058518
160,858.2932010004503
161,858.2750641486624
162,858.2583031934497
163,858.2429769908313
164,858.2291355285819
165,858.2168198053881
166,858.2060617719759
167,858.1968843363212
168,858.1893014348827
169,858.1833181701683
170,858.178931012259
171,858.1761280591982
172,858.174889349131
173,858.1751872160621
174,858.1769866810828
175,858.1802458714936
176,858.1849164606296
177,858.1909441211235
178,858.1982689844435
179,858.2068261006589
180,858.2165458946641
181,858.2273546181032
182,858.2391747993181
183,858.2519256958755
184,858.2655237547368
185,858.2798830838902
186,858.2949159372452
187,858.310533212863
188,858.3266449632914
189,858.3431609154467
190,858.3599909959657
191,858.3770458565016
192,858.3942373925213
193,858.4114792490132
194,858.4286873070006
195,858.4457801455495
196,858.462679474661
197,858.4793105349411
198,858.4956024605043
199,858.5114886024803
200,858.5269068115422
201,858.5417996784878
202,858.5561147317263
203,858.569804589794
204,858.5828270662242
205,858.595145223646
206,858.6067273740277
207,858.6175470225711
208,858.6275827539263
209,858.6368180610468
210,858.6452411188252
211,858.6528445062528
212,858.6596248819404
213,858.6655826184261
214,858.6707214010654
215,858.6750477974365
216,858.6785708028822
217,858.6813013671505
218,858.683251906802
219,858.6844358087385
220,858.6848669316316
221,858.6845591131871
222,858.6835256913555
223,858.6817790469274
224,858.6793301740789
225,858.6761882845944
226,858.6723604505088
227,858.6678512887449
228,858.6626626903158
229,858.6567935959916
230,858.6502398199751
231,858.6429939230426
232,858.6350451369851
233,858.6263793429562
234,858.6169791069957
235,858.6068237759881
236,858.5958896366633
237,858.584150139302
238,858.5715761865401
239,858.5581364856885
240,858.5437979603662
241,858.5285262146416
242,858.512286040907
243,858.4950419614682
244,858.4767587930927
245,858.4574022234417
246,858.4369393883092
247,858.415339438769
248,858.3925740877197
249,858.3686181261157
250,858.3434499004961
251,858.3170517450437
252,858.2894103628754
253,858.260517152293
254,858.2303684743683
255,858.1989658585269
256,858.1663161427085
257,858.1324315444139
258,858.097329659162
259,858.0610333841622
260,858.0235707673179
261,857.9849747843133
262,857.945283048669
263,857.904537461041
264,857.8627838049676
265,857.82007129709
266,857.7764521005088
267,857.7319808100663
268,857.6867139176892
269,857.6407092647283
270,857.5940254870833
271,857.5467214582346
272,857.4988557352876
273,857.450486013821
274,857.4016685984377
275,857.3524578964777
276,857.3029059416053
277,857.2530619520497
278,857.202971926028
279,857.1526782750731
280,857.1022194950651
281,857.0516298748882
282,857.0009392436629
283,856.950172758753
284,856.8993507374735
285,856.8484885354592
286,856.7975964744031
287,856.746679821801
288,856.6957388256039
289,856.644768806997
290,856.5937603144912
291,856.5426993420944
292,856.4915676135792
293,856.4403429336586
294,856.3889996051201
295,856.3375089087136
296,856.2858396399445
297,856.2339586942504
298,856.1818316901051
299,856.1294236187103
300,856.0766995085697
301,856.0236250928907
302,855.9701674677746
303,855.9162957299859
304,855.8619815844066
305,855.8071999124871
306,855.7519292940656
307,855.6961524760775
308,855.6398567831287
309,855.5830344668216
310,855.525682993061
311,855.4678052687068
312,855.4094098101459
313,855.3505108563884
314,855.2911284287113
315,855.2312883386285
316,855.1710221466066
317,855.1103670749274
318,855.0493658785697
319,854.9880666781029
320,854.9265227592531
321,854.8647923452534
322,854.8029383493697
323,854.741028115155
324,854.679133150957
325,854.6173288636146
326,854.5556942947829
327,854.4943118623182
328,854.4332671085107
329,854.372648456176
330,854.3125469723083
331,854.2530561372753
332,854.1942716157253
333,854.1362910239129
334,854.0792136876343
335,854.0231403858425
336,853.9681730770692
337,853.9144146082168
338,853.8619684073401
339,853.8109381632485
340,853.761427494937
341,853.7135396130517
342,853.6673769743502
343,853.6230409294066
344,853.5806313641976
345,853.5402463374627
346,853.5019817170065
347,853.4659308186195
348,853.4321840507602
349,853.4008285667743
350,853.3719479246944
351,853.3456217532542
352,853.3219254223519
353,853.300929717115
354,853.2827005166661
355,853.2672984808179
356,853.2547787493528
357,853.2451906588384
358,853.2385774814674
359,853.2349761899178
360,853.2344172520221
361,853.2369244587669
362,853.2425147884884
363,853.2511983089981
364,853.2629781177903
365,853.2778503187661
366,853.2958040329702
367,853.3168214413403
368,853.3408778588744
369,853.3679418408243
370,853.3979753223575
371,853.4309337943283
372,853.4667665194693
373,853.5054167943975
374,853.5468222624747
375,853.5909152810445
376,853.6376233443416
377,853.6868695603914
378,853.7385731766988
379,853.7926501462871
380,853.8490137233864
381,853.9075750767869
382,853.9682439083514
383,854.0309290644158
384,854.0955391287383
385,854.16198298728
386,854.2301703575506
387,854.3000122781525
388,854.3714215563164
389,854.444313171761
390,854.5186046345451
391,854.5942162938387
392,854.6710715943896
393,854.7490972779772
394,854.8282235281707
395,854.9083840578332
396,854.9895161394364
397,855.0715605781178
398,855.154461627102
399,855.238166845258
400,855.3226268972247
401,855.4077952972349
402,855.4936280982545
403,855.5800835288456
404,855.667121581892
405,855.7547035617526
406,855.8427915984942
407,855.931348139213
408,856.0203354277215
409,856.1097149854087
410,856.1994471071663
411,856.2894903858912
412,856.3798012772195
413,856.4703337137115
414,856.5610387755335
415,856.6518644231031
416,856.742755295972
417,856.8336525808664
418,856.9244939500111
419,857.0152135688995
420,857.1057421710332
421,857.1960071957967
422,857.2859329844563
423,857.3754410282543
424,857.4644502618023
425,857.5528773945227
426,857.6406372728478
427,857.7276432661846
428,857.8138076701667
429,857.8990421215652
430,857.9832580204228
431,858.0663669560463
432,858.1482811339523
433,858.2289138009255
434,858.3081796657211
435,858.3859953138289
436,858.4622796154671
437,858.5369541257887
438,858.6099434751911
439,858.6811757462949
440,858.7505828329702
441,858.8181007759488
442,858.8836700695808
443,858.9472359355229
444,859.0087485610811
445,859.0681633017739
446,859.1254408492335
447,859.1805473667605
448,859.2334545954476
449,859.2841399337009
450,859.332586492466
451,859.378783127913
452,859.4227244530898
453,859.4644108302527
454,859.5038483459223
455,859.5410487707462
456,859.5760295060379
457,859.6088135189284
458,859.6394292685865
459,859.6679106263342
460,859.6942967921067
461,859.7186322086013
462,859.7409664731726
463,859.7613542464143
464,859.7798551554089
465,859.7965336886742
466,859.811459079074
467,859.8247051706937
468,859.8363502658503
469,859.8464769486523
470,859.8551718816441
471,859.8625255720232
472,859.8686321036113
473,859.8735888302448
474,859.8774960260364
475,859.8804564888459
476,859.8825750953945
477,859.8839583088652
478,859.8847136415078
479,859.8849490756876
480,859.8847724477166
481,859.8842908001789
482,859.8836097100011
483,859.8828326006786
484,859.8820600475592
485,859.8813890848895
486,859.8809125224794
487,859.8807182785694
488,859.8808887341925
489,859.881500113326
490,859.8826218925781
491,859.8843162441221
492,859.886637516002
493,859.8896317546112
494,859.8933362750508
495,859.8977792860281
496,859.9029795765293
497,859.9089462714384
498,859.9156786626862
499,859.9231661215455
500,859.9313880961998
501,859.9403141965778
502,859.9499043657772
503,859.9601091347361
504,859.9708699548614
505,859.9821196025403
506,859.9937826494787
507,860.0057759928487
508,860.0180094388066
509,860.0303863324422
510,860.0428042273576
511,860.0551555892526
512,860.0673285296499
513,860.0792075674525
514,860.0906744169779
515,860.1016088015481
516,860.1118892917688
517,860.1213941673377
518,860.1300023006816
519,860.1375940599506
520,860.1440522277276
521,860.1492629300403
522,860.1531165679642
523,860.1555087417754
524,860.1563411561696
525,860.1555224950588
526,860.1529692553191
527,860.1486065293308
528,860.1423687259871
529,860.1342002200569
530,860.1240559211628
531,860.1119017559009
532,860.0977150590024
533,860.0814848714475
534,860.0632121447954
535,860.0429098516288
536,860.0206030020763
537,859.99632856629
538,859.9701353028993
539,859.9420834941725
540,859.912244589861
541,859.880700762966
542,859.8475443817057
543,859.8128774030566
544,859.7768106942715
545,859.739463289169
546,859.7009615856501
547,859.6614384906193
548,859.6210325189072
549,859.579886853798
550,859.5381483777635
551,859.4959666826248
552,859.4534930685961
553,859.4108795419294
554,859.3682778214904
555,859.3258383650361
556,859.2837094252285
557,859.2420361431796
558,859.2009596845601
559,859.1606164212578
560,859.1211371605795
561,859.0826464236895
562,859.0452617751374
563,859.0090932061596
564,858.9742425759648
565,858.9408031166852
566,858.9088590082366
567,858.8784850286967
568,858.8497462843621
569,858.8226980218741
570,858.7973855230621
571,858.7738440818994
572,858.7520990625527
573,858.7321660376833
574,858.7140510060143
575,858.69775068705
576,858.6832528887754
577,858.6705369416414
578,858.6595741899049
579,858.6503285301961
580,858.6427569871054
581,858.6368103159944
582,858.6324336238453
583,858.6295669998824
584,858.6281461488736
585,858.6281030213004
586,858.6293664362516
587,858.6318626950532
588,858.635516185646
589,858.6402499787155
590,858.6459864163784
591,858.6526476933086
592,858.6601564289056
593,858.668436227834
594,858.6774122254599
595,858.6870116145761
596,858.6971641498387
597,858.7078026257343
598,858.7188633226826
599,858.7302864150604
600,858.7420163354155
601,858.7540020908045
602,858.7661975292073
603,858.7785615556974
604,858.7910582991394
605,858.8036572305264
606,858.8163332339051
607,858.8290666305322
608,858.8418431566475
609,858.8546538949946
610,858.8674951601139
611,858.8803683377708
612,858.893279679681
613,858.906240055585
614,858.9192646653282
615,858.9323727137792
616,858.945587051283
617,858.9589337821342
618,858.9724418434973
619,858.9861425574547
620,859.0000691593474
621,859.0142563059655
622,859.0287395671337
623,859.04355490402
624,859.0587381374506
625,859.074324409555
626,859.0903476419397
627,859.1068399934858
628,859.1238313211562
629,859.1413486479327
630,859.1594156428861
631,859.1780521191793
632,859.1972735562481
633,859.2170906524677
634,859.2375089144921
635,859.2585282892126
636,859.2801428435527
637,859.3023404959033
638,859.325102801508
639,859.348404793206
640,859.3722148786587
641,859.3964947950528
642,859.4211996221106
643,859.4462778542114
644,859.4716715324541
645,859.4973164371688
646,859.5231423406964
647,859.5490733198044
648,859.575028127426
649,859.6009206240029
650,859.6266602684866
651,859.6521526675618
652,859.6773001795415
653,859.7020025673892
654,859.7261576938009
655,859.7496622503571
656,859.7724125124736
657,859.794305111987
658,859.815237819279
659,859.8351103265445
660,859.8538250233054
661,859.8712877551129
662,859.8874085569938
663,859.9021023543941
664,859.9152896254906
665,859.9268970192602
666,859.9368579237871
667,859.945112979653
668,859.9516105341874
669,859.9563070336051
670,859.9591673510978
671,859.9601650494221
672,859.9592825764968
673,859.9565113923278
674,859.9518520255251
675,859.9453140579632
676,859.9369160368559
677,859.9266853144292
678,859.9146578160858
679,859.9008777383458
680,859.8853971781525
681,859.868275695586
682,859.8495798125795
683,859.8293824507178
684,859.807762311561
685,859.7848032033037
686,859.7605933181599
687,859.7352244657263
688,859.708791268587
689,859.6813903274245
690,859.6531193642671
691,859.6240763545551
692,859.5943586608961
693,859.5640621824526
694,859.5332805331979
695,859.5021042603739
696,859.470620112579
697,859.4389103654472
698,859.4070522114514
699,859.3751172184919
700,859.3431708600574
701,859.3112721185855
702,859.2794731634162
703,859.2478191049232
704,859.216347826495
705,859.1850898956625
706,859.15406855465
707,859.123299789183
708,859.0927924730695
709,859.0625485851015
710,859.032563493939
711,859.0028263058241
712,858.9733202693058
713,858.9440232306501
714,858.9149081331797
715,858.8859435533665
716,858.8570942659879
717,858.828321830162
718,858.7995851880519
719,858.7708412685898
720,858.7420455893247
721,858.7131528500006
722,858.6841175119106
723,858.6548943576364
724,858.6254390261844
725,858.5957085183413
726,858.5656616664826
727,858.5352595626
728,858.5044659383943
729,858.473247492128
730,858.4415741586382
731,858.4094193213222
732,858.3767599676195
733,858.3435767920057
734,858.3098542521591
735,858.2755805843227
736,858.2407477833458
737,858.2053515526208
738,858.169391229811
739,858.1328696953848
740,858.0957932717715
741,858.0581716211531
742,858.020017649352
743,857.9813474218718
744,857.9421800962091
745,857.9025378726849
746,857.8624459645243
747,857.8219325866421
748,857.7810289614159
749,857.7397693386215
750,857.6981910257083
751,857.6563344239516
752,857.6142430659506
753,857.5719636504142
754,857.5295460708732
755,857.4870434356023
756,857.444512076436
757,857.4020115440935
758,857.3596045869948
759,857.3173571096524
760,857.2753381061566
761,857.2336195642408
762,857.1922763354645
763,857.1513859667917
764,857.1110284885971
765,857.0712861544952
766,857.0322431294104
767,856.9939851235358
768,856.9565989710943
769,856.9201721543901
770,856.8847922757059
771,856.8505464817667
772,856.8175208472172
773,856.7857997248328
774,856.7554650713112
775,856.7265957586264
776,856.6992668822367
777,856.673549079011
778,856.6495078691553
779,856.627203036775
780,856.6066880623721
781,856.5880096177563
782,856.5712071304604
783,856.5563124216208
784,856.5433494186275
785,856.5323339416146
786,856.523273561072
787,856.5161675226311
788,856.5110067345774
789,856.5077738137973
790,856.5064431863826
791,856.506981239688
792,856.509346523291
793,856.513489997166
794,856.519355326183
795,856.5268792201846
796,856.5359918179719
797,856.5466171117934
798,856.5586734071297
799,856.5720738115496
800,856.58672674652
801,856.6025364768714
802,856.6194036534625
803,856.6372258652307
804,856.6558981971892
805,856.6753137908938
806,856.6953644034675
807,856.7159409610192
808,856.7369341025184
809,856.7582347106018
810,856.7797344260016
811,856.8013261423208
812,856.8229044780177
813,856.844366223007
814,856.865610758388
815,856.8865404489667
816,856.9070610085198
817,856.9270818368859
818,856.9465163269113
819,856.9652821392278
820,856.9833014440038
821,857.0005011302837
822,857.0168129844366
823,857.0321738395008
824,857.0465256974104
825,857.0598158265492
826,857.0719968377149
827,857.0830267419899
828,857.0928689939003
829,857.101492522615
830,857.1088717532534
831,857.1149866199473
832,857.1198225718624
833,857.1233705726297
834,857.1256270929022
835,857.1265940955135
836,857.126279012811
837,857.1246947156652
838,857.121859473162
839,857.1177969012014
840,857.1125358973233
841,857.106110558003
842,857.0985600735133
843,857.0899285947453
844,857.080265066826
845,857.0696230260127
846,857.0580603583035
847,857.0456390193747
848,857.0324247156461
849,857.0184865463198
850,857.0038966068093
851,856.988729554994
852,856.973062142734
853,856.9569727159651
854,856.9405406876268
855,856.9238459887034
856,856.9069685035495
857,856.8899874960711
858,856.8729810328168
859,856.8560254074761
860,856.8391945694451
861,856.8225595583343
862,856.8061879470323
863,856.7901432972976
864,856.7744846325141
865,856.7592659320001
866,856.7445356510108
867,856.7303362711978
868,856.7167038875423
869,856.7036678385721
870,856.6912503863949
871,856.6794664524149
872,856.668323414313
873,856.6578209697008
874,856.6479510709207
875,856.6386979335257
876,856.6300381189476
877,856.6219406909674
878,856.614367445798
879,856.6072732155907
880,856.600606243952
881,856.5943086300412
882,856.5883168365785
883,856.5825622576368
884,856.5769718437862
885,856.5714687832784
886,856.5659732372749
887,856.5604031248599
888,856.5546749509281
889,856.5487046680715
890,856.5424085626254
891,856.535704154697
892,856.5285111018575
893,856.5207520959623
894,856.5123537424473
895,856.5032474117995
896,856.4933700541349
897,856.4826649698061
898,856.4710825306535
899,856.4585808465976
900,856.4451263708173
901,856.4306944350062
902,856.4152697048968
903,856.3988465452313
904,856.3814292829052
905,856.3630323579922
906,856.3436803551118
907,856.3234079113357
908,856.3022595004011
909,856.2802890960346
910,856.2575597201666
911,856.2341428850167
912,856.2101179409683
913,856.185571344001
914,856.1605958568658
915,856.1352896975555
916,856.1097556476557
917,856.0841001324033
