frame_number,force
0,544.6034200000381
1,544.6127079884762
2,544.6209494094459
3,544.6274465886358
4,544.6320744274981
5,544.6353100203702
6,544.6380877615486
7,544.6415727828896
8,544.6469633421607
9,544.6553955472875
10,544.667963725759
11,544.6858147108009
12,544.7102380011685
13,544.7426704157384
14,544.7845733011577
15,544.8372046300472
16,544.9013589540903
17,544.9771612030385
18,545.0639770926862
19,545.1604576635241
20,545.2646911084048
21,545.3744122676105
22,545.487219132985
23,545.600754738454
24,545.7128283398046
25,545.8214696737025
26,545.9249240545996
27,546.0215991783585
28,546.1099742898485
29,546.1884859406199
30,546.2554138370392
31,546.3088063041861
32,546.3465001801675
33,546.3662854503136
34,546.3662297990934
35,546.3451227185162
36,546.3029419209809
37,546.2412072332918
38,546.1630942454185
39,546.0732436299794
40,545.9772956886699
41,545.8812544025429
42,545.790813169276
43,545.71076194115
44,545.6445603962726
45,545.594115404675
46,545.5597533927643
47,545.540345159466
48,545.5335344288211
49,545.5360350838921
50,545.543974506576
51,545.5532603107374
52,545.559942709234
53,545.5605452339126
54,545.5523437991507
55,545.5335844002948
56,545.5036362552869
57,545.4630724875716
58,545.4136569585193
59,545.3582085477404
60,545.3003286761589
61,545.244015574161
62,545.1932288323106
63,545.1514798160291
64,545.1214993241282
65,545.1049994435058
66,545.1025342962258
67,545.1134769090805
68,545.1361378597497
69,545.1680302245927
70,545.206241804077
71,545.2478393315142
72,545.2902221339068
73,545.331362856546
74,545.3699038624634
75,545.4051078534033
76,545.4366908045031
77,545.464592439126
78,545.4887479275657
79,545.508904433327
80,545.52449537388
81,545.534570433873
82,545.5377866516296
83,545.5324836617131
84,545.5168780360472
85,545.4893970409815
86,545.4491200193772
87,545.3962295358128
88,545.3323406955351
89,545.2605998997049
90,545.1855077534836
91,545.1124918524634
92,545.0473073955205
93,544.9953644465872
94,544.9610742368728
95,544.9472890712085
96,544.9548931759628
97,544.982587755718
98,545.0269035159527
99,545.0824633597526
100,545.1424923685423
101,545.1995281780097
102,545.2462434044787
103,545.2762727359418
104,545.2849376446321
105,545.2697706349255
106,545.2307609705899
107,545.1702843806485
108,545.0927360694794
109,545.003937613398
110,544.9104127672017
111,544.8186229708059
112,544.7342381969187
113,544.6615106125887
114,544.6028170224708
115,544.5584272326606
116,544.5265304134675
117,544.503516114391
118,544.4844749271648
119,544.4638621121685
120,544.4362474006236
121,544.3970522809075
122,544.3431707420824
123,544.2733958373407
124,544.1886155918294
125,544.0917716909236
126,543.9875939913484
127,543.8821467475968
128,543.7822430838889
129,543.6947902361536
130,543.6261263712966
131,543.5814125260176
132,543.5641439494614
133,543.5758326927634
134,543.6158898722755
135,543.6817069251323
136,543.768905330758
137,543.8717089315288
138,543.9834019239271
139,544.0968504141728
140,544.2050605720636
141,544.3017243839828
142,544.3816881587101
143,544.4412845841198
144,544.4784968153645
145,544.4929620374594
146,544.4858513153395
147,544.4596684742439
148,544.4180021560963
149,544.3652574340746
150,544.3063882905939
151,544.2466451005992
152,544.1913412262935
153,544.1456319471012
154,544.1142921148426
155,544.1014837719658
156,544.1105219143695
157,544.1436599484756
158,544.2019090475366
159,544.284887519706
160,544.39069807976
161,544.515858865049
162,544.6553381450676
163,544.8027386498925
164,544.9506500827669
165,545.0911495595215
166,545.2163878808406
167,545.3191741341219
168,545.3934842578595
169,545.4348645529502
170,545.440741597457
171,545.410653915879
172,545.3463914789161
173,545.2519976839886
174,545.1335825203251
175,544.9989183671643
176,544.8568284716105
177,544.7164230779713
178,544.5862815975154
179,544.473702349062
180,544.3841252824246
181,544.3207840899041
182,544.2845935626411
183,544.2742511089107
184,544.2865257962243
185,544.3167066643783
186,544.3591725076928
187,544.408027647057
188,544.4577314903677
189,544.5036457263172
190,544.5424350590363
191,544.5722779564611
192,544.5928683777389
193,544.6052240214178
194,544.6113615759004
195,544.6139317537708
196,544.6158979786858
197,544.6202941528318
198,544.6300427319617
199,544.6477862490253
200,544.6756922721677
201,544.7152260088504
202,544.766928733748
203,544.8302669707564
204,544.9036073020053
205,544.9843339782245
206,545.0690895267458
207,545.1540989964881
208,545.2355329960988
209,545.3098658220881
210,545.3741902114532
211,545.4264575589718
212,545.4656191901936
213,545.4916550392034
214,545.5054993685727
215,545.508901067041
216,545.5042641131121
217,545.494491839528
218,545.4828238918305
219,545.472630866642
220,545.4671322957745
221,545.4690343903881
222,545.480138149788
223,545.5010182747809
224,545.530882112864
225,545.5676709555263
226,545.6083843996423
227,545.6495324062105
228,545.6875839794124
229,545.7192994906925
230,545.7418939952435
231,545.75305283522
232,545.7508741988855
233,545.7338203908132
234,545.7007234960623
235,545.6508458696778
236,545.5839729398994
237,545.5005156025743
238,545.4016028866863
239,545.289142211977
240,545.1658216832479
241,545.0350351727229
242,544.9007233198545
243,544.7671383658039
244,544.6385618981639
245,544.5190274157266
246,544.4121051635528
247,544.3207842006707
248,544.2474476285137
249,544.1939032892242
250,544.1614213237208
251,544.1507463572364
252,544.1620830190452
253,544.1950754659365
254,544.2487997133751
255,544.321767882094
256,544.4119254250755
257,544.5166222694485
258,544.6325566168478
259,544.7557124898758
260,544.8813282299692
261,545.0039394223019
262,545.117532685068
263,545.2158279159563
264,545.2926866035974
265,545.3426276400294
266,545.3614104815513
267,545.3466122656678
268,545.2980943730719
269,545.2182501090391
270,545.1119595899733
271,544.986234204894
272,544.8495867858157
273,544.7112070832836
274,544.5800555633267
275,544.4640021570755
276,544.3691225166633
277,544.29923283575
278,544.2557097780061
279,544.2376036013914
280,544.2420054634671
281,544.2645885101946
282,544.300228742576
283,544.34362417629
284,544.3898476955351
285,544.4347803756207
286,544.4753871575693
287,544.5098212306665
288,544.5373678060032
289,544.5582543644607
290,544.5733697120422
291,544.5839515449209
292,544.5913048839132
293,544.5965869340667
294,544.6006544564267
295,544.6039512654312
296,544.6064253274719
297,544.6074857463302
298,544.6060200106197
299,544.6004889777579
300,544.5891031290623
301,544.5700629075628
302,544.5418322112429
303,544.5034157574551
304,544.4546157389561
305,544.3962359201786
306,544.3301896574127
307,544.2594733619799
308,544.1879929552997
309,544.1202633738656
310,544.0610325419644
311,544.0149091121428
312,543.9860767765549
313,543.9781340512848
314,543.9940244415596
315,544.035970798391
316,544.1053351979962
317,544.2023785675408
318,544.3259558661236
319,544.4732311195949
320,544.6395228780445
321,544.8183806511867
322,545.0019416369407
323,545.1815452288201
324,545.3485183744334
325,545.4950057413432
326,545.6147163027941
327,545.7034915963952
328,545.7596475915802
329,545.7840738814714
330,545.7800871643967
331,545.7530524357594
332,545.7098186922154
333,545.6580484974004
334,545.6055259577719
335,545.5595060610971
336,545.5261454627705
337,545.5100494704222
338,545.5139748612015
339,545.5387214843452
340,545.5832185508522
341,545.6447777414488
342,545.7194604339383
343,545.8024927414278
344,545.8886619650578
345,545.9726496501816
346,546.0492925712103
347,546.113789495097
348,546.1618772959267
349,546.1899957502113
350,546.1954543570571
351,546.1766008899949
352,546.1329701656338
353,546.0653805240235
354,545.9759572747698
355,545.8680842091012
356,545.7462944924575
357,545.6161036688977
358,545.4837707490098
359,545.3559675667958
360,545.2393535738832
361,545.1400837384285
362,545.0633018369072
363,545.012682843828
364,544.9900876076553
365,544.9953787649607
366,545.0264244036973
367,545.0792997724707
368,545.1486873871596
369,545.2284525262922
370,545.3123238422978
371,545.3945604798168
372,545.4704765400867
373,545.5367334372653
374,545.5913766080965
375,545.6336564675045
376,545.6637192234058
377,545.6822676192
378,545.6902652885227
379,545.6887082561792
380,545.678452470819
381,545.6600882512157
382,545.633873934117
383,545.5997526769406
384,545.5574667536383
385,545.5067588657565
386,545.4476204384383
387,545.3805216549418
388,545.3065498010357
389,545.2274064994003
390,545.1452664115918
391,545.0625465402057
392,544.9816463781625
393,544.9047011745994
394,544.833372325145
395,544.7686956021458
396,544.7110108158962
397,544.6599926625431
398,544.6147914590017
399,544.5742777856559
400,544.5373638289047
401,544.5033460689316
402,544.4721912938683
403,544.444686225882
404,544.4223943801468
405,544.4074064246633
406,544.401924001737
407,544.4077661421751
408,544.4259074932229
409,544.4561367046751
410,544.4968825494035
411,544.5452287769157
412,544.5971323919641
413,544.6478482941225
414,544.6925267662592
415,544.7269018249493
416,544.7479568278717
417,544.7544534340531
418,544.7472315715711
419,544.7292189613005
420,544.7051319691607
421,544.6809072009662
422,544.6629561207777
423,544.6573597547118
424,544.6691135954705
425,544.7015053819918
426,544.7556770271594
427,544.8304042487164
428,544.9221259549103
429,545.025249763129
430,545.1327297522988
431,545.2368596603852
432,545.330169763084
433,545.406283364764
434,545.4605949065701
435,545.4906732202642
436,545.4963531713406
437,545.4795367150978
438,545.4437641822149
439,545.3936358568903
440,545.3341761485818
441,545.270243927112
442,545.2060837041237
443,545.1450672898774
444,545.0896144266759
445,545.0412409742636
446,545.000679267264
447,544.968032941687
448,544.9429442527669
449,544.9247515002894
450,544.9126024088471
451,544.9054866306143
452,544.9021738686462
453,544.9010855880242
454,544.9001604082555
455,544.8967807649817
456,544.8878180129449
457,544.8698272441369
458,544.8393778741876
459,544.7934609502051
460,544.7299007972308
461,544.6477169471069
462,544.5474010822292
463,544.4310723747795
464,544.3024649663421
465,544.166708295508
466,544.0298907576916
467,543.8984370421846
468,543.7783720966302
469,543.6745871989782
470,543.5902455642182
471,543.5264382704456
472,543.4821319163237
473,543.4543831521858
474,543.4387676083774
475,543.4299691089092
476,543.4224643616544
477,543.411209423758
478,543.3922136369529
479,543.3629053642525
480,543.3222531880649
481,543.2706740521427
482,543.2097996747906
483,543.1421753371059
484,543.0709487631862
485,542.9995905649358
486,542.9316755573066
487,542.8707391477893
488,542.8201993778483
489,542.783307460551
490,542.7630711457834
491,542.7620981964508
492,542.7823341749283
493,542.8247110722734
494,542.8887667124117
495,542.9723261877208
496,543.0713461375933
497,543.1800061045933
498,543.2910927650288
499,543.3966705253843
500,543.4889711433229
501,543.5613737945839
502,543.609303169534
503,543.6308678090807
504,543.6271041993896
505,543.6017761153565
506,543.560779663564
507,543.5112900483857
508,543.4608257930653
509,543.4163878392048
510,543.3837732341436
511,543.3671047519802
512,543.3685856319937
513,543.3884769664846
514,543.4252806977142
515,543.4760845933952
516,543.5370027707373
517,543.6036448314637
518,543.6715661699222
519,543.7366749470287
520,543.795588852117
521,543.8459477400348
522,543.8866904479473
523,543.9182852605014
524,543.9428699772851
525,543.9642327321533
526,543.9875650685402
527,544.0189455244125
528,544.0645649033734
529,544.1297788108916
530,544.2181422581319
531,544.3306103727581
532,544.4650696690243
533,544.6163121863486
534,544.7764935537331
535,544.9360319386349
536,545.0848211193208
537,545.2135645891038
538,545.3150001635341
539,545.3847897789424
540,545.4219136088627
541,545.4285247203943
542,545.409347050599
543,545.3707848865017
544,545.3199348141413
545,545.2636638984783
546,545.2078696864213
547,545.1569920011984
548,545.1138053017444
549,545.0794731693168
550,545.0537987373928
551,545.0355803373458
552,545.0229930947675
553,545.0139504933294
554,545.0064276548576
555,544.9987335131314
556,544.9897095266635
557,544.9788292459592
558,544.9661869089482
559,544.9523864832165
560,544.9383620571491
561,544.9251725681687
562,544.9138217548099
563,544.905153629741
564,544.899854232021
565,544.8985542115485
566,544.9019926296783
567,544.9111860781106
568,544.9275464903664
569,544.9528936511084
570,544.9893159607072
571,545.0388622302903
572,545.1030993137522
573,545.1826210428842
574,545.2766203827126
575,545.3826299859849
576,545.4964992428183
577,545.612628789639
578,545.7244465250449
579,545.8250759324277
580,545.9081055295122
581,545.9683341528441
582,546.0023696991723
583,546.009000286583
584,545.9893077954874
585,545.9465307170465
586,545.8857081375243
587,545.8131584737689
588,545.7358624822457
589,545.6608249380573
590,545.5944844406707
591,545.5422270324614
592,545.5080390750131
593,545.4943178509419
594,545.501849498825
595,545.5299531119629
596,545.5767675826025
597,545.6396283856462
598,545.715455683668
599,545.8010642897849
600,545.8933227570762
601,545.989135663455
602,546.0852826445735
603,546.1781945625942
604,546.2637647639116
605,546.3372806081454
606,546.3935315097351
607,546.4271184342934
608,546.4329529336934
609,546.4068862081916
610,546.3463662702484
611,546.2510064508125
612,546.1229623579395
613,545.9670430827673
614,545.7905192901503
615,545.6026356078412
616,545.4138806180968
617,545.2351026253266
618,545.0765762449736
619,544.9471266435636
620,544.8534110970613
621,544.7994375445159
622,544.7863586000327
623,544.8125285553944
624,544.8737772235459
625,544.9638477497318
626,545.0749537149983
627,545.198420355045
628,545.3253757336437
629,545.4474464336063
630,545.557398628198
631,545.6496627928964
632,545.7206910710993
633,545.7691174218448
634,545.7957190103372
635,545.8032019025175
636,545.7958434958565
637,545.7790223731317
638,545.7586671865134
639,545.7406658789372
640,545.7302878474903
641,545.7316712065372
642,545.7474117355938
643,545.7782735803887
644,545.8230390388431
645,545.8785230800556
646,545.9397832238695
647,546.0005450597276
648,546.0538336409317
649,546.0927563111645
650,546.1113375899761
651,546.1052787288681
652,546.072514620612
653,546.0134699320546
654,545.9309687954933
655,545.8298188853029
656,545.7161541933721
657,545.5966602554047
658,545.4778142562247
659,545.3652582180198
660,545.2633890942047
661,545.1751950620172
662,545.1023086126147
663,545.0452095427119
664,545.0035052239645
665,544.9762310965705
666,544.9621347479707
667,544.9599233044795
668,544.9684626065103
669,544.9869143013041
670,545.0147873863486
671,545.0518787515891
672,545.0980940042107
673,545.1531713764622
674,545.216368389236
675,545.2862042900656
676,545.3603613863069
677,545.4358102076962
678,545.5091421819993
679,545.5770154856523
680,545.6365886398081
681,545.6858361062214
682,545.7236897307469
683,545.7500091754056
684,545.7654341224428
685,545.7711918777575
686,545.7689193984127
687,545.7605227462266
688,545.748066028389
689,545.7336730421489
690,545.7194320830912
691,545.7073011227101
692,545.6990104060922
693,545.6959613870786
694,545.6991343805596
695,545.7090330371332
696,545.7256889265365
697,545.7487182630131
698,545.7773887539057
699,545.8106477043751
700,545.8470903243567
701,545.8848901157733
702,545.9217456033222
703,545.9549081078095
704,545.9813422383788
705,545.9980311947457
706,546.0023803431616
707,545.9926241510904
708,545.9681294090038
709,545.9295087912407
710,545.87849627133
711,545.8175841107038
712,545.7494815491176
713,545.6765152742299
714,545.6001225338412
715,545.5205678640738
716,545.4369489533283
717,545.34747522789
718,545.2499394832549
719,545.1422767885168
720,545.0231077722484
721,544.892177854599
722,544.7506261646754
723,544.6010526749359
724,544.4473930323951
725,544.2946398387588
726,544.1484580197837
727,544.014740551228
728,543.8991513563935
729,543.8067003707506
730,543.7413817118659
731,543.7058862379214
732,543.7013895299226
733,543.7274155311369
734,543.7817763378725
735,543.8605925878081
736,543.9584114855314
737,544.0684522489066
738,544.1830066467551
739,544.2939977010985
740,544.3936603795943
741,544.4752738747939
742,544.5338546576038
743,544.566702600325
744,544.5736818458788
745,544.5571455689536
746,544.521495032183
747,544.4724605470711
748,544.416252622442
749,544.3587431295332
750,544.3048146883381
751,544.2579678261693
752,544.2202028935852
753,544.1921226447155
754,544.173164865097
755,544.1618816411828
756,544.1562180129293
757,544.1537847567141
758,544.152143254788
759,544.1491124677191
760,544.1430814480439
761,544.133285310807
762,544.1199855243012
763,544.1044932750509
764,544.0890002704502
765,544.0762327464615
766,544.0689943733497
767,544.0696846261479
768,544.0798706643565
769,544.0999732869217
770,544.1291151457509
771,544.1651659546138
772,544.2049883574946
773,544.2448367494472
774,544.2808155079107
775,544.3092969159424
776,544.3272384725203
777,544.3323949478873
778,544.3234566276267
779,544.3001484461013
780,544.2633056096778
781,544.2149163233813
782,544.1581039129779
783,544.0970181833999
784,544.0366214151987
785,543.9823801670774
786,543.9399000934899
787,543.914558750031
788,543.9111880680726
789,543.9338260591688
790,543.9855118897436
791,544.0680699041568
792,544.1818344209963
793,544.3253075918201
794,544.4948068769936
795,544.6842242719492
796,544.8850505597203
797,545.0867862374055
798,545.2777705963858
799,545.446347836047
800,545.582195873472
801,545.6775939397423
802,545.7284050596566
803,545.7345977265113
804,545.7002209591017
805,545.6328561738082
806,545.5426578741394
807,545.4411331716366
808,545.3398088368626
809,545.2489314880838
810,545.1763571186958
811,545.1267843192306
812,545.1014401704006
813,545.0982471687893
814,545.1124213477498
815,545.1373987495585
816,545.1659540160248
817,545.1913481553586
818,545.2083241186665
819,545.2137806241689
820,545.2070172197251
821,545.1895443447432
822,545.1645481340597
823,545.1361521251453
824,545.1086180325062
825,545.0855967962017
826,545.0695111332308
827,545.06113715094
828,545.0594459796588
829,545.0617490059186
830,545.0641493576974
831,545.0622366381123
832,545.0518931597431
833,545.0300463374484
834,544.9952206714659
835,544.9477919315991
836,544.8899007025282
837,544.8250443713672
838,544.7574377391969
839,544.6912865541688
840,544.6301268644178
841,544.5763472787204
842,544.5309540251153
843,544.4935826123376
844,544.4627174764979
845,544.4360578253586
846,544.4109667791807
847,544.3849552251719
848,544.3561614934484
849,544.3237784003242
850,544.288359551195
851,544.2519290479293
852,544.2178376892167
853,544.1903574793305
854,544.174075233465
855,544.1732067460872
856,544.1909686709201
857,544.2291078541824
858,544.2876331505468
859,544.3647620039736
860,544.4570847790562
861,544.5599410537784
862,544.6679794994305
863,544.7758380747124
864,544.8788451402859
865,544.973620486872
866,545.0584600496012
867,545.133423506665
868,545.2001084334574
869,545.2611727829811
870,545.3197268918684
871,545.3787316475301
872,545.4405140293488
873,545.5064639013631
874,545.5769213815934
875,545.6512155994901
876,545.7277915258876
877,545.8043721020485
878,545.878134478612
879,545.9459047438536
880,546.0043817187704
881,546.0503931202708
882,546.081174560648
883,546.0946469689997
884,546.089655892932
885,546.066130672637
886,546.0251227542293
887,545.9686931090563
888,545.8996448818275
889,545.8211362425011
890,545.7362441793749
891,545.6475684050091
892,545.5569637408271
893,545.4654693377641
894,545.373456820978
895,545.280950668049
896,545.1880157823538
897,545.0950967004145
898,545.003228685588
899,544.9140871514735
900,544.8298758725692
901,544.7530851468678
902,544.6861852982222
903,544.6313411298361
904,544.5902219952667
905,544.5639459965785
906,544.5531510425695
907,544.5581417664741
908,544.5790329075315
909,544.6158109030886
910,544.6682703490758
911,544.735838840954
912,544.8173562989567
913,544.9108965710564
914,545.0137031677767
915,545.1222730626521
916,545.2325838110869
917,545.3404325819475
