frame_number,force
0,584.2383400000397
1,584.4570575247842
2,584.6612154637374
3,584.8377414134789
4,584.9763517252696
5,585.0705055571771
6,585.1178981144616
7,585.1204483630969
8,585.0838136532707
9,585.0165354491483
10,584.9289698694779
11,584.8321706340647
12,584.7368713478553
13,584.6526701074558
14,584.5874633422054
15,584.5471215696756
16,584.5353659160922
17,584.5537995561226
18,584.6020604106052
19,584.6780700645287
20,584.7783524105641
21,584.8983921428002
22,585.0330020113588
23,585.1766650431806
24,585.3238169005798
25,585.4690430870626
26,585.6071861913708
27,585.7333825247514
28,585.8430674129828
29,585.9319949604846
30,585.9963073611042
31,586.0326702395956
32,586.0384752848682
33,586.0120972121464
34,585.9531728926621
35,585.8628523155759
36,585.7439643048938
37,585.6010464880321
38,585.4402045164846
39,585.2687874161999
40,585.0948955961354
41,584.9267740561622
42,584.772174315059
43,584.6377785250122
44,584.5287612949389
45,584.4485286450243
46,584.3986375540352
47,584.378873616733
48,584.3874468401744
49,584.421256412156
50,584.4761779760972
51,584.5473388346569
52,584.6293601912116
53,584.7165603350443
54,584.8031308328694
55,584.8833106394102
56,584.9515776277773
57,585.0028580371396
58,585.0327428666175
59,585.0377054141446
60,585.0153191790474
61,584.9644629493646
62,584.8854800249336
63,584.7802539663534
64,584.6521774409796
65,584.5060075196175
66,584.3476088137135
67,584.1835895964997
68,584.0208471959276
69,583.8660634388199
70,583.725218519394
71,583.6031965355603
72,583.5035220726728
73,583.4282172054656
74,583.377745742494
75,583.3510289126148
76,583.3455438850536
77,583.3575236027434
78,583.3822634188363
79,583.4145218127215
80,583.4489851110326
81,583.4807492771299
82,583.5057634514817
83,583.5211907468729
84,583.5256660516371
85,583.5194477347655
86,583.5044559174067
87,583.4841696395414
88,583.4633412078766
89,583.4475036744468
90,583.4423028184915
91,583.4527495994233
92,583.4825176773868
93,583.5333886977663
94,583.6049090424277
95,583.69430035853
96,583.7966519290742
97,583.905386092528
98,584.0129329997002
99,584.1115127093583
100,584.1939206957569
101,584.2542363392758
102,584.2884002789752
103,584.2946203571306
104,584.2735681147019
105,584.2283327869034
106,584.1641191259687
107,584.0877057886892
108,584.0067128284098
109,583.9287568754105
110,583.8606019435778
111,583.8074372830272
112,583.7724133918516
113,583.7565226209296
114,583.758826804091
115,583.7769509351988
116,583.8077180831232
117,583.8477989273036
118,583.8942672005159
119,583.9449757958467
120,583.9987004137624
121,584.0550448803032
122,584.1141595029701
123,584.1763689913643
124,584.2418132467915
125,584.310169147495
126,584.3804736005908
127,584.4510427807959
128,584.5194881102386
129,584.582846506643
130,584.6378429318974
131,584.6812719392223
132,584.7104347052718
133,584.7235337535693
134,584.7199326570294
135,584.7002263074354
136,584.666120393855
137,584.6201699854932
138,584.5654583567192
139,584.505296646674
140,584.4429989485841
141,584.3817489810226
142,584.3245329348338
143,584.2740834042551
144,584.2327813148172
145,584.2025002654286
146,584.1844282229171
147,584.1789344467022
148,584.1855518671271
149,584.2031208501561
150,584.2300926483264
151,584.2649291269729
152,584.3064902879893
153,584.3543027314238
154,584.4086482881505
155,584.470475282913
156,584.5411870302798
157,584.6223847660103
158,584.7156288513727
159,584.8222406715125
160,584.9431218505346
161,585.078548333731
162,585.2279212406821
163,585.3895091929218
164,585.5602592072603
165,585.735751822935
166,585.9103308760693
167,586.0773845733462
168,586.2297299690306
169,586.3600609272265
170,586.461435126102
171,586.5277797971011
172,586.5543882368756
173,586.5383692959526
174,586.4790120890667
175,586.3780382171102
176,586.2397148544694
177,586.0707826853649
178,585.8801385482307
179,585.6782454775238
180,585.4763246238562
181,585.2854616017386
182,585.1157803939413
183,584.9757986443176
184,584.8720136627219
185,584.8087075869953
186,584.7879157588479
187,584.8094830922229
188,584.8711473599582
189,584.9686359979498
190,585.0958224371345
191,585.2450200664642
192,585.4074720452326
193,585.5740318369913
194,585.7359517308063
195,585.8856390418779
196,586.0172282801377
197,586.1268564363158
198,586.2126048082858
199,586.2741638856756
200,586.3123515168195
201,586.3286307576084
202,586.3247331271558
203,586.3024340248852
204,586.2634789425938
205,586.2096228954878
206,586.1427204154811
207,586.0648025599143
208,585.9781063627465
209,585.8850589260068
210,585.7882334972347
211,585.6902861625978
212,585.5938701425015
213,585.5015229639059
214,585.415526020547
215,585.3377425122737
216,585.269451898674
217,585.2112145479706
218,585.162806759724
219,585.1232558636981
220,585.0909831904362
221,585.0640393551519
222,585.040396959872
223,585.0182543610529
224,584.9963078051576
225,584.9739704379429
226,584.9515384891445
227,584.9303018108964
228,584.9125671947568
229,584.9015368235781
230,584.9009860286784
231,584.9147184555844
232,584.9458355619853
233,584.9959289547407
234,585.0643661477297
235,585.147860415446
236,585.2404698508368
237,585.3340705048712
238,585.4192380461121
239,585.4863953356049
240,585.527053470831
241,585.5349779053726
242,585.5071283090449
243,585.4442398533828
244,585.350941995419
245,585.2353647397022
246,585.1082627147423
247,584.9817709829373
248,584.8679659652944
249,584.7774316602619
250,584.7180323716724
251,584.6940694877303
252,584.7059417139262
253,584.7503360883709
254,584.8208772557136
255,584.9090919087057
256,585.0055239972552
257,585.1008527322481
258,585.186888948944
259,585.2573405069894
260,585.3082607450955
261,585.3381454645579
262,585.3477134576394
263,585.3394625950995
264,585.317115269449
265,585.2850529521419
266,585.2478092205614
267,585.2096651870618
268,585.1743746335063
269,585.1450295744539
270,585.1240542053831
271,585.1132859051984
272,585.1140755504945
273,585.1273358992225
274,585.1534978169665
275,585.192386588483
276,585.2430766018775
277,585.3037979810804
278,585.3719456766793
279,585.4441968167121
280,585.5167065158234
281,585.585345550926
282,585.6459595425379
283,585.6946454981098
284,585.7280408173792
285,585.7436066678138
286,585.7398760269149
287,585.7166320618182
288,585.6749851880052
289,585.6173280502485
290,585.5471611883736
291,585.4687914734131
292,585.386917433249
293,585.3061410898013
294,585.2304783544826
295,585.1629594067657
296,585.1054002066393
297,585.05838194651
298,585.0214128632006
299,584.9931992168105
300,584.9719409149499
301,584.9555877154196
302,584.9420308514693
303,584.9292488144752
304,584.9154542760294
305,584.8992833825433
306,584.8800300584163
307,584.8578773952194
308,584.8340444907001
309,584.810772385398
310,584.7911187227066
311,584.7785935174079
312,584.7767115175384
313,584.788542115756
314,584.8163212328335
315,584.8611720424734
316,584.9229629719887
317,585.0003089275247
318,585.0907035830134
319,585.1907569744818
320,585.2964912440034
321,585.4036244970265
322,585.5077802903953
323,585.6046117370922
324,585.6898855138783
325,585.7595780061743
326,585.8099937438402
327,585.837880509864
328,585.8405243503356
329,585.8158445911079
330,585.7625368076002
331,585.680308947068
332,585.5702179996514
333,585.4350522652609
334,585.279644621825
335,585.1109766509107
336,584.9379592299357
337,584.7708482830628
338,584.6203512670451
339,584.4965646338576
340,584.4079226596582
341,584.3603246210054
342,584.3565585881075
343,584.396083889856
344,584.4751877645188
345,584.5874935784803
346,584.7247549416496
347,584.8778181849783
348,585.0375970968009
349,585.1959087717692
350,585.3460683945838
351,585.4831992226829
352,585.6042545518188
353,585.70778145266
354,585.7935010997301
355,585.861825058608
356,585.9134374971009
357,585.9490372697038
358,585.9692722030591
359,585.9748411847311
360,585.9667015035296
361,585.9462958130433
362,585.9157035920472
363,585.8776371687012
364,585.8352532649596
365,585.7918255562747
366,585.7503842971579
367,585.7134408207103
368,585.6828729579978
369,585.6599755943101
370,585.6456124278378
371,585.6403704926073
372,585.6446321841798
373,585.658528186751
374,585.6817881728005
375,585.7135412352401
376,585.7521326120593
377,585.7950236490702
378,585.8388286503769
379,585.8795122560651
380,585.9127275588038
381,585.9342344659987
382,585.9403210488363
383,585.928163140166
384,585.8960833388045
385,585.8436929715543
386,585.7719159306685
387,585.6829068295518
388,585.579893007621
389,585.4669858988011
390,585.3490043216815
391,585.2313191646155
392,585.119682500767
393,585.0199792972431
394,584.93785631245
395,584.8782280142008
396,584.8447082790168
397,584.839056020643
398,584.8607486903185
399,584.9068022384548
400,584.9719291047581
401,585.0490643020897
402,585.1302065848389
403,585.2074396161563
404,585.2739394679297
405,585.3247639541598
406,585.3572732349352
407,585.3711318374483
408,585.3679417366862
409,585.3506233033859
410,585.3226953300979
411,585.2876055614387
412,585.2482242739256
413,585.2065536358862
414,585.1636566391987
415,585.1197828793086
416,585.0746511727456
417,585.0278272594973
418,584.9791126376923
419,584.9288536672433
420,584.8780981860118
421,584.8285666256199
422,584.7824528673109
423,584.7421083409787
424,584.7096783628183
425,584.6867565498294
426,584.6741142090774
427,584.6715512833642
428,584.6778981863374
429,584.6911698411265
430,584.708838536097
431,584.7281601131671
432,584.7464735595703
433,584.7614154615345
434,584.7710444543683
435,584.7739173179602
436,584.7691604747937
437,584.7565430662821
438,584.7365123952354
439,584.7101298711116
440,584.6788664458022
441,584.6442774320881
442,584.6076398974866
443,584.5696580739356
444,584.530313603698
445,584.488885108977
446,584.4441195041504
447,584.3945176649278
448,584.338688498302
449,584.2757148402726
450,584.2054622769548
451,584.1287621403659
452,584.0474288085809
453,583.9641272028595
454,583.8821589338886
455,583.8052460064009
456,583.7373489927045
457,583.6824967483345
458,583.6445754217821
459,583.6270409044029
460,583.6325600748033
461,583.6626276837038
462,583.7172341793242
463,583.7946664277414
464,583.8915014010962
465,584.0028065686923
466,584.1225130587321
467,584.2439052400064
468,584.3601740117377
469,584.4649880710398
470,584.5530324134699
471,584.6204523626005
472,584.665140882548
473,584.6868272010963
474,584.6869604231451
475,584.6684189606028
476,584.6351075407865
477,584.5915220417824
478,584.542354993847
479,584.4921763934173
480,584.4451757632487
481,584.4049251284868
482,584.3741353676206
483,584.3544144255696
484,584.3460643046068
485,584.3479624124586
486,584.3575714886535
487,584.3711146161454
488,584.3839273569965
489,584.3909567786097
490,584.3873365958667
491,584.3689499463809
492,584.3328999315403
493,584.277833751225
494,584.2041007108908
495,584.1137573646248
496,584.0104467186329
497,583.8991648625677
498,583.7859068761984
499,583.6771828160732
500,583.5794211374539
501,583.4983140141268
502,583.4381862353986
503,583.4014774814559
504,583.3884188383471
505,583.3969668117671
506,583.4230364653957
507,583.461040239772
508,583.5046790125074
509,583.5478597218369
510,583.5855665067312
511,583.6145189272924
512,583.6335060588245
513,583.6433604143949
514,583.6466089529163
515,583.6468989621937
516,583.6483283157212
517,583.6548009457345
518,583.6694934850386
519,583.6944827766166
520,583.7305531890714
521,583.7771712736039
522,583.8325845903744
523,583.8939818875555
524,583.9576560420737
525,584.0191484433783
526,584.0734124936304
527,584.1150747245098
528,584.1388571418536
529,584.1401598397716
530,584.1157329517267
531,584.0643266407544
532,583.9871957122242
533,583.8883383327351
534,583.7743744817801
535,583.6540347958036
536,583.5373166225177
537,583.4344283566908
538,583.3546692190617
539,583.3053974342478
540,583.2912341835031
541,583.3136207129176
542,583.3707858895295
543,583.4581085724831
544,583.5687961185226
545,583.6947566992804
546,583.8275216167398
547,583.9590821633271
548,584.0825441738248
549,584.1925513763033
550,584.2854630548339
551,584.3592935404336
552,584.4134462053745
553,584.4483055661937
554,584.4647740992745
555,584.4638457122213
556,584.4463021235057
557,584.4126101377657
558,584.3630756761743
559,584.2982527668426
560,584.2195165375022
561,584.1296286383008
562,584.0330945199103
563,583.9361523900402
564,583.8463364603351
565,583.7716897254519
566,583.7198063959046
567,583.6969112310014
568,583.7071307431224
569,583.7520259143673
570,583.8303922747796
571,583.9383147361184
572,584.0694747941291
573,584.2157093661559
574,584.3677889089938
575,584.5163284822652
576,584.6527045258733
577,584.7698470261104
578,584.8628102524519
579,584.9290788516636
580,584.9686156422463
581,584.9836818951808
582,584.9784611293288
583,584.9585142335251
584,584.9301049382314
585,584.8994609679202
586,584.8720632402437
587,584.852067282277
588,584.8419493888309
589,584.8424311441961
590,584.8526753154609
591,584.8706886135484
592,584.8938377378879
593,584.919383448787
594,584.9449465419336
595,584.9688338056626
596,584.9901764159449
597,585.0088685685788
598,585.0253338778136
599,585.0401832223645
600,585.0538514163632
601,585.0663019402355
602,585.0768692586666
603,585.0842775429251
604,585.0868366963359
605,585.0827685876164
606,585.0705706418128
607,585.0493082883322
608,585.0187596704586
609,584.9794042995755
610,584.9323147733261
611,584.8790364099004
612,584.8215118291436
613,584.762054984757
614,584.7033444676013
615,584.6484062322312
616,584.6005732527346
617,584.5634166232892
618,584.5406311214794
619,584.5358450999553
620,584.5523352583224
621,584.5926671262778
622,584.6583245512853
623,584.749402540685
624,584.8644156126941
625,585.0002444840131
626,585.1522256362266
627,585.3143773447811
628,585.47974508542
629,585.6408417298879
630,585.7901581691411
631,585.9207241243561
632,586.0266953019008
633,586.1039215803353
634,586.150417211936
635,586.1666341252168
636,586.1554588435032
637,586.1219097213639
638,586.07257710525
639,586.0148998330066
640,585.956395158471
641,585.9039513302073
642,585.8632573977218
643,585.8383999100818
644,585.8316221307986
645,585.8432321219135
646,585.8716580876704
647,585.9136603992295
648,585.9646974869466
649,586.0194103900853
650,586.0721635033153
651,586.1175781884464
652,586.1510214875038
653,586.1690400216966
654,586.1697274577889
655,586.1529819209759
656,586.12058828969
657,586.0760839827142
658,586.0244206083228
659,585.9714722328753
660,585.9234400178212
661,585.8861845189125
662,585.8645213097367
663,585.8615507503024
664,585.878123585868
665,585.9125383514539
666,585.9605325362271
667,586.0155943410574
668,586.0695907969033
669,586.1136651743212
670,586.1392989736479
671,586.1393848173395
672,586.1091442411391
673,586.046755319746
674,585.9536130532356
675,585.8342068966689
676,585.695647700069
677,585.5469083598591
678,585.3978674107406
679,585.2582665871191
680,585.1367054367286
681,585.0397909026071
682,584.9715366847398
683,584.9330717166332
684,584.9226763878153
685,584.9361246881351
686,584.9672758159336
687,585.0088348893775
688,585.0531886906672
689,585.0932150595474
690,585.1229667149935
691,585.1381538720169
692,585.1363987425506
693,585.1172877395096
694,585.0822710276082
695,585.0344431759161
696,584.978208823991
697,584.9188282840394
698,584.8618561543683
699,584.812514558296
700,584.7750710011777
701,584.7523093394831
702,584.7451720656014
703,584.7526141917987
704,584.7716732595591
705,584.7977434283983
706,584.8250325749159
707,584.8471671710922
708,584.8578898159261
709,584.8517744011634
710,584.8248730319708
711,584.7752117534906
712,584.70306736688
713,584.6109876529284
714,584.5035624655322
715,584.3869954338278
716,584.2685440482908
717,584.1558928990574
718,584.0565190766351
719,583.9771042751715
720,583.9230349988933
721,583.8980084393612
722,583.9037416033226
723,583.9397843625032
724,584.0034658817567
725,584.0900322477655
726,584.1930237652226
727,584.3048843306232
728,584.4177258526009
729,584.5241279346016
730,584.6178479764575
731,584.6943380624105
732,584.7510003000674
733,584.7871564537072
734,584.8037608602876
735,584.8029409225344
736,584.7874818047898
737,584.760358572326
738,584.724372606156
739,584.6819068083194
740,584.6347954347443
741,584.584299645475
742,584.5311743797524
743,584.4758043392375
744,584.4183818411573
745,584.3590983432833
746,584.2983236977096
747,584.2367540454553
748,584.1755208425991
749,584.1162634449498
750,584.0611658529015
751,584.0129434824678
752,583.9747524817518
753,583.9499975530774
754,583.9420356945034
755,583.9538039645851
756,583.9874289013347
757,584.0438909057015
758,584.1228067748284
759,584.2223594480191
760,584.3393665161713
761,584.4694596556056
762,584.6073454549595
763,584.7471167146033
764,584.8825777042659
765,585.0075544968574
766,585.1161900221965
767,585.203249989409
768,585.2644664975024
769,585.2969247531685
770,585.2994680597999
771,585.2730615166677
772,585.2210250818828
773,585.1490407115448
774,585.0648654058909
775,584.9777346497535
776,584.8975046677123
777,584.8336402304172
778,584.7941894280694
779,584.7848898884613
780,584.8085301159116
781,584.8646544360068
782,584.9496508716796
783,585.0572012401825
784,585.179014829997
785,585.3057237330349
786,585.4278022599387
787,585.5363989511226
788,585.624025404374
789,585.6850875740311
790,585.7162465710408
791,585.7165806186113
792,585.6875229628897
793,585.6325765898367
794,585.5568376689637
795,585.4663856636819
796,585.3676198181913
797,585.2666348219831
798,585.1687213686131
799,585.0780442826442
800,584.997501676347
801,584.9287283318295
802,584.8721998435685
803,584.8274193853092
804,584.7931928795335
805,584.7679879884686
806,584.750331968656
807,584.7391696955306
808,584.7341051216374
809,584.735481533411
810,584.7442924731026
811,584.761942023779
812,584.7898952590946
813,584.8292808015651
814,584.8805190985287
815,584.9430456586559
816,585.015183721638
817,585.0942008790257
818,585.1765542757288
819,585.2582866925632
820,585.3354941898439
821,585.4047662338743
822,585.4635102037342
823,585.5101052316973
824,585.5438741048134
825,585.5649095385606
826,585.573829959844
827,585.571548750974
828,585.5591079645077
829,585.5375721153595
830,585.5079430863069
831,585.4710698870842
832,585.427566498675
833,585.3777736213056
834,585.3217885972149
835,585.2595610000467
836,585.1910303440008
837,585.1162703160392
838,585.0355995830021
839,584.9496268815838
840,584.8592208876955
841,584.7654282450039
842,584.6693908324019
843,584.572315398319
844,584.47551735958
845,584.3805141289513
846,584.2891115701353
847,584.2034233083092
848,584.1257782766414
849,584.0584988333933
850,584.0035710167502
851,583.9622705127799
852,583.934828164772
853,583.9202074916667
854,583.9160406212944
855,583.9187451731668
856,583.9238230819224
857,583.9263196402452
858,583.9213998038817
859,583.9049820354545
860,583.8743575515488
861,583.8287152768678
862,583.769492775445
863,583.7004841102128
864,583.6276599290519
865,583.5586941023944
866,583.5022391968542
867,583.4670343408301
868,583.4609483040181
869,583.4900626406326
870,583.5579038821954
871,583.6649386839124
872,583.8084236309943
873,583.9826389826621
874,584.1794579020353
875,584.3891454974123
876,584.601260613401
877,584.8055431051656
878,584.9926982933533
879,585.1550217681876
880,585.2868275158646
881,585.3846563170218
882,585.4472699653012
883,585.475480721102
884,585.4718949973781
885,585.440640053118
886,585.387100013179
887,585.3176438487783
888,585.2393093619554
889,585.1594176845892
890,585.0851189680409
891,585.0228987042697
892,584.9780991251996
893,584.9545244917182
894,584.9541928541435
895,584.9772642286698
896,585.0221243989533
897,585.0855617991431
898,585.1629733187826
899,585.2485784202432
900,585.3356771051945
901,585.417012793637
902,585.4852785282002
903,585.533749148939
904,585.5569638000474
905,585.5513518636382
906,585.5157046705722
907,585.4514324590658
908,585.362583507397
909,585.2556233133182
910,585.1389817693611
911,585.0223916653399
912,584.9160690759672
913,584.829813332213
914,584.7721137586034
915,584.7493426640962
916,584.7651080239964
