frame_number,force
0,609.3212300000381
1,609.7174050087253
2,610.0971498887553
3,610.4452222405852
4,610.7486093635482
5,610.9973242345276
6,611.1849189893027
7,611.308728438014
8,611.3698725560055
9,611.373036345464
10,611.3260327021138
11,611.2391629328376
12,611.1244221120529
13,610.9946315256194
14,610.8625950342145
15,610.7403621004347
16,610.6386422087326
17,610.5663663739579
18,610.5303539067829
19,610.5350394285317
20,610.5822478437728
21,610.6710478500947
22,610.7977389571467
23,610.9560272901507
24,611.1374309169574
25,611.3319270703201
26,611.5288081970073
27,611.717662183688
28,611.8893544563455
29,612.0368750631875
30,612.1559214745507
31,612.2451246686779
32,612.305898931403
33,612.3419823094405
34,612.3587931740885
35,612.3627416211087
36,612.360614298361
37,612.3591058639453
38,612.3645032484575
39,612.3824671909068
40,612.4178390790975
41,612.4744352079283
42,612.5548343135328
43,612.6601800208616
44,612.7900175453672
45,612.9421967756833
46,613.1129000507226
47,613.2968545463194
48,613.4877481041341
49,613.6788077145671
50,613.8634546786211
51,614.0359365210194
52,614.1918550783972
53,614.3285497881019
54,614.4453282147707
55,614.5435409523398
56,614.6264828868016
57,614.6990995859611
58,614.7675063252724
59,614.838372054695
60,614.9182504830164
61,615.0129418393244
62,615.1269498432583
63,615.2630734833659
64,615.4221541464267
65,615.6029909168681
66,615.8024316249163
67,616.0156266787405
68,616.2364005523392
69,616.4576844709651
70,616.6719786854819
71,616.8718436672889
72,617.0504211987392
73,617.2019597427379
74,617.3222878269473
75,617.4091621021597
76,617.4624197454431
77,617.4838907072999
78,617.4770714596979
79,617.4466159392969
80,617.3977426449336
81,617.335675573561
82,617.2652276392135
83,617.1905971268787
84,617.1153800563058
85,617.042726235131
86,616.975527815514
87,616.9165454103883
88,616.8684239482457
89,616.8335979903728
90,616.8141215414859
91,616.8114719697005
92,616.8263669333558
93,616.8586120343964
94,616.9069875002451
95,616.9691879924768
96,617.0418380702819
97,617.1206077278484
98,617.2004463875537
99,617.2759411889892
100,617.3417880203488
101,617.3933399955478
102,617.4271662622269
103,617.4415242386381
104,617.4366423846473
105,617.4147413809504
106,617.3797775068196
107,617.3369480312766
108,617.2920408247859
109,617.2507391421283
110,617.2180011539463
111,617.1976080942379
112,617.1919163151616
113,617.2017839309367
114,617.2266077302926
115,617.2644184838915
116,617.3120243289511
117,617.3652228022482
118,617.4191007121816
119,617.468416386752
120,617.5080290268129
121,617.5333209408388
122,617.5405635790135
123,617.5272046492389
124,617.4920789573863
125,617.4355520787284
126,617.3595963100935
127,617.2677841302403
128,617.1651729443887
129,617.0580518684935
130,616.953530836923
131,616.8589731052192
132,616.7813029928349
133,616.7262598065671
134,616.6977022020134
135,616.6970732892818
136,616.7231094091701
137,616.771830655286
138,616.8368119830214
139,616.9097131747783
140,616.981037992266
141,617.0410785419962
142,617.0809693065933
143,617.0937362496279
144,617.0751994351609
145,617.0245867029221
146,616.9447464552043
147,616.841907004158
148,616.7250062760501
149,616.6046890080232
150,616.4921172519287
151,616.3977496883077
152,616.3302174951547
153,616.295380907974
154,616.2956218370834
155,616.3294258811557
156,616.3913128409908
157,616.4721639623085
158,616.5599622104463
159,616.6409160285029
160,616.7008787213296
161,616.7269067181231
162,616.7087394440634
163,616.6399653691826
164,616.5186869599625
165,616.3476020199789
166,616.1335405512629
167,615.8865899120536
168,615.6189788666826
169,615.3438752901092
170,615.0742132504295
171,614.8216359602725
172,614.5956272523007
173,614.4028860587215
174,614.2469649727856
175,614.1281622757201
176,614.0436466260112
177,613.9878008886441
178,613.9527802439009
179,613.9292783367766
180,613.9074711862868
181,613.8780549952642
182,613.8332341470037
183,613.7674923398339
184,613.678012714938
185,613.564687728713
186,613.4297518468942
187,613.2771525547288
188,613.1118161340794
189,612.9389514548074
190,612.7634889073516
191,612.5897016217407
192,612.4210132016946
193,612.2599618119048
194,612.1082703596113
195,611.9669711664923
196,611.8365458868727
197,611.7170571487403
198,611.6082608661832
199,611.5096976580892
200,611.4207693932987
201,611.3408077882727
202,611.269132433896
203,611.2050829130403
204,611.1480050915908
205,611.0971807088094
206,611.0517138889304
207,611.010422030073
208,610.9717994615658
209,610.9341088602096
210,610.8956128658875
211,610.8549093412215
212,610.8112914858073
213,610.7650264532107
214,610.7174525067126
215,610.67084696995
216,610.6280926314168
217,610.5922283329362
218,610.5659872950085
219,610.5514059654831
220,610.5495452571521
221,610.5603336231487
222,610.5825330762183
223,610.613827835222
224,610.6510159400075
225,610.6902531610743
226,610.7272862795298
227,610.7576353695057
228,610.7767285768667
229,610.7800320150491
230,610.7632339284592
231,610.722533930398
232,610.6550603313558
233,610.5593941661483
234,610.4361231667988
235,610.2883009806189
236,610.1216694203606
237,609.9445252283848
238,609.7671709923964
239,609.6009664768543
240,609.457077372592
241,609.3450926282
242,609.2717351646153
243,609.2399033625298
244,609.248235518513
245,609.2912905322988
246,609.3603130778001
247,609.4444360766199
248,609.5320978013716
249,609.6124351413615
250,609.676456937674
251,609.7178728522651
252,609.7335175459126
253,609.7233567364977
254,609.690109046627
255,609.6385728646081
256,609.5747887272395
257,609.5051757839192
258,609.4357621802226
259,609.3715960109029
260,609.3163787379369
261,609.2723118804389
262,609.2401058620978
263,609.2190850562388
264,609.2073430688338
265,609.2019431617881
266,609.1991898107088
267,609.1949985212307
268,609.1853658008948
269,609.1669013561852
270,609.1373423432611
271,609.0959454437534
272,609.0436645439529
273,608.983064348271
274,608.9179724800051
275,608.8529200951639
276,608.7924576823563
277,608.7404515868458
278,608.6994618804773
279,608.6702800402633
280,608.6516841424843
281,608.6404569710633
282,608.6316890629269
283,608.6193363068177
284,608.5969407263975
285,608.5583964727779
286,608.4986637240959
287,608.4143696225183
288,608.3042511611752
289,608.1693863971863
290,608.0131558234257
291,607.8409044832187
292,607.6593353885087
293,607.4757257308114
294,607.2970946829677
295,607.1294590053809
296,606.9772872843905
297,606.843207974793
298,606.7279643971906
299,606.6305729989764
300,606.5486331860475
301,606.478733048063
302,606.4168848112454
303,606.3589287419536
304,606.3008793332565
305,606.2392300099871
306,606.1712493992718
307,606.0952871485496
308,606.0110745436751
309,605.9199684750441
310,605.8250603623554
311,605.7310719460737
312,605.6439943870939
313,605.5704819751276
314,605.5170652094298
315,605.4892894676698
316,605.4909139242876
317,605.5233128673617
318,605.5851941938624
319,605.6726898332232
320,605.7798027092366
321,605.8991364639288
322,606.022796322874
323,606.1433304870123
324,606.2545755952563
325,606.3522799168038
326,606.434415475943
327,606.5011526605249
328,606.5545351681332
329,606.5979406233802
330,606.6354391695105
331,606.6711668215383
332,606.7088090156849
333,606.7512495732626
334,606.8003988864342
335,606.8571869651487
336,606.921693242386
337,606.9933769307405
338,607.0713631741676
339,607.1547344137197
340,607.2427768497264
341,607.3351374458633
342,607.4318607161484
343,607.5333045460152
344,607.6399772909355
345,607.7523694189474
346,607.87084236787
347,607.9955872314956
348,608.126616098427
349,608.2637331935432
350,608.4064485990363
351,608.5538248084745
352,608.7042773228561
353,608.8553843976049
354,609.0037868620657
355,609.145255415116
356,609.2749612206985
357,609.3879227314376
358,609.4795461460811
359,609.5461510254837
360,609.5853841232523
361,609.5964637449445
362,609.580242538327
363,609.5391115948663
364,609.4767868595583
365,609.3980155425947
366,609.3082160866282
367,609.2130426715474
368,609.1178772535486
369,609.0273008405246
370,608.9446405784797
371,608.8716913846916
372,608.8086718734844
373,608.7544197542695
374,608.7067806498824
375,608.6631080081286
376,608.6207799911566
377,608.5776509883036
378,608.5323806743578
379,608.4846153434892
380,608.4350287481142
381,608.3852495405197
382,608.3376985231057
383,608.2953400200668
384,608.2613416700706
385,608.238649048608
386,608.2295060197714
387,608.2349745984706
388,608.2545295631934
389,608.2858220771714
390,608.3247026320611
391,608.3655465550198
392,608.4018437280209
393,608.4269337314497
394,608.4347302116511
395,608.4203053571551
396,608.3802753778951
397,608.3129892797614
398,608.218545598075
399,608.0986622751853
400,607.9564311254096
401,607.7959978874375
402,607.6222064436973
403,607.4402343267466
404,607.2552391130566
405,607.0720370105639
406,606.894843573126
407,606.7271117697775
408,606.5714897293415
409,606.4298897198271
410,606.3036338904842
411,606.1936389147387
412,606.1006089855023
413,606.0251997485173
414,605.9680957210705
415,605.92994258381
416,605.9111169385884
417,605.9113816313558
418,605.9295229011572
419,605.9630741665463
420,606.0082077712176
421,606.0598353895593
422,606.1119117616474
423,606.157900903177
424,606.1913521730821
425,606.2065366129806
426,606.1990856449424
427,606.1665452749174
428,606.1087359318896
429,606.0278268343942
430,605.928098054949
431,605.8154399310495
432,605.6966895127558
433,605.5789107487095
434,605.4686999930448
435,605.3715689670732
436,605.2914444961867
437,605.2303232642062
438,605.1881117237538
439,605.16266231599
440,605.1500001034431
441,605.1447236608082
442,605.1405513883697
443,605.1309654826164
444,605.1098896080861
445,605.0723306489783
446,605.0149170915698
447,604.9362710591595
448,604.8371599886807
449,604.7203943606538
450,604.590469997343
451,604.4529909730345
452,604.3139483582429
453,604.1789661744741
454,604.0526452472135
455,603.9381222104684
456,603.8369097509868
457,603.7490084585046
458,603.6732145715349
459,603.607526268824
460,603.5495704678724
461,603.496996075814
462,603.4477929360266
463,603.4005165587333
464,603.3544313854412
465,603.3096023701536
466,603.2669500452682
467,603.2282594512566
468,603.1961247695643
469,603.1738162095278
470,603.1650550512023
471,603.1736775970096
472,603.2031818609071
473,603.2561923196469
474,603.3339269914903
475,603.4357783712097
476,603.5591122476476
477,603.6993485816145
478,603.8503303414615
479,604.0049315204537
480,604.1558202217509
481,604.2962752664446
482,604.4209459228232
483,604.526443094196
484,604.6116648779878
485,604.6777953350572
486,604.7279699424734
487,604.7666634769926
488,604.7989062758944
489,604.8294583334971
490,604.8620716701593
491,604.8989582271737
492,604.9405508114003
493,604.9855975414284
494,605.0315743945827
495,605.075344259401
496,605.1139435196227
497,605.1453530853713
498,605.1691178872272
499,605.186710615702
500,605.2015814037293
501,605.2188889721623
502,605.2449636936938
503,605.2865957259327
504,605.3502556306476
505,605.4413358863567
506,605.5634681968062
507,605.7179567735842
508,605.9033865278666
509,606.1154926046647
510,606.3473755563331
511,606.5901009067459
512,606.8336443832925
513,607.068055953828
514,607.2846466203132
515,607.4769818452564
516,607.6415066049149
517,607.7777171694773
518,607.8879022365657
519,607.9765611386598
520,608.0496444119609
521,608.1137562700817
522,608.1754272148762
523,608.2405197128871
524,608.3137820624103
525,608.3985354862174
526,608.4964798105113
527,608.6076198711181
528,608.7303198863277
529,608.8614787731952
530,608.9968069055528
531,609.131189284916
532,609.2591271629859
533,609.3752407014105
534,609.4747924666166
535,609.5541726002157
536,609.6112840838857
537,609.6457819519752
538,609.6591443130777
539,609.6545735158969
540,609.6367392174703
541,609.6113888852632
542,609.5848707742836
543,609.5636299077826
544,609.5537338039838
545,609.5604626222532
546,609.5879736731746
547,609.6390344433875
548,609.7148164413148
549,609.8147555078349
550,609.9365025628106
551,610.0759965628228
552,610.2276843625248
553,610.3848944567726
554,610.540347325355
555,610.6867589093206
556,610.817471563722
557,610.9270379796286
558,611.0116965675261
559,611.0697029040086
560,611.1014973062389
561,611.1096846399087
562,611.098799802586
563,611.0748567118869
564,611.0447274761933
565,611.0154404444803
566,610.9934968778007
567,610.9842939805245
568,610.9917249283438
569,611.0180009257667
570,611.0636944212689
571,611.1279479089791
572,611.2087593085182
573,611.3032613707928
574,611.4079502544633
575,611.5188594159321
576,611.6316967803316
577,611.7419679283054
578,611.8451118736612
579,611.9366821139427
580,612.0125990737018
581,612.0694717492287
582,612.1049487554983
583,612.1180322385536
584,612.109283333519
585,612.0808645327447
586,612.0363942069922
587,611.9806234310813
588,611.9189812476378
589,611.8570654190983
590,611.8001705557626
591,611.7529365916545
592,611.7191718820565
593,611.7018684671382
594,611.7033871100473
595,611.725743299937
596,611.7708812538084
597,611.8408077592342
598,611.937491077278
599,612.0625042132381
600,612.2164806006799
601,612.3985256824293
602,612.6057642152982
603,612.8331827025945
604,613.0738530771937
605,613.3195243991913
606,613.5614775517156
607,613.7914778781073
608,614.0026427546377
609,614.1900678438269
610,614.3511222464297
611,614.4854071600002
612,614.5944434797087
613,614.6811910901708
614,614.749502385958
615,614.8035836674593
616,614.8475046417428
617,614.8847830125545
618,614.9180775855606
619,614.9490247099247
620,614.9782303705238
621,615.0053949064506
622,615.0295274916062
623,615.049213135336
624,615.0629083307791
625,615.0692457744202
626,615.0673274917035
627,615.0569868729904
628,615.0389979657226
629,615.0151993473205
630,614.9884893480393
631,614.9626534490188
632,614.9420097917414
633,614.9309004851045
634,614.9330967845783
635,614.9512039180258
636,614.9861441273712
637,615.0367836401454
638,615.0997666333546
639,615.169616793443
640,615.2391391771039
641,615.3000983990024
642,615.3440948877821
643,615.3635350197188
644,615.352584381129
645,615.3079895248212
646,615.2296576401784
647,615.1209074542231
648,614.9883464127389
649,614.8413786565542
650,614.6913964311466
651,614.5507471193815
652,614.431592816371
653,614.3447834014322
654,614.2988489361619
655,614.2991976981564
656,614.3475942647694
657,614.4419793587082
658,614.5766631563065
659,614.7428755128111
660,614.929607054703
661,615.1246428188905
662,615.3156786273937
663,615.4914071342953
664,615.642456405755
665,615.762071888422
666,615.8464730991026
667,615.8948822657159
668,615.909276518486
669,615.8939328328678
670,615.8548298468136
671,615.7989709488202
672,615.7337027886201
673,615.6661032155484
674,615.602487024166
675,615.5480333339577
676,615.5065014682507
677,615.4799995919356
678,615.4688042127706
679,615.4712711588595
680,615.4838967303734
681,615.5015721976422
682,615.5180416038561
683,615.5265387012298
684,615.520545360245
685,615.4945788844065
686,615.4448921673873
687,615.3699789434161
688,615.270816361822
689,615.1508211424045
690,615.0155206639895
691,614.8719583391023
692,614.7278920038475
693,614.5909030757238
694,614.4675707741877
695,614.3628434139786
696,614.2796693125265
697,614.2188763336169
698,614.1792444460859
699,614.1577096945177
700,614.1496626810575
701,614.1493366133685
702,614.150291179377
703,614.1459775972395
704,614.1303339760327
705,614.0983387584872
706,614.0464569578664
707,613.9729378696045
708,613.8779479219236
709,613.7635410930387
710,613.6334800166462
711,613.4929247281312
712,613.3480092929022
713,613.2053384044582
714,613.0714588163788
715,612.9523805836806
716,612.8532180870268
717,612.7779838663477
718,612.7295191924508
719,612.7095097682818
720,612.7185238310203
721,612.7560232862404
722,612.8203310650172
723,612.908576709159
724,613.0166758429579
725,613.1394225379394
726,613.2707724261362
727,613.4043477547737
728,613.5341079785412
729,613.6550448026622
730,613.7637308730698
731,613.8585931342778
732,613.9398657682892
733,614.0092605934625
734,614.06945174464
735,614.1235003274523
736,614.174338804506
737,614.22439588114
738,614.2753898093815
739,614.3282760620732
740,614.3833136864
741,614.4402105671853
742,614.4983187381856
743,614.5568649145306
744,614.615194620339
745,614.6729760927545
746,614.7302866446536
747,614.7875272824365
748,614.8451743685602
749,614.9034333159625
750,614.9618755623165
751,615.0191267758827
752,615.0726596145757
753,615.1187393578323
754,615.1525654113374
755,615.168632409654
756,615.1612991148254
757,615.1255128670147
758,615.0576049298868
759,614.956050069716
760,614.8220697777406
761,614.6599584499672
762,614.4770353648341
763,614.2831741740382
764,614.089929872226
765,613.9093604745609
766,613.7527079529661
767,613.6291369468489
768,613.5447194825048
769,613.5018078680437
770,613.4988705201775
771,613.5307867726415
772,613.5895214293445
773,613.665050657394
774,613.7463987444048
775,613.8226600282038
776,613.8839075832935
777,613.9219222429982
778,613.9307051985847
779,613.906759821632
780,613.8491476747533
781,613.7593454134957
782,613.6409475975463
783,613.4992656954449
784,613.3408679149053
785,613.1730967425538
786,613.003594087025
787,612.8398559629072
788,612.6888280745568
789,612.5565419755958
790,612.4477878575344
791,612.3658330570165
792,612.3122171824201
793,612.2866643432768
794,612.2871377887155
795,612.3100333057072
796,612.3504899892793
797,612.4027993430958
798,612.4608971757431
799,612.5189094038036
800,612.5716994550862
801,612.6153487201658
802,612.6474994320384
803,612.6674996818203
804,612.6763134329246
805,612.6761990100229
806,612.6702166190896
807,612.661679213897
808,612.6536754248357
809,612.6487478740241
810,612.6487301212122
811,612.6546836163675
812,612.6668656304585
813,612.6846921335384
814,612.7067052651064
815,612.7305893221105
816,612.7532928497692
817,612.7713035523306
818,612.7810876359353
819,612.7796565707083
820,612.7651795487247
821,612.7375334699412
822,612.698679723362
823,612.6527771114567
824,612.6059802491881
825,612.56592673752
826,612.5409727645666
827,612.5392833968326
828,612.5679102332475
829,612.6319882935993
830,612.7341591855055
831,612.8742880409935
832,613.0494933987869
833,613.2544588541889
834,613.481954967649
835,613.7234805423806
836,613.9699372467371
837,614.2122721107713
838,614.4420411970383
839,614.6518582234379
840,614.8357079770453
841,614.9891336229163
842,615.109331763829
843,615.1951923597442
844,615.2473085419501
845,615.2679642690728
846,615.2610857813266
847,615.2321210726154
848,615.1878045666382
849,615.1357794239295
850,615.0840812538659
851,615.040520104025
852,615.0120192156203
853,615.0039780432353
854,615.01973273639
855,615.0601920410986
856,615.1237178648021
857,615.2062845195713
858,615.3018949489036
859,615.4031826155756
860,615.5021083518157
861,615.5906724318058
862,615.6615872687476
863,615.7088799560452
864,615.7284016414283
865,615.7182062878152
866,615.6787435232833
867,615.6128163768678
868,615.5252887198584
869,615.4225704923966
870,615.311940991791
871,615.2007832949519
872,615.0958058837475
873,615.0023385821286
874,614.9238076892286
875,614.8614909921589
876,614.8146027169424
877,614.7806733263359
878,614.7561129205029
879,614.7368211549627
880,614.7187359901986
881,614.698266573292
882,614.6725975717738
883,614.639869261715
884,614.5992354736035
885,614.5507992474616
886,614.4954395822115
887,614.4345663331128
888,614.3698546766756
889,614.3030049895601
890,614.235553061932
891,614.1687311046398
892,614.1033639524555
893,614.0397840406445
894,613.977762099471
895,613.9164699515826
896,613.8545025290504
897,613.7899746506378
898,613.7206804459182
899,613.6442858965581
900,613.5585329960638
901,613.4614528184137
902,613.3515914379311
903,613.2282422010006
904,613.0916623883066
905,612.9432448718414
906,612.7856177455943
907,612.6226486996857
908,612.4593293756737
909,612.3015112554579
910,612.1554711176908
911,612.0273133768513
912,611.9222666324605
913,611.8439822609694
914,611.7939708816489
915,611.7713049464691
916,611.7726713517919
917,611.7927875459849
