frame_number,force
0,720.022298072922
1,719.9831245542001
2,719.9430583142906
3,719.9021994836774
4,719.8606447617642
5,719.8184873314938
6,719.7758168135467
7,719.7327192506709
8,719.6892771123917
9,719.6455693114765
10,719.6016712254348
11,719.5576547186581
12,719.5135881632598
13,719.4695364584046
14,719.4255610481555
15,719.3817199367732
16,719.3380676990023
17,719.2946554820508
18,719.2515309962614
19,719.2087384929969
20,719.1663187304863
21,719.1243089303497
22,719.0827427285845
23,719.0416501251907
24,719.0010574370752
25,718.9609872597687
26,718.9214584442409
27,718.8824860950068
28,718.8440815947276
29,718.8062526590406
30,718.7690034235095
31,718.7323345623741
32,718.6962434364115
33,718.6607242650964
34,718.6257683168304
35,718.5913641108605
36,718.5574976256424
37,718.5241525099084
38,718.4913102937415
39,718.4589505976895
40,718.4270513390547
41,718.3955889362558
42,718.3645385139827
43,718.3338741126767
44,718.3035689050788
45,718.2735954207423
46,718.2439257774976
47,718.2145319175087
48,718.1853858447932
49,718.1564598608977
50,718.1277267959407
51,718.0991602333546
52,718.0707347277229
53,718.042426015575
54,718.0142112188555
55,717.9860690402807
56,717.957979949179
57,717.9299263560271
58,717.901892774022
59,717.8738659664141
60,717.8458350784261
61,717.8177917524633
62,717.7897302254456
63,717.7616474076943
64,717.7335429434852
65,717.7054192536242
66,717.6772815600647
67,717.6491378919619
68,717.6209990720124
69,717.5928786816052
70,717.5647930033272
71,717.5367609397247
72,717.5088039075614
73,717.4809457066402
74,717.4532123614409
75,717.4256319329078
76,717.3982342975223
77,717.3710508917869
78,717.3441144220599
79,717.3174585416174
80,717.2911174985675
81,717.2651257597656
82,717.2395176169421
83,717.2143267817988
84,717.189585977236
85,717.1653265321864
86,717.1415779873277
87,717.1183677180737
88,717.0957205804124
89,717.0736585848969
90,717.0522006041781
91,717.0313621194695
92,717.0111550114627
93,716.991587401645
94,716.9726635500668
95,716.9543838145881
96,716.936744674462
97,716.9197388185864
98,716.9033552966815
99,716.8875797302798
100,716.8723945793713
101,716.8577794594453
102,716.8437115025268
103,716.8301657548903
104,716.8171156035409
105,716.8045332233061
106,716.7923900364991
107,716.7806571774628
108,716.7693059544745
109,716.7583083013213
110,716.7476372109087
111,716.7372671439904
112,716.7271744071105
113,716.717337494397
114,716.7077373879058
115,716.6983578112338
116,716.6891854313667
117,716.6802100041542
118,716.6714244595557
119,716.6628249242011
120,716.6544106807928
121,716.6461840659023
122,716.6381503094761
123,716.630317320933
124,716.6226954279331
125,716.615297074299
126,716.6081364832281
127,716.6012292914293
128,716.5945921594495
129,716.5882423631538
130,716.5821973712773
131,716.5764744146741
132,716.5710900541156
133,716.5660597542416
134,716.5613974709229
135,716.5571152582174
136,716.553222899911
137,716.5497275697586
138,716.5466335242513
139,716.5439418322335
140,716.5416501466847
141,716.539752524596
142,716.5382393003983
143,716.5370970170246
144,716.5363084171455
145,716.5358524959697
146,716.535704616322
147,716.5358366861012
148,716.5362173971073
149,716.5368125224662
150,716.5375852680858
151,716.5384966726184
152,716.5395060505623
153,716.5405714738974
154,716.5416502882961
155,716.542699660047
156,716.5436771494212
157,716.5445413055373
158,716.5452522770455
159,716.545772432085
160,716.5460669799061
161,716.5461045855654
162,716.5458579688205
163,716.5453044790693
164,716.5444266394139
165,716.5432126539532
166,716.5416568728302
167,716.5397602094409
168,716.5375305037954
169,716.5349828257139
170,716.532139711726
171,716.5290313304153
172,716.5256955725042
173,716.5221780641865
174,716.5185321047201
175,716.5148185313857
176,716.511105516022
177,716.5074682976993
178,716.5039888563541
179,716.5007555327154
180,716.4978626001629
181,716.4954097934781
182,716.4935017975603
183,716.4922476967297
184,716.4917603833261
185,716.4921559235925
186,716.4935528791201
187,716.4960715829587
188,716.4998333707103
189,716.5049597684732
190,716.5115716408957
191,716.5197883033585
192,716.5297266028242
193,716.5414999731673
194,716.5552174731241
195,716.570982817529
196,716.5888934142014
197,716.6090394192795
198,716.6315028231938
199,716.6563565783943
200,716.6836637788962
201,716.7134769006677
202,716.7458371106703
203,716.7807736510249
204,716.8183033037136
205,716.8584299408162
206,716.9011441654668
207,716.9464230489427
208,716.9942299689004
209,717.0445145523654
210,717.0972127247647
211,717.1522468636572
212,717.2095260536382
213,717.2689464376218
214,717.330391659553
215,717.3937333946778
216,717.45883196523
217,717.5255370405819
218,717.5936884207599
219,717.6631169012077
220,717.7336452156603
221,717.805089053152
222,717.8772581440261
223,717.9499574082607
224,718.0229881579212
225,718.0961493445288
226,718.1692388414679
227,718.2420547508116
228,718.3143967228505
229,718.3860672751296
230,718.4568730959709
231,718.5266263153468
232,718.5951457240539
233,718.6622579212018
234,718.7277983706418
235,718.7916123490837
236,718.8535557718808
237,718.9134958862238
238,718.9713118249352
239,719.0268950163285
240,719.080149446757
241,719.1309917737523
242,719.1793512903031
243,719.2251697449519
244,719.2684010268918
245,719.309010728978
246,719.346975604141
247,719.3822829322501
248,719.4149298150872
249,719.4449224167154
250,719.4722751655316
251,719.4970099333053
252,719.5191552058474
253,719.5387452594587
254,719.5558193565194
255,719.5704209722924
256,719.5825970633217
257,719.5923973858329
258,719.5998738702549
259,719.605080055491
260,719.6080705843143
261,719.608900759449
262,719.6076261583046
263,719.6043023029714
264,719.598984381749
265,719.5917270194957
266,719.5825840954182
267,719.5716086071358
268,719.5588525787888
269,719.5443670096333
270,719.5282018590812
271,719.5104060647728
272,719.4910275914481
273,719.4701135094899
274,719.4477101028415
275,719.4238630062537
276,719.3986173710609
277,719.3720180567726
278,719.3441098432671
279,719.3149376564331
280,719.2845467997311
281,719.2529831852354
282,719.2202935589919
283,719.1865257159516
284,719.1517286993703
285,719.1159529790195
286,719.0792506022531
287,719.0416753122279
288,719.0032826285396
289,718.9641298871395
290,718.924276238407
291,718.8837826045223
292,718.8427115995066
293,718.8011274167188
294,718.7590956885015
295,718.7166833212477
296,718.6739583075469
297,718.6309895162752
298,718.5878464616388
299,718.5445990526749
300,718.5013173253006
301,718.4580711598776
302,718.4149299884716
303,718.3719624970103
304,718.32923632802
305,718.286817789755
306,718.2447715775743
307,718.2031605131772
308,718.1620453063125
309,718.1214843416147
310,718.0815334906711
311,718.042245947062
312,718.0036720806846
313,717.9658593074752
314,717.9288519714156
315,717.8926912365948
316,717.8574149873509
317,717.8230577341288
318,717.7896505223978
319,717.7572208426293
320,717.7257925410867
321,717.695385733453
322,717.6660167253139
323,717.6376979447539
324,717.610437892683
325,717.5842411158424
326,717.5591082057213
327,717.5350358244222
328,717.5120167568886
329,717.4900399884518
330,717.4690908070622
331,717.4491509300617
332,717.430198655328
333,717.4122090361412
334,717.3951540787662
335,717.3790029619264
336,717.3637222779364
337,717.3492762956572
338,717.335627245223
339,717.3227356237337
340,717.3105605202692
341,717.2990599579217
342,717.2881912500421
343,717.2779113674579
344,717.2681773131416
345,717.2589465010042
346,717.2501771363537
347,717.2418285967309
348,717.2338618125278
349,717.226239646337
350,717.2189272682726
351,717.2118925219062
352,717.2051062724879
353,717.1985427265122
354,717.1921797102835
355,717.1859988957146
356,717.1799859643014
357,717.1741307044045
358,717.1684270412534
359,717.1628730022172
360,717.157470621628
361,717.1522257904103
362,717.1471480564422
363,717.1422503817696
364,717.1375488622753
365,717.1330624145428
366,717.1288124341962
367,717.1248224301892
368,717.1211176399714
369,717.1177246307706
370,717.1146708923986
371,717.1119844273751
372,717.1096933449983
373,717.1078254670521
374,717.1064079533137
375,717.1054669543672
376,717.1050272976521
377,717.1051122107102
378,717.1057430833258
379,717.106939267698
380,717.1087179135209
381,717.1110938337303
382,717.114079397037
383,717.1176844447759
384,717.1219162310501
385,717.1267793856626
386,717.1322758986591
387,717.1384051241014
388,717.1451637998199
389,717.1525460795787
390,717.1605435739373
391,717.1691453960119
392,717.1783382087236
393,717.1881062711308
394,717.1984314825693
395,717.2092934242035
396,717.2206693983987
397,717.2325344673463
398,717.2448614935657
399,717.2576211859965
400,717.2707821559592
401,717.2843109870472
402,717.2981723220114
403,717.3123289681644
404,717.3267420212102
405,717.3413710063842
406,717.3561740358583
407,717.3711079822299
408,717.3861286688162
409,717.4011910780438
410,717.4162495795186
411,717.4312581792854
412,717.4461707909473
413,717.4609415276557
414,717.4755250119719
415,717.4898766989778
416,717.5039532072344
417,717.5177126522434
418,717.531114977343
419,717.5441222765945
420,717.5566991028174
421,717.5688127520766
422,717.580433514816
423,717.5915348842241
424,717.6020937138534
425,717.6120903179694
426,717.6215085090647
427,717.6303355678529
428,717.6385621425505
429,717.6461820766323
430,717.6531921671761
431,717.6595918587958
432,717.6653828806525
433,717.6705688361974
434,717.6751547570907
435,717.6791466338591
436,717.6825509357865
437,717.685374131095
438,717.6876222161836
439,717.689300260609
440,717.6904119735761
441,717.690959298106
442,717.690942040005
443,717.6903575391639
444,717.6892003898295
445,717.6874622143605
446,717.6851314923614
447,717.6821934450874
448,717.6786299742023
449,717.6744196538604
450,717.6695377747659
451,717.6639564380081
452,717.6576446953985
453,717.6505687320278
454,717.642692085741
455,717.6339758971982
456,717.6243791835702
457,717.6138591292131
458,717.6023713879416
459,717.5898703935584
460,717.576309677573
461,717.5616421948471
462,717.5458206587027
463,717.5287978870833
464,717.5105271611419
465,717.4909625972227
466,717.4700595323801
467,717.4477749224687
468,717.4240677509152
469,717.3988994460008
470,717.3722343049219
471,717.3440399234935
472,717.314287630314
473,717.2829529233128
474,717.2500159052297
475,717.215461713214
476,717.1792809365262
477,717.1414700153814
478,717.1020316137016
479,717.0609749593583
480,717.0183161471356
481,716.9740784011574
482,716.9282922942666
483,716.8809959219134
484,716.8322350278734
485,716.7820630788455
486,716.7305412851211
487,716.677738565354
488,716.623731454721
489,716.5686039568409
490,716.5124473403552
491,716.4553598810327
492,716.3974465498457
493,716.3388186471718
494,716.2795933836358
495,716.2198934090914
496,716.1598462923749
497,716.0995839554281
498,716.0392420664224
499,715.9789593978907
500,715.9188771574215
501,715.8591382997304
502,715.7998868295113
503,715.7412671041396
504,715.6834231439233
505,715.6264979553788
506,715.570632870596
507,715.5159669040496
508,715.4626361276668
509,715.4107730651956
510,715.3605061073332
511,715.3119589494934
512,715.2652500546342
513,715.2204921440881
514,715.1777917193807
515,715.1372486173723
516,715.0989556001664
517,715.0629979809254
518,715.0294532873359
519,714.998390965438
520,714.9698721270181
521,714.9439493433381
522,714.9206664867222
523,714.900058619836
524,714.8821519311224
525,714.8669637147586
526,714.8545023951726
527,714.8447675987875
528,714.8377502773154
529,714.8334328860234
530,714.8317896171352
531,714.8327866845542
532,714.8363826530345
533,714.842528803539
534,714.851169526612
535,714.8622427367038
536,714.8756803022483
537,714.8914084887609
538,714.9093484149279
539,714.9294165237558
540,714.9515250714827
541,714.9755826359107
542,715.0014946436509
543,715.029163913314
544,715.0584912097283
545,715.0893758034181
546,715.1217160299898
547,715.1554098451959
548,715.1903553721598
549,715.2264514366615
550,715.2635980848406
551,715.3016970765417
552,715.3406523476427
553,715.3803704356723
554,715.4207608639247
555,715.4617364798457
556,715.5032137438723
557,715.5451129653974
558,715.5873584832015
559,715.6298787887144
560,715.6726065920377
561,715.7154788327208
562,715.7584366394556
563,715.8014252444791
564,715.8443938591777
565,715.8872955173305
566,715.9300868920134
567,715.9727280914317
568,716.0151824379312
569,716.0574162336029
570,716.0993985155313
571,716.1411008037144
572,716.1824968449932
573,716.2235623571144
574,716.2642747781014
575,716.3046130269986
576,716.3445572825366
577,716.3840887863353
578,716.4231896769637
579,716.46184286078
580,716.5000319253996
581,716.5377411019293
582,716.5749552820447
583,716.6116600947192
584,716.6478420448137
585,716.6834887122113
586,716.7185890062414
587,716.7531334665036
588,716.7871145988074
589,716.8205272339867
590,716.8533688969717
591,716.8856401728189
592,716.9173450556108
593,716.9484912659589
594,716.9790905237096
595,717.0091587641427
596,717.03871628807
597,717.0677878386462
598,717.0964026006275
599,717.1245941214833
600,717.1524001577442
601,717.1798624531103
602,717.2070264564057
603,717.2339409877115
604,717.2606578606656
605,717.28723146838
606,717.313718339783
607,717.340176672391
608,717.3666658465671
609,717.3932459254239
610,717.419977144128
611,717.4469193927655
612,717.4741316977615
613,717.5016717072901
614,717.5295951856536
615,717.5579555205925
616,717.5868032466166
617,717.6161855871187
618,717.646146018061
619,717.6767238561639
620,717.70795387496
621,717.7398659531523
622,717.7724847611187
623,717.8058294922662
624,717.8399136458277
625,717.8747448668412
626,717.9103248475718
627,717.9466492924075
628,717.9837079455825
629,718.0214846788056
630,718.0599576346623
631,718.0990994214785
632,718.1388773557709
633,718.1792537489965
634,718.2201862355861
635,718.2616281390076
636,718.3035288721883
637,718.3458343684244
638,718.3884875388355
639,718.431428752053
640,718.4745963310785
641,718.5179270613451
642,718.5613567032617
643,718.6048205023575
644,718.6482536908442
645,718.6915919753814
646,718.7347720058372
647,718.7777318185354
648,718.8204112460345
649,718.862752285362
650,718.9046994180153
651,718.9461998768819
652,718.9872038567056
653,719.0276646658639
654,719.0675388183467
655,719.1067860660038
656,719.1453693723543
657,719.1832548305557
658,719.220411529521
659,719.2568113735427
660,719.2924288619599
661,719.3272408363725
662,719.361226204066
663,719.3943656479789
664,719.4266413353575
665,719.458036638221
666,719.4885358783117
667,719.5181241075555
668,719.5467869327786
669,719.5745103907371
670,719.601280876267
671,719.6270851228159
672,719.6519102316664
673,719.675743744528
674,719.6985737537179
675,719.7203890441721
676,719.7411792615245
677,719.7609351004667
678,719.779648507651
679,719.7973128935241
680,719.8139233476625
681,719.8294768526407
682,719.8439724921786
683,719.8574116498227
684,719.869798194368
685,719.8811386478756
686,719.8914423319266
687,719.9007214878952
688,719.9089913676296
689,719.916270292087
690,719.9225796770925
691,719.9279440270523
692,719.9323908985418
693,719.9359508356312
694,719.9386572778444
695,719.9405464407915
696,719.9416571695601
697,719.9420307657762
698,719.9417107902037
699,719.9407428432712
700,719.9391743258573
701,719.9370541824412
702,719.9344326286899
703,719.9313608656416
704,719.927890782809
705,719.9240746528739
706,719.9199648208916
707,719.9156133905628
708,719.9110719093032
709,719.9063910530788
710,719.9016203113063
711,719.8968076713285
712,719.8919993014168
713,719.8872392315575
714,719.8825690324808
715,719.8780274950848
716,719.8736503143869
717,719.8694697843056
718,719.8655145113657
719,719.8618091559156
720,719.858374208202
721,719.8552258044157
722,719.8523755861378
723,719.8498306065435
724,719.8475932878068
725,719.8456614349502
726,719.8440283106587
727,719.8426827731083
728,719.8416094754551
729,719.840789122358
730,719.8401987764639
731,719.839812206498
732,719.8396002685206
733,719.8395313126507
734,719.8395716086902
735,719.8396857854968
736,719.8398372803389
737,719.8399887949098
738,719.8401027533529
739,719.8401417549505
740,719.8400690116292
741,719.8398487595498
742,719.839446635151
743,719.8388300086912
744,719.8379682718345
745,719.8368330790632
746,719.8353985444846
747,719.8336413956201
748,719.831541084849
749,719.8290798585462
750,719.8262427843324
751,719.8230177383625
752,719.8193953567892
753,719.8153689574732
754,719.8109344385957
755,719.8060901597543
756,719.8008368090078
757,719.79517725716
758,719.7891163991319
759,719.7826609819718
760,719.7758194195519
761,719.7686015945868
762,719.7610186489795
763,719.7530827639704
764,719.7448069323601
765,719.7362047258869
766,719.7272900613044
767,719.7180769688675
768,719.7085793669632
769,719.6988108464989
770,719.6887844679894
771,719.6785125729009
772,719.6680066090742
773,719.6572769686227
774,719.6463328359089
775,719.6351820430924
776,719.6238309312622
777,719.6122842161152
778,719.6005448582364
779,719.5886139390866
780,719.5764905446109
781,719.5641716585136
782,719.5516520665498
783,719.5389242723319
784,719.525978424981
785,719.5128022595619
786,719.4993810521456
787,719.4856975922675
788,719.4717321764655
789,719.4574626270892
790,719.4428643399266
791,719.427910362176
792,719.4125714996297
793,719.3968164497793
794,719.3806119563872
795,719.363922980495
796,719.3467128824532
797,719.3289436096788
798,719.3105758860632
799,719.2915694012887
800,719.2718830011631
801,719.2514748826161
802,719.2303027984468
803,719.2083242768936
804,719.1854968597844
805,719.1617783608649
806,719.137127143224
807,719.1115024121209
808,719.084864518028
809,719.0571752650491
810,719.0283982213165
811,718.9984990289984
812,718.9674457114979
813,718.9352089748104
814,718.901762499437
815,718.8670832190364
816,718.831151582399
817,718.7939517964477
818,718.755472049206
819,718.7157047122912
820,718.6746465223434
821,718.6322987403556
822,718.5886672877087
823,718.5437628582024
824,718.4976010065376
825,718.4502022150598
826,718.401591941426
827,718.3518006498408
828,718.300863827814
829,718.2488219895162
830,718.1957206660823
831,718.141610382817
832,718.0865466233
833,718.0305897808145
834,717.9738050978768
835,717.916262594273
836,717.8580369827424
837,717.7992075698894
838,717.7398581390574
839,717.6800768122902
840,717.6199558894688
841,717.5595916629206
842,717.4990842046612
843,717.4385371216563
844,717.3780572731988
845,717.317754444303
846,717.2577409700019
847,717.198131307378
848,717.1390415544905
849,717.0805889172632
850,717.0228911264616
851,716.9660658076133
852,716.9102298078849
853,716.8554984856898
854,716.8019849706417
855,716.7497994028515
856,716.699048161502
857,716.6498330935392
858,716.6022507544448
859,716.5563916739904
860,716.5123396600022
861,716.4701711522591
862,716.4299546373222
863,716.3917501341376
864,716.3556087597921
865,716.321572384124
866,716.2896733802344
867,716.2599344751849
868,716.2323687018502
869,716.2069794498688
870,716.1837606115832
871,716.1626968178653
872,716.1437637583466
873,716.1269285802897
874,716.1121503598197
875,716.099380638497
876,716.0885640173366
877,716.079638799417
878,716.0725376710072
879,716.0671884094762
880,716.063514604431
881,716.0614363773085
882,716.0608710846473
883,716.0617339915754
884,716.0639389042162
885,716.0673987521321
886,716.0720261141404
887,716.0777336827591
888,716.0844346644749
889,716.0920431154622
890,716.1004742153004
891,716.1096444836987
892,716.1194719461525
893,716.1298762536078
894,716.1407787595781
895,716.1521025570021
896,716.1637724767903
897,716.1757150499016
898,716.1878584344822
899,716.2001323094039
900,716.2124677358225
901,716.2247969891423
902,716.2370533649681
903,716.2491709642815
904,716.2610844649321
905,716.272728888144
906,716.2840393698023
907,716.2949509468216
908,716.305398369127
909,716.3153159478513
910,716.3246374501646
911,716.3332960503909
912,716.341224345436
913,716.34835443999
914,716.3546181039349
915,716.359947001581
916,716.3642729899959
917,716.367528481344
