frame_number,force
0,720.0222980703827
1,719.9831245516435
2,719.9430583117187
3,719.9021994810926
4,719.8606447591693
5,719.8184873288915
6,719.7758168109403
7,719.7327192480644
8,719.689277109789
9,719.6455693088815
10,719.6016712228503
11,719.5576547160864
12,719.5135881607017
13,719.4695364558602
14,719.4255610456239
15,719.3817199342533
16,719.338067696493
17,719.2946554795507
18,719.2515309937685
19,719.2087384905086
20,719.1663187280005
21,719.124308927865
22,719.0827427260999
23,719.0416501227054
24,719.0010574345886
25,718.9609872572798
26,718.9214584417488
27,718.8824860925101
28,718.8440815922254
29,718.8062526565319
30,718.769003420994
31,718.7323345598518
32,718.696243433883
33,718.660724262563
34,718.625768314294
35,718.5913641083229
36,718.5574976231055
37,718.524152507374
38,718.4913102912114
39,718.458950595166
40,718.42705133654
41,718.395588933752
42,718.3645385114926
43,718.3338741102028
44,718.303568902624
45,718.2735954183094
46,718.24392577509
47,718.2145319151302
48,718.1853858424483
49,718.1564598585913
50,718.1277267936786
51,718.0991602311428
52,718.0707347255674
53,718.0424260134816
54,718.0142112168302
55,717.9860690383292
56,717.9579799473073
57,717.9299263542409
58,717.9018927723272
59,717.8738659648153
60,717.8458350769271
61,717.8177917510667
62,717.7897302241533
63,717.7616474065073
64,717.733542942403
65,717.7054192526451
66,717.6772815591858
67,717.6491378911792
68,717.6209990713215
69,717.5928786810014
70,717.5647930028053
71,717.5367609392792
72,717.5088039071865
73,717.4809457063296
74,717.4532123611884
75,717.4256319327067
76,717.3982342973653
77,717.3710508916662
78,717.3441144219668
79,717.3174585415419
80,717.2911174984986
81,717.2651257596914
82,717.2395176168495
83,717.2143267816747
84,717.1895859770668
85,717.1653265319595
86,717.141577987031
87,717.1183677176964
88,717.0957205799441
89,717.0736585843285
90,717.0522006035022
91,717.0313621186797
92,717.0111550105537
93,716.9915874006123
94,716.9726635489072
95,716.9543838132998
96,716.9367446730444
97,716.91973881704
98,716.9033552950078
99,716.8875797284808
100,716.8723945774495
101,716.8577794574038
102,716.8437115003692
103,716.83016575262
104,716.817115601161
105,716.8045332208202
106,716.7923900339105
107,716.7806571747744
108,716.769305951689
109,716.7583082984411
110,716.747637207935
111,716.7372671409238
112,716.7271744039508
113,716.7173374911434
114,716.7077373845567
115,716.6983578077869
116,716.689185427819
117,716.6802100005017
118,716.671424455794
119,716.6628249203256
120,716.6544106767997
121,716.6461840617882
122,716.6381503052386
123,716.6303173165702
124,716.6226954234435
125,716.6152970696816
126,716.6081364784828
127,716.6012292865569
128,716.594592154452
129,716.5882423580347
130,716.5821973660409
131,716.5764744093259
132,716.5710900486625
133,716.5660597486916
134,716.5613974652855
135,716.5571152525031
136,716.5532228941308
137,716.5497275639248
138,716.5466335183766
139,716.5439418263304
140,716.5416501407661
141,716.5397525186752
142,716.5382392944887
143,716.5370970111397
144,716.5363084112989
145,716.5358524901746
146,716.5357046105917
147,716.5358366804484
148,716.5362173915441
149,716.536812517004
150,716.5375852627351
151,716.5384966673892
152,716.5395060454634
153,716.5405714689366
154,716.5416502834794
155,716.5426996553795
156,716.5436771449068
157,716.5445413011797
158,716.5452522728482
159,716.5457724280507
160,716.546066976037
161,716.546104581863
162,716.5458579652857
163,716.545304475702
164,716.5444266362132
165,716.5432126509172
166,716.5416568699566
167,716.5397602067264
168,716.5375305012366
169,716.5349828233071
170,716.532139709468
171,716.5290313283022
172,716.5256955705323
173,716.5221780623517
174,716.5185321030175
175,716.5148185298092
176,716.5111055145643
177,716.507468296352
178,716.5039888551074
179,716.5007555315585
180,716.4978625990841
181,716.4954097924649
182,716.4935017965995
183,716.4922476958076
184,716.4917603824291
185,716.492155922707
186,716.4935528782325
187,716.4960715820564
188,716.4998333697812
189,716.5049597675054
190,716.5115716398781
191,716.5197883022814
192,716.5297266016795
193,716.5414999719483
194,716.5552174718252
195,716.570982816146
196,716.5888934127311
197,716.60903941772
198,716.6315028215445
199,716.6563565766553
200,716.6836637770687
201,716.7134768987534
202,716.7458371086714
203,716.7807736489441
204,716.8183033015542
205,716.8584299385817
206,716.9011441631604
207,716.9464230465672
208,716.994229966458
209,717.0445145498578
210,717.0972127221933
211,717.1522468610223
212,717.2095260509398
213,717.268946434859
214,717.3303916567247
215,717.3937333917826
216,717.4588319622661
217,717.5255370375472
218,717.5936884176525
219,717.6631168980255
220,717.7336452124017
221,717.8050890498156
222,717.8772581406103
223,717.949957404764
224,718.0229881543424
225,718.0961493408673
226,718.169238837723
227,718.2420547469828
228,718.3143967189371
229,718.3860672711313
230,718.4568730918878
231,718.526626311179
232,718.5951457198014
233,718.6622579168646
234,718.7277983662201
235,718.7916123445777
236,718.8535557672913
237,718.9134958815517
238,718.9713118201819
239,719.0268950114951
240,719.0801494418448
241,719.1309917687622
242,719.1793512852362
243,719.2251697398093
244,719.268401021675
245,719.3090107236898
246,719.3469755987852
247,719.3822829268314
248,719.414929809611
249,719.4449224111876
250,719.4722751599592
251,719.4970099276956
252,719.5191552002085
253,719.5387452537993
254,719.555819350849
255,719.5704209666212
256,719.5825970576607
257,719.5923973801932
258,719.5998738646479
259,719.6050800499279
260,719.6080705788062
261,719.6089007540073
262,719.6076261529406
263,719.6043022976966
264,719.598984376574
265,719.5917270144307
266,719.582584090473
267,719.5716086023198
268,719.5588525741106
269,719.5443670051008
270,719.5282018547009
271,719.51040606055
272,719.4910275873868
273,719.4701135055932
274,719.4477100991107
275,719.4238630026888
276,719.3986173676607
277,719.3720180535345
278,719.3441098401875
279,719.3149376535071
280,719.2845467969527
281,719.2529831825973
282,719.2202935564858
283,719.1865257135684
284,719.1517286971003
285,719.115952976853
286,719.0792506001804
287,719.04167531024
288,719.0032826266274
289,718.9641298852943
290,718.9242762366201
291,718.8837826027858
292,718.8427115978127
293,718.80112741506
294,718.7590956868703
295,718.7166833196363
296,718.6739583059468
297,718.630989514678
298,718.5878464600363
299,718.544599051059
300,718.5013173236636
301,718.4580711582117
302,718.4149299867692
303,718.3719624952633
304,718.3292363262207
305,718.2868177878952
306,718.2447715756454
307,718.2031605111706
308,718.1620453042202
309,718.1214843394292
310,718.0815334883854
311,718.0422459446701
312,718.0036720781809
313,717.9658593048546
314,717.9288519686736
315,717.8926912337272
316,717.8574149843544
317,717.8230577310011
318,717.7896505191383
319,717.7572208392389
320,717.725792537568
321,717.69538572981
322,717.6660167215521
323,717.6376979408803
324,717.610437888706
325,717.5842411117711
326,717.5591082015658
327,717.5350358201925
328,717.5120167525954
329,717.490039984106
330,717.4690908026754
331,717.4491509256464
332,717.4301986508974
333,717.4122090317088
334,717.3951540743452
335,717.37900295753
336,717.3637222735775
337,717.3492762913488
338,717.3356272409778
339,717.3227356195639
340,717.3105605161862
341,717.2990599539362
342,717.2881912461633
343,717.2779113636935
344,717.2681773094984
345,717.2589464974882
346,717.2501771329698
347,717.2418285934826
348,717.2338618094176
349,717.2262396433658
350,717.2189272654406
351,717.2118925192125
352,717.2051062699311
353,717.1985427240905
354,717.1921797079957
355,717.1859988935594
356,717.1799859622768
357,717.1741307025079
358,717.1684270394812
359,717.1628730005646
360,717.1574706200885
361,717.1522257889765
362,717.147148055106
363,717.1422503805222
364,717.1375488611076
365,717.1330624134454
366,717.1288124331596
367,717.124822429204
368,717.1211176390285
369,717.1177246298612
370,717.1146708915145
371,717.1119844265088
372,717.1096933441435
373,717.1078254662033
374,717.1064079524658
375,717.1054669535155
376,717.1050272967924
377,717.1051122098388
378,717.1057430824393
379,717.1069392667936
380,717.1087179125967
381,717.1110938327853
382,717.1140793960708
383,717.1176844437886
384,717.1219162300416
385,717.1267793846328
386,717.1322758976072
387,717.1384051230266
388,717.1451637987216
389,717.152546078456
390,717.1605435727901
391,717.1691453948399
392,717.1783382075265
393,717.1881062699081
394,717.1984314813204
395,717.2092934229272
396,717.2206693970936
397,717.2325344660109
398,717.2448614921984
399,717.2576211845958
400,717.2707821545238
401,717.2843109855761
402,717.2981723205038
403,717.3123289666196
404,717.3267420196277
405,717.3413710047632
406,717.356174034198
407,717.3711079805287
408,717.3861286670721
409,717.4011910762549
410,717.4162495776841
411,717.4312581774047
412,717.4461707890207
413,717.4609415256833
414,717.4755250099546
415,717.4898766969172
416,717.5039532051326
417,717.517712650103
418,717.531114975167
419,717.5441222743856
420,717.5566991005782
421,717.5688127498094
422,717.5804335125226
423,717.5915348819061
424,717.6020937115119
425,717.6120903156049
426,717.6215085066772
427,717.6303355654428
428,717.6385621401183
429,717.6461820741777
430,717.6531921646988
431,717.6595918562952
432,717.665382878128
433,717.6705688336485
434,717.6751547545174
435,717.6791466312618
436,717.6825509331659
437,717.6853741284518
438,717.6876222135189
439,717.6893002579244
440,717.6904119708737
441,717.6909592953878
442,717.690942037273
443,717.6903575364195
444,717.6892003870734
445,717.687462211593
446,717.6851314895828
447,717.682193442298
448,717.6786299714025
449,717.6744196510507
450,717.6695377719468
451,717.6639564351802
452,717.6576446925626
453,717.6505687291842
454,717.6426920828894
455,717.6339758943374
456,717.6243791806987
457,717.6138591263293
458,717.6023713850445
459,717.5898703906474
460,717.5763096746481
461,717.5616421919083
462,717.5458206557503
463,717.5287978841172
464,717.5105271581618
465,717.4909625942284
466,717.4700595293717
467,717.4477749194466
468,717.4240677478801
469,717.3988994429538
470,717.3722343018648
471,717.3440399204277
472,717.3142876272414
473,717.2829529202351
474,717.250015902148
475,717.2154617101291
476,717.1792809334383
477,717.1414700122903
478,717.102031610606
479,717.060974956257
480,717.0183161440275
481,716.9740783980419
482,716.9282922911436
483,716.8809959187834
484,716.8322350247366
485,716.7820630757026
486,716.7305412819726
487,716.6777385622005
488,716.6237314515632
489,716.56860395368
490,716.5124473371926
491,716.45535987787
492,716.3974465466846
493,716.3388186440142
494,716.2795933804836
495,716.2198934059464
496,716.1598462892387
497,716.099583952301
498,716.0392420633043
499,715.9789593947808
500,715.9188771543181
501,715.8591382966312
502,715.7998868264134
503,715.7412671010397
504,715.6834231408178
505,715.6264979522643
506,715.5706328674688
507,715.5159669009051
508,715.4626361244995
509,715.410773061999
510,715.3605061041
511,715.3119589462158
512,715.2652500513043
513,715.220492140698
514,715.1777917159228
515,715.1372486138397
516,715.0989555965531
517,715.0629979772265
518,715.0294532835479
519,714.9983909615594
520,714.9698721230484
521,714.943949339278
522,714.9206664825736
523,714.9000586156017
524,714.8821519268057
525,714.8669637103634
526,714.8545023907028
527,714.8447675942473
528,714.8377502727092
529,714.8334328813553
530,714.8317896124097
531,714.8327866797756
532,714.8363826482072
533,714.8425287986678
534,714.8511695217018
535,714.8622427317597
536,714.8756802972761
537,714.8914084837668
538,714.9093484099183
539,714.929416518737
540,714.9515250664606
541,714.9755826308912
542,715.0014946386397
543,715.0291639083165
544,715.0584912047493
545,715.0893757984621
546,715.1217160250613
547,715.155409840299
548,715.1903553672973
549,715.2264514318355
550,715.2635980800526
551,715.3016970717923
552,715.3406523429317
553,715.3803704309979
554,715.4207608592844
555,715.4617364752357
556,715.5032137392875
557,715.5451129608321
558,715.5873584786493
559,715.6298787841691
560,715.672606587493
561,715.7154788281706
562,715.7584366348934
563,715.8014252398984
564,715.8443938545719
565,715.8872955126932
566,715.9300868873386
567,715.9727280867137
568,716.0151824331653
569,716.0574162287853
570,716.0993985106596
571,716.141100798787
572,716.1824968400094
573,716.2235623520749
574,716.2642747730079
575,716.3046130218539
576,716.3445572773444
577,716.384088781099
578,716.4231896716866
579,716.4618428554656
580,716.5000319200515
581,716.5377410965513
582,716.5749552766409
583,716.6116600892942
584,716.6478420393721
585,716.6834887067579
586,716.718589000781
587,716.7531334610408
588,716.7871145933459
589,716.82052722853
590,716.8533688915219
591,716.8856401673778
592,716.9173450501806
593,716.9484912605426
594,716.9790905183105
595,717.0091587587642
596,717.0387162827155
597,717.0677878333191
598,717.0964025953308
599,717.1245941162196
600,717.1524001525154
601,717.1798624479183
602,717.2070264512517
603,717.2339409825968
604,717.2606578555909
605,717.2872314633457
606,717.3137183347886
607,717.340176667436
608,717.3666658416514
609,717.3932459205472
610,717.4199771392902
611,717.4469193879657
612,717.4741316929983
613,717.5016717025607
614,717.5295951809545
615,717.5579555159201
616,717.5868032419671
617,717.6161855824885
618,717.6461460134466
619,717.6767238515623
620,717.7079538703687
621,717.7398659485686
622,717.7724847565405
623,717.8058294876913
624,717.8399136412542
625,717.8747448622676
626,717.910324842997
627,717.9466492878313
628,717.9837079410052
629,718.021484674228
630,718.0599576300855
631,718.0990994169041
632,718.1388773512016
633,718.1792537444369
634,718.2201862310424
635,718.2616281344872
636,718.3035288676995
637,718.3458343639763
638,718.3884875344382
639,718.4314287477175
640,718.4745963268166
641,718.517927057169
642,718.5613566991838
643,718.6048204983892
644,718.6482536869963
645,718.6915919716637
646,718.7347720022583
647,718.7777318151029
648,718.8204112427549
649,718.8627522822404
650,718.9046994150555
651,718.9461998740862
652,718.9872038540749
653,719.0276646633977
654,719.0675388160433
655,719.1067860638606
656,719.1453693703675
657,719.1832548287201
658,719.2204115278294
659,719.256811371986
660,719.2924288605275
661,719.3272408350524
662,719.3612262028455
663,719.394365646845
664,719.4266413342967
665,719.4580366372192
666,719.4885358773544
667,719.5181241066274
668,719.5467869318642
669,719.5745103898211
670,719.601280875334
671,719.6270851218512
672,719.6519102306563
673,719.67574374346
674,719.698573752581
675,719.7203890429562
676,719.7411792602209
677,719.7609350990675
678,719.7796485061493
679,719.7973128919139
680,719.813923345939
681,719.8294768508008
682,719.8439724902206
683,719.8574116477463
684,719.8697981921745
685,719.8811386455673
686,719.8914423295066
687,719.9007214853683
688,719.9089913650016
689,719.9162702893648
690,719.9225796742837
691,719.9279440241656
692,719.9323908955863
693,719.9359508326158
694,719.938657274778
695,719.9405464376822
696,719.9416571664156
697,719.9420307626036
698,719.9417107870097
699,719.9407428400614
700,719.9391743226365
701,719.9370541792133
702,719.9344326254576
703,719.9313608624068
704,719.9278907795732
705,719.9240746496384
706,719.919964817658
707,719.9156133873324
708,719.911071906077
709,719.9063910498577
710,719.9016203080911
711,719.8968076681193
712,719.8919992982125
713,719.8872392283553
714,719.8825690292767
715,719.878027491874
716,719.8736503111637
717,719.8694697810635
718,719.8655145080974
719,719.8618091526128
720,719.8583742048562
721,719.8552258010184
722,719.8523755826805
723,719.8498306030182
724,719.8475932842063
725,719.8456614312684
726,719.8440283068902
727,719.8426827692484
728,719.8416094715
729,719.8407891183049
730,719.840198772311
731,719.839812202245
732,719.8396002641684
733,719.8395313082013
734,719.8395716041464
735,719.8396857808619
736,719.8398372756166
737,719.839988790104
738,719.8401027484681
739,719.8401417499919
740,719.8400690066026
741,719.8398487544617
742,719.8394466300088
743,719.8388300035019
744,719.837968266605
745,719.8368330737995
746,719.8353985391924
747,719.8336413903047
748,719.8315410795152
749,719.8290798531986
750,719.8262427789758
751,719.8230177330021
752,719.8193953514302
753,719.8153689521212
754,719.8109344332559
755,719.8060901544314
756,719.8008368037067
757,719.7951772518849
758,719.7891163938868
759,719.7826609767609
760,719.7758194143786
761,719.7686015894542
762,719.7610186438902
763,719.7530827589266
764,719.7448069273638
765,719.73620472094
766,719.727290056409
767,719.718076964025
768,719.7085793621756
769,719.6988108417676
770,719.6887844633159
771,719.6785125682865
772,719.6680066045202
773,719.6572769641305
774,719.6463328314798
775,719.6351820387277
776,719.6238309269637
777,719.6122842118846
778,719.6005448540756
779,719.5886139349977
780,719.5764905405963
781,719.5641716545755
782,719.5516520626901
783,719.5389242685518
784,719.5259784212806
785,719.5128022559403
786,719.4993810486012
787,719.4856975887977
788,719.4717321730674
789,719.4574626237592
790,719.4428643366606
791,719.4279103589695
792,719.4125714964774
793,719.3968164466747
794,719.3806119533223
795,719.3639229774601
796,719.3467128794373
797,719.3289436066693
798,719.3105758830467
799,719.2915693982513
800,719.2718829980914
801,719.2514748794971
802,719.2303027952681
803,719.2083242736434
804,719.1854968564518
805,719.1617783574399
806,719.1371271396969
807,719.1115024084824
808,719.0848645142695
809,719.0571752611626
810,719.028398217294
811,718.9984990248322
812,718.9674457071808
813,718.9352089703355
814,718.9017624947983
815,718.8670832142282
816,718.8311515774161
817,718.7939517912861
818,718.755472043863
819,718.7157047067659
820,718.6746465166358
821,718.6322987344672
822,718.5886672816423
823,718.5437628519622
824,718.4976010001292
825,718.4502022084894
826,718.4015919347012
827,718.3518006429704
828,718.3008638208079
829,718.2488219823852
830,718.1957206588381
831,718.1416103754723
832,718.0865466158674
833,718.0305897733073
834,717.973805090309
835,717.9162625866591
836,717.8580369750971
837,717.7992075622277
838,717.7398581313943
839,717.68007680464
840,717.6199558818452
841,717.559591655336
842,717.4990841971266
843,717.4385371141817
844,717.3780572657929
845,717.317754436973
846,717.2577409627542
847,717.198131300218
848,717.1390415474233
849,717.0805889102935
850,717.0228911195943
851,716.966065800853
852,716.9102298012361
853,716.8554984791574
854,716.8019849642303
855,716.7497993965661
856,716.6990481553472
857,716.6498330875198
858,716.6022507485653
859,716.5563916682554
860,716.5123396544157
861,716.4701711468244
862,716.4299546320423
863,716.3917501290142
864,716.3556087548263
865,716.3215723793163
866,716.2896733755842
867,716.2599344706912
868,716.2323686975113
869,716.2069794456831
870,716.1837606075493
871,716.1626968139814
872,716.1437637546113
873,716.1269285767013
874,716.1121503563764
875,716.0993806351979
876,716.0885640141802
877,716.0796387964011
878,716.072537668129
879,716.0671884067316
880,716.0635146018149
881,716.0614363748145
882,716.0608710822679
883,716.0617339893018
884,716.063938902039
885,716.067398750041
886,716.0720261121244
887,716.0777336808071
888,716.0844346625746
889,716.0920431136001
890,716.1004742134618
891,716.1096444818681
892,716.1194719443143
893,716.129876251746
894,716.1407787576763
895,716.1521025550437
896,716.1637724747592
897,716.1757150477824
898,716.1878584322607
899,716.200132307067
900,716.2124677333584
901,716.2247969865405
902,716.2370533622195
903,716.2491709613787
904,716.2610844618696
905,716.2727288849178
906,716.2840393664093
907,716.2949509432596
908,716.3053983653945
909,716.3153159439474
910,716.3246374460898
911,716.3332960461473
912,716.3412243410268
913,716.3483544354193
914,716.3546180992081
915,716.3599469967046
916,716.3642729849781
917,716.3675284761945
918,716.369646856251
