acceleration,velocity,displacement
0.02907554956147297,0.0,0.0
0.028976624562580943,1.451304353101348e-05,3.62826088275337e-09
0.028896993915676194,2.8981448150577763e-05,1.450188380315118e-08
0.02882667461802179,4.341236528400226e-05,3.260033716179619e-08
0.028755521369032776,5.780791428076591e-05,5.790540705298823e-08
0.028673523690686587,7.216517554569575e-05,9.039867950960365e-08
0.02857109938521186,8.647633131467036e-05,1.300590562246952e-07
0.028439370707360807,0.00010072894883781354,1.7686037626281616e-07
0.028270409528416893,0.00011490639389675797,2.3076921194645904e-07
0.028057440498669466,0.00012898835640352957,2.917428995215309e-07
0.02779499542713389,0.0001429514653849804,3.597278549686584e-07
0.02747901704565669,0.00015676996850317806,4.3465821344069804e-07
0.02710691536523517,0.00017041645160590103,5.164548184679678e-07
0.02667758322429164,0.00018386257625328274,6.050245754327638e-07
0.026191377689699192,0.00019707981648178045,7.002601736165296e-07
0.025650071134234693,0.00021004017868776393,8.020401724089157e-07
0.0250567722026699,0.00022271688952199008,9.102294394613542e-07
0.024415814444075482,0.00023508503618367642,1.024679920887771e-06
0.02373261028032156,0.0002471221423647757,1.1452317155248839e-06
0.023013470464673242,0.00025880866255102437,1.271714416753834e-06
0.022265393160657964,0.00027012837845735715,1.4039486770059293e-06
0.021495830215117778,0.0002810686843013011,1.5417479426955939e-06
0.020712439770604666,0.00029162075179773174,1.6849203017203522e-06
0.019922834533826313,0.0003017795703738395,1.833270382263245e-06
0.019134335413616105,0.0003115438628607001,1.98660124057188e-06
0.018353741606676993,0.0003209158821157734,2.1447161768159983e-06
0.017587129373258518,0.00032990109986075726,2.307420422310131e-06
0.016839691172972494,0.000338507804997315,2.474522648524649e-06
0.016115624463235292,0.00034674663390636695,2.6458362582505695e-06
0.015418076138600429,0.0003546300590568259,2.8211804314913677e-06
0.01474914457832428,0.00036217186423605707,3.0003809123145884e-06
0.014109936528406586,0.0003693866345127398,3.1832705370017875e-06
0.013500671069364022,0.00037628928641218247,3.369689517233018e-06
0.012920818515081246,0.0003828946588082938,3.559485503538137e-06
0.012369259245527849,0.00038921717824844603,3.752513462802322e-06
0.011844447390265621,0.0003952706049073944,3.948635408591282e-06
0.01134456695332042,0.0004010678584932909,4.147720024441453e-06
0.01086767147204805,0.000406620918099633,4.349642218589684e-06
0.010411800851856758,0.0004119407861806092,4.5542826446597445e-06
0.00997507092058187,0.00041703750412371883,4.761527217235827e-06
0.009555733962560755,0.0004219202053445045,4.971266644602882e-06
0.009152212607337928,0.0004265971919869791,5.183395993935753e-06
0.008763113706823783,0.00043107602356551956,5.397814297823878e-06
0.008387230929019968,0.0004353636097244805,5.614424206146378e-06
0.008023543504898391,0.0004394663033329601,5.833131684410738e-06
0.007671214990255003,0.00044338999295674843,6.053845758483165e-06
0.0073295922097333386,0.0004471401947567455,6.276478305411539e-06
0.006998202008370806,0.00045072214331127157,6.500943889928543e-06
0.0066767421334297415,0.0004541408793467217,6.727159645593041e-06
0.006365062465785252,0.00045740133049652546,6.955045198053853e-06
0.006063134208063774,0.0004605083796649877,7.184522625594231e-06
0.005771007244254707,0.0004634669150280673,7.415516449267494e-06
0.00548875837370767,0.00046628185643255793,7.64795364213265e-06
0.005216434290594,0.0004689581545986333,7.881763644890447e-06
0.004953993012509387,0.00047150076142440917,8.116878373896208e-06
0.004701246509605525,0.0004739145713049379,8.353232207078545e-06
0.004457806042398286,0.0004762043344429389,8.590761933515513e-06
0.004223030924450963,0.00047837454368465117,8.82940665304741e-06
0.003995981685083197,0.0004804292968370347,9.069107613177832e-06
0.0037753793440862197,0.00048237213709432706,9.309807971660672e-06
0.0035595726196868435,0.00048420587508527034,9.551452474705572e-06
0.0033465144368548284,0.0004859323968494058,9.79398704268924e-06
0.0031337491509392575,0.0004875524627463543,1.003735825758818e-05
0.00291841287168063,0.0004890655032520093,1.028151274908777e-05
0.0026972503639297297,0.0004904694190609119,1.0526396479666e-05
0.0024666520971552354,0.0004917603946761832,1.0771953933100274e-05
0.002222713808708529,0.0004929327361526491,1.1018127215807482e-05
0.0019613190802830146,0.000493978744374897,1.1264855085939368e-05
0.0016782436476272557,0.0004948886350568746,1.1512071930797311e-05
0.0013692788204321866,0.0004956505156738895,1.1759706718480002e-05
0.0010303707109131303,0.0004962504280567259,1.2007681954412656e-05
0.0006577719618650893,0.0004966724637249204,1.2255912677358067e-05
0.000248202597976475,0.0004968989573648808,1.2504305532630518e-05
-0.00020098457713514745,0.0004969107618700911,1.275275796243926e-05
-0.0006916411811590274,0.0004966876054305176,1.3001157554264412e-05
-0.0012246729918598304,0.0004962085268872628,1.3249381587343857e-05
-0.001799913413318525,0.0004954523802859683,1.3497296814137165e-05
-0.0024160305649735783,0.0004943983942913953,1.3744759507781505e-05
-0.003070474791243815,0.000493026767952341,1.399161579834244e-05
-0.003759469980756225,0.000491319281759341,1.423770231077036e-05
-0.004478048993538185,0.0004892599020157673,1.4482847106714137e-05
-0.005220130796510048,0.0004868353570682553,1.4726870921485142e-05
-0.005978635080421167,0.0004840356655990225,1.4969588677151962e-05
-0.006745629275045671,0.00048085459951015583,1.5210811243429256e-05
-0.007512502209525837,0.00047729006663901294,1.5450347409966547e-05
-0.008270158009424277,0.00047334440158427544,1.568800602702237e-05
-0.00900922415815805,0.00046902455604237985,1.5923598266429032e-05
-0.009720269210826306,0.00046434218270013374,1.615693995111466e-05
-0.01039402700056297,0.0004593136086472864,1.6387853898951514e-05
-0.01102162412693693,0.00045395969586541144,1.661617222507969e-05
-0.011594806613364149,0.00044830558818033617,1.6841738546091125e-05
-0.012106160722510048,0.00044238034634636763,1.7064410029722802e-05
-0.01254932161916066,0.00043621647576094996,1.7284059235249632e-05
-0.012919161522249917,0.0004298493549755973,1.750057569293377e-05
-0.013211947523528281,0.00042331657771415275,1.7713867176106206e-05
-0.0134254601029006,0.00041665722580754553,1.7923860626986632e-05
-0.013559066581603666,0.00040991109413641947,1.8130502706972625e-05
-0.013613747706693245,0.00040311789056434523,1.8333759953147817e-05
-0.013592078525557993,0.00039631643400628243,1.8533618534290474e-05
-0.013498166198891144,0.00038954387282517017,1.873008361099834e-05
-0.013337548231776642,0.0003828349442175032,1.8923178315259007e-05
-0.013117055634907683,0.00037622129325083213,1.911294237462609e-05
-0.012844646719651315,0.0003697308676621924,1.9299430414854348e-05
-0.012529218075650479,0.00036338740146336695,1.9482709982135736e-05
-0.012180399550703444,0.0003572099970567785,1.9662859331765772e-05
-0.01180833976595345,0.00035121281222761427,1.983996503408687e-05
-0.011423487805205338,0.00034540485533482456,2.001411945097748e-05
-0.011036375501057502,0.00033978988950825883,2.018541813718825e-05
-0.010657404120629023,0.0003343664446028372,2.035395722071602e-05
-0.010296639546150208,0.00032912793368614237,2.0519830815288265e-05
-0.00996362007351142,0.00032406286878122693,2.0683128515905107e-05
-0.009667179738227737,0.00031915516882829217,2.0843933025307487e-05
-0.009415288503680092,0.0003143845517678152,2.1002317955456512e-05
-0.009214910193540758,0.00030972700209351,2.1158345843921843e-05
-0.009071879832244455,0.0003051553045870637,2.1312066420591986e-05
-0.008990803081072944,0.00030063963385873433,2.1463515155203436e-05
-0.008974981145931218,0.0002961481878019833,2.1612712110618617e-05
-0.009026364955215907,0.0002916478512766965,2.1759661120388286e-05
-0.009145542250590132,0.000287104874475245,2.1904349301826273e-05
-0.009331759771673328,0.00028248554896967914,2.2046746907687502e-05
-0.009582980069310581,0.00027775686400943316,2.218680751093228e-05
-0.009895969768088628,0.0002728871265500834,2.232446850857216e-05
-0.010266413950326809,0.00026784653062047955,2.2459651922864802e-05
-0.010689049572061213,0.00026260766473988254,2.2592265471704894e-05
-0.011157809792955425,0.00025714594989862836,2.272220387536452e-05
-0.011665971698627008,0.0002514400045257328,2.284935036397061e-05
-0.012206301968376238,0.000245471936108982,2.297357834912929e-05
-0.012771197347309984,0.0002392275612800604,2.309475322347655e-05
-0.013352818653189172,0.00023269655727993561,2.321273425311655e-05
-0.013943218649796143,0.00022587254795418927,2.3327376529425083e-05
-0.01453446498260798,0.00021875312704608825,2.3438532948175153e-05
-0.015118758485659248,0.00021133982117902143,2.354605618523143e-05
-0.015688544986404714,0.00020363799531100544,2.3649800639353935e-05
-0.016236617378217365,0.0001956567047198499,2.3749624314361648e-05
-0.016756205505030184,0.00018740849899903802,2.384539061529137e-05
-0.017241053568687114,0.0001789091842306087,2.393697003609878e-05
-0.017685486958679737,0.00017017754909876698,2.4024241719431125e-05
-0.018084471775852352,0.00016123505941513394,2.41070948715596e-05
-0.018433670266469113,0.00015210552390455356,2.4185430017389525e-05
-0.018729493491499022,0.00014281473296506153,2.425916008160693e-05
-0.0189691494759931,0.0001333900722231885,2.4328211282903992e-05
-0.019150682680388786,0.00012386011418409303,2.4392523829505813e-05
-0.019273000411456763,0.00011425419341113164,2.445205240640462e-05
-0.019335883399214344,0.00010460197245846386,2.450676644787202e-05
-0.01933997965394391,9.49330066951743e-05,2.455665019266043e-05
-0.019286781700492448,8.527631635656521e-05,2.4601702523423367e-05
-0.019178587241235088,7.565997412113333e-05,2.464193659604279e-05
-0.019018443089797693,6.611071653837513e-05,2.4677379268707668e-05
-0.01881007307557508,5.665358749703194e-05,2.470807034471652e-05
-0.01855779287615244,4.731162100910006e-05,2.4734061646843054e-05
-0.018266417105567936,3.810556851366997e-05,2.4755415944223745e-05
-0.017941164638165898,2.905367307773651e-05,2.4772205754621595e-05
-0.017587566506163905,2.0171490291654058e-05,2.4784512045463944e-05
-0.017211377859669783,1.1471754200195636e-05,2.4792422856586906e-05
-0.016818493000895732,2.9642864850542573e-06,2.479603186675822e-05
-0.01641486129361039,-5.3440520885722725e-06,2.479543692535734e-05
-0.01600640174875312,-1.3449367849163149e-05,2.4790738570372905e-05
-0.015598914765837297,-2.1350696977810753e-05,2.478203855416616e-05
-0.015197990491123843,-2.904992329205104e-05,2.4769438399098697e-05
-0.014808914628939329,-3.655164957206683e-05,2.4753038005882666e-05
-0.014436574494638714,-4.3863021852961345e-05,2.473293433802641e-05
-0.014085370032602422,-5.099350798477163e-05,2.4709220205566977e-05
-0.013759135100560078,-5.7954634268062254e-05,2.4681983170003767e-05
-0.013461072929489941,-6.475968627557476e-05,2.4651304589867856e-05
-0.013193707302322529,-7.142338133352788e-05,2.461725882296558e-05
-0.012958849221695384,-7.796152046453235e-05,2.4579912597516066e-05
-0.01275757845373341,-8.439062738338954e-05,2.4539324560554085e-05
-0.012590240229568908,-9.072758205421512e-05,2.4495545008194684e-05
-0.012456458997845704,-9.698925686106877e-05,2.4448615798465863e-05
-0.012355172618888842,-0.00010319216476525241,2.4398570443059284e-05
-0.012284690908837794,-0.00010935213064718408,2.4345434369206173e-05
-0.012242781576046647,-0.00011548399876840518,2.4289225336852277e-05
-0.012226784334839145,-0.00012160139024612664,2.4229953989598643e-05
-0.012233750404598573,-0.00012771652393098607,2.4167624511054365e-05
-0.012260600401084887,-0.00013384011163240694,2.4102235352163516e-05
-0.012304290373910903,-0.00013998133432615588,2.4033779990673875e-05
-0.012361974587420022,-0.0001461479005664886,2.3962247681950713e-05
-0.012431154121874703,-0.00015234618274381228,2.3887624161123136e-05
-0.012509801041841514,-0.00015858142153474134,2.38098922600535e-05
-0.01259644802685695,-0.00016485798380191596,2.3729032408719337e-05
-0.012690233939651463,-0.00017117965429354307,2.3645022999195472e-05
-0.01279089846362002,-0.00017754993739436094,2.3557840601273496e-05
-0.012898724169764123,-0.00018397234305270698,2.3467460031161728e-05
-0.013014430770551894,-0.00019045063178778598,2.3373854287451606e-05
-0.013139031558799436,-0.00019698899737012382,2.3276994380162127e-05
-0.013273664708639873,-0.00020359217143698364,2.317684908796035e-05
-0.013419412612233637,-0.00021026544076720201,2.30733846849093e-05
-0.013577121754489017,-0.00021701457435888269,2.2966564681127778e-05
-0.013747234077774997,-0.0002238456633169487,2.285634962170882e-05
-0.013929638474032962,-0.0002307648814549007,2.274269698551586e-05
-0.01412354899680265,-0.0002377781783226096,2.262556122057148e-05
-0.014327415621098634,-0.0002448909194770849,2.2504893946121558e-05
-0.014538873029808287,-0.00025210749163981166,2.2380644343342333e-05
-0.014754730853989905,-0.0002594308926107612,2.225275974727969e-05
-0.0149710044164774,-0.000266862326428378,2.2121186442519904e-05
-0.015182980089169022,-0.00027440082255478964,2.1985870655274114e-05
-0.015385306076736814,-0.0002820428940962661,2.184675972611135e-05
-0.015572098683327974,-0.00028978224528628226,2.1703803441265712e-05
-0.015737055426035713,-0.0002976095338136232,2.1556955496490734e-05
-0.015873568487736196,-0.00030551218979206615,2.1406175065589312e-05
-0.015974833938913018,-0.00031347429039872845,2.125142844554161e-05
-0.01603395387405755,-0.00032147648735197107,2.1092690751103937e-05
-0.016044030530756027,-0.0003294959834531745,2.092994763340265e-05
-0.015998253462571627,-0.0003375065544515064,2.0763196998926477e-05
-0.015889982085501374,-0.0003454786133385247,2.059245070697897e-05
-0.015712825601684365,-0.0003533793152603211,2.0417736224829257e-05
-0.015460720552027907,-0.0003611727017987492,2.023909822056449e-05
-0.015128004253816676,-0.0003688198830002103,2.005660007436475e-05
-0.014709481559650262,-0.00037627925445357706,1.9870325290001303e-05
-0.014200483559538794,-0.00038350674573337434,1.9680378789954563e-05
-0.013596919854212672,-0.0003904560965868122,1.9486888079374518e-05
-0.012895329582449044,-0.00039707915894597763,1.929000426549132e-05
-0.01209293890164481,-0.0004033262260670011,1.9089902919238075e-05
-0.011187733148984799,-0.0004091463940796585,1.888678476420141e-05
-0.010178549990469323,-0.000414487964864522,1.8680876174465362e-05
-0.00906519535261706,-0.0004192989012002936,1.8472429457949158e-05
-0.007848578009358126,-0.00042352734454078743,1.8261722896513886e-05
-0.006530853975962125,-0.0004271222025371175,1.804906050974441e-05
-0.005115570035504708,-0.0004300338085399842,1.7834771506975136e-05
-0.0036077958561195086,-0.0004322146500128903,1.7619209392336917e-05
-0.002014234389156729,-0.00043362015757420934,1.7402750690440142e-05
-0.00034330027904673586,-0.0004342095412412602,1.7185793265736274e-05
0.0013948431331267874,-0.0004339466555277402,1.6968754216544024e-05
0.003188295690957097,-0.00043280087082171926,1.675206733495666e-05
0.005023486617741968,-0.0004307479252445445,1.6536180135940095e-05
0.006885299162501258,-0.00042777072879948366,1.632155047242909e-05
0.008757257022681968,-0.00042386008975318787,1.610864276779092e-05
0.010621774594439056,-0.00041901533184890763,1.5897923912390394e-05
0.012460470761806453,-0.00041324477050984625,1.5689858886800706e-05
0.014254542477541725,-0.0004065660172000092,1.548490618987324e-05
0.01598518984226751,-0.0003990060841200569,1.5283513164543224e-05
0.017634078939362374,-0.0003906012669246494,1.5086111326782048e-05
0.01918382332497661,-0.00038139679135856466,1.4893111812211245e-05
0.020618461498573725,-0.00037144622015267706,1.4704901059333435e-05
0.021923907107262778,-0.00036081062800121796,1.452183684729496e-05
0.023088351029184825,-0.00034955756346710605,1.4344244799427879e-05
0.024102598991428643,-0.00033775982596195267,1.4172415452070614e-05
0.024960333834643154,-0.00032549409275543475,1.4006601972391267e-05
0.025658296173377573,-0.0003128394352534296,1.3847018590389051e-05
0.026196379235089006,-0.0002998757664013129,1.3693839789975366e-05
0.026577633264214858,-0.00028668226327648695,1.3547200282555915e-05
0.02680817471018754,-0.00027333581128288634,1.3407195763916071e-05
0.026896998220769408,-0.0002599095180501471,1.3273884431582814e-05
0.026855695460053244,-0.00024647134462994145,1.3147289215912791e-05
0.026698091721578637,-0.0002330828978345335,1.3027400655296672e-05
0.02643981677711023,-0.00021979842070986126,1.2914180325660573e-05
0.026097829612535085,-0.00020666400911244993,1.2807564718204995e-05
0.025689918032402607,-0.0001937170722012155,1.2707469447876579e-05
0.025234193679299317,-0.00018098604427329004,1.2613793668757952e-05
0.024748600791837654,-0.0001684903456555058,1.2526424571275754e-05
0.02425045380566844,-0.00015624058200612928,1.2445241839360344e-05
0.023756016018653053,-0.00014423896455004892,1.23701219527213e-05
0.023280129710640435,-0.00013247992811772554,1.2300942229554356e-05
0.02283590692819759,-0.00012095091895801603,1.223758451778542e-05
0.022434488688603357,-0.00010963332005381579,1.2179938458032462e-05
0.022084878130691613,-9.850347834899205e-05,1.212790425843176e-05
0.021793850349942172,-8.75337962288336e-05,1.2081394939787303e-05
0.021565938536461594,-7.669384900723266e-05,1.2040338028478287e-05
0.021403492470779363,-6.595149125542241e-05,1.2004676693412624e-05
0.02130680165574422,-5.5273917723791516e-05,1.197437034116782e-05
0.021274272248802868,-4.462864924765474e-05,1.1949394699424959e-05
0.021302644932702213,-3.398441995227847e-05,1.1929741432124975e-05
0.02138723937810386,-2.3311948874576952e-05,1.1915417339918261e-05
0.021522210059133465,-1.2584586515267621e-05,1.19064432060708e-05
0.02170079946452999,-1.7788341343517569e-06,1.1902852350908394e-05
0.021915578924428223,9.125260462887796e-06,1.1904688957490528e-05
0.022158672058811626,2.0143823208697756e-05,1.1912006228408425e-05
0.022421958221668467,3.128898077881778e-05,1.1924864429405304e-05
0.022697252864442588,4.256878355034555e-05,1.1943328870487594e-05
0.022976460619548188,5.398721192134324e-05,1.1967467869355516e-05
0.02325169743550814,6.554425143510732e-05,1.1997350735194628e-05
0.02351538084789241,7.723602100595746e-05,1.2033045803304895e-05
0.023760291209810144,8.90549390203831e-05,1.207461854331148e-05
0.023979610133572433,0.00010098991435622874,1.2122129756655633e-05
0.024166945029750433,0.00011302655314705946,1.2175633873531454e-05
0.024316349876141362,0.00012514737687353242,1.2235177356036603e-05
0.024422351235744082,0.00013733205215150378,1.2300797213292862e-05
0.02447998480036147,0.00014955763616053018,1.237251963537087e-05
0.024484842563731422,0.0001617988430015534,1.2450358755161391e-05
0.02443312655481956,0.00017402833528119117,1.2534315549732078e-05
0.024321704063518558,0.0001862170429357757,1.262437689428632e-05
0.024148161232398463,0.00019833450925975496,1.2720514782335203e-05
0.02391085409047779,0.00021034926309047402,1.282268572542276e-05
0.023608956358819617,0.00022222921570279837,1.293083034512108e-05
0.023242501829002823,0.00023394208024975398,1.3044873169109217e-05
0.02281241709670582,0.00024545580998118114,1.3164722641666951e-05
0.022320538875807507,0.0002567390489743095,1.3290271356405824e-05
0.021769609658479832,0.00026776158610788134,1.3421396515176371e-05
0.02116324651200857,0.0002784948001505034,1.3557960611740967e-05
0.020505880154207175,0.00028891208181705736,1.3699812332232858e-05
0.019802664665582753,0.00029898921802200485,1.3846787657192623e-05
0.019059361971374297,0.00030870472468124414,1.3998711142868436e-05
0.018282208936599008,0.00031804011740823744,1.4155397353390806e-05
0.017477776971478343,0.0003269801138852568,1.4316652411214179e-05
0.016652832921844548,0.00033551276635858753,1.448227563127514e-05
0.0158142061626718,0.00034362952612971664,1.4652061204397215e-05
0.014968662616201849,0.0003513252433244351,1.4825799896760753e-05
0.014122784062031515,0.00035859810499399344,1.500328073384036e-05
0.013282850811998986,0.00036544951371250104,1.5184292638516983e-05
