acceleration,velocity,displacement
0.02907554956136297,0.0,0.0
0.0289766245623793,1.4513043530935566e-05,3.6282608827338917e-09
0.02889699391536425,2.8981448150371453e-05,1.4501883803060647e-08
0.028826674617584,4.3412365283608514e-05,3.2600337161555645e-08
0.0287555213684536,5.780791428011791e-05,5.790540705248725e-08
0.02867352368995205,7.216517554471933e-05,9.039867950869656e-08
0.028571099384309535,8.647633131328473e-05,1.3005905622319758e-07
0.02843937070627983,0.00010072894883593207,1.7686037626050178e-07
0.02827040952714484,0.00011490639389428824,2.3076921194305685e-07
0.02805744049719549,0.00012898835640037332,2.9174289951672226e-07
0.027794995425447135,0.00014295146538103397,3.5972785496207405e-07
0.02747901704374319,0.00015676996849833154,4.346582134319154e-07
0.027106915363079416,0.0001704164516000372,5.164548184565076e-07
0.02667758322187345,0.00018386257624627544,6.050245754180857e-07
0.026191377686999952,0.00019707981647349378,7.002601735980281e-07
0.02565007113123733,0.0002100401786780531,8.020401723859148e-07
0.025056772199362004,0.00022271688951070294,9.102294394331039e-07
0.024415814440453973,0.00023508503617065694,1.0246799208534438e-06
0.023732610276397333,0.00024712214234986975,1.1452317154835756e-06
0.023013470460471176,0.00025880866253408686,1.2717144167045648e-06
0.022265393156216926,0.0002701283784382589,1.4039486769476511e-06
0.021495830210482847,0.0002810686842799338,1.5417479426271994e-06
0.02071243976582713,0.0002916207517740113,1.6849203016406856e-06
0.01992283452895591,0.00030177957034770706,1.8332703821711153e-06
0.01913433540870411,0.00031154386283212206,1.9866012404660727e-06
0.018353741601776243,0.0003209158820847421,2.144716176695289e-06
0.01758712936842029,0.00032990109982729125,2.3074204221732973e-06
0.016839691168252725,0.0003385078049614595,2.474522648370485e-06
0.016115624458694577,0.0003467466338681963,2.6458362580778992e-06
0.015418076134302473,0.0003546300590164456,2.82118043129906e-06
0.014749144574325015,0.0003621718641936025,3.000380912101572e-06
0.01410993652476505,0.000369386634468375,3.183270536767066e-06
0.013500671066147028,0.000376289286366103,3.3696895169756856e-06
0.012920818512350938,0.0003828946587607275,3.5594855032573934e-06
0.012369259243340161,0.00038921717819965026,3.752513462497488e-06
0.011844447388662502,0.0003952706048576509,3.948635408261813e-06
0.011344566952328274,0.0004010678584428986,4.14772002408695e-06
0.01086767147167464,0.00040662091804889933,4.3496422182099e-06
0.0104118008520943,0.0004119407861298416,4.554282644254585e-06
0.009975070921405493,0.00041703750407321653,4.761527216805349e-06
0.009555733963930044,0.0004219202052945504,4.971266644147291e-06
0.009152212609201594,0.0004265971919378333,5.183395993455387e-06
0.0087631137091181,0.00043107602351741324,5.397814297319199e-06
0.008387230931662567,0.0004353636096776084,5.614424205617955e-06
0.008023543507799134,0.0004394663032874738,5.833131683859226e-06
0.007671214993319086,0.00044338999291275335,6.0538457579092825e-06
0.0073295922128706215,0.0004471401947143008,6.276478304816046e-06
0.006998202011492704,0.0004507221432703916,6.500943889312219e-06
0.0066767421364523315,0.0004541408793073779,6.727159644956661e-06
0.006365062468632381,0.00045740133045864907,6.955045197398168e-06
0.006063134210663952,0.0004605083796284732,7.184522624919948e-06
0.005771007246541105,0.0004634669149927744,7.415516448575261e-06
0.0054887583756181215,0.0004662818563983142,7.647953641423033e-06
0.005216434292077217,0.00046895815456523806,7.881763644163922e-06
0.004953993013520298,0.0004715007613916374,8.11687837315314e-06
0.004701246510105275,0.00047391457127254384,8.353232206319185e-06
0.004457806042358896,0.0004762043344106599,8.590761932739985e-06
0.004223030923859996,0.0004783745436522146,8.829406652255704e-06
0.003995981683948422,0.00048042929680416674,9.0691076123698e-06
0.0037753793424293897,0.0004823721370607612,9.309807970836031e-06
0.0035595726175468067,0.00048420587505075525,9.55145247386391e-06
0.003346514434282867,0.00048593239681371265,9.793987041830028e-06
0.00313374914799598,0.0004875524627092824,1.0037358256710777e-05
0.0029184128684344147,0.00048906550321339,1.0281512748191445e-05
0.0026972503604520653,0.0004904694190206116,1.0526396478749946e-05
0.002466652093522275,0.0004917603946341052,1.0771953932163625e-05
0.0022227138049995348,0.0004929327361087357,1.1018127214849335e-05
0.0019613190765741433,0.0004939787443291291,1.1264855084958802e-05
0.0016782436439962195,0.0004948886350092717,1.1512071929793403e-05
0.0013692788169473757,0.0004956505156245076,1.1759706717451848e-05
0.00103037070762895,0.0004962504280056517,1.2007681953359387e-05
0.0006577719588266232,0.0004966724636722656,1.2255912676278866e-05
0.0002482025952225914,0.0004968989573107779,1.2504305531524627e-05
-0.00020098457957334914,0.0004969107618146903,1.2752757961305993e-05
-0.0006916411832551089,0.0004966876053739831,1.300115755310316e-05
-0.001224672993592015,0.0004962085268297714,1.32493815861541e-05
-0.0017999134146712528,0.0004954523802277055,1.349729681291847e-05
-0.0024160305659375056,0.0004943983942325533,1.3744759506533535e-05
-0.003070474791814262,0.0004930267678931154,1.3991615797064952e-05
-0.003759469980928513,0.0004913192816999297,1.4237702309463213e-05
-0.0044780489933123006,0.0004892599019563695,1.4482847105377287e-05
-0.0052201307958953036,0.0004868353570090676,1.4726870920118646e-05
-0.005978635079433095,0.0004840356655402355,1.4969588675755972e-05
-0.006745629273706025,0.0004808545994519507,1.5210811242004018e-05
-0.007512502207862589,0.0004772900665815586,1.5450347408512395e-05
-0.00827015800747007,0.0004733444015277254,1.5688006025539716e-05
-0.00900922415595174,0.00046902455598686995,1.5923598264918366e-05
-0.00972026920841142,0.00046434218264577916,1.615693994957653e-05
-0.010394026997989254,0.000459313608594179,1.638785389738652e-05
-0.011021624124257244,0.00045395969581361737,1.661617222348847e-05
-0.011594806610631355,0.00044830558812989523,1.6841738544474346e-05
-0.012106160719775463,0.00044238034629729355,1.7064410028081144e-05
-0.012549321616478704,0.00043621647571323,1.7284059233583776e-05
-0.01291916151968123,0.00042984935492919004,1.7500575691244382e-05
-0.013211947521138174,0.0004233165776689852,1.7713867174393926e-05
-0.013425460100752823,0.00041665722576351245,1.792386062525205e-05
-0.013559066579752648,0.0004099110940933861,1.8130502705216275e-05
-0.01361374770518409,0.0004031178905221519,1.833375995137016e-05
-0.013592078524421822,0.0003963164339647504,1.8533618532491885e-05
-0.013498166198143527,0.00038954387278410904,1.8730083609179098e-05
-0.013337548231423827,0.0003828349441767172,1.8923178313419306e-05
-0.013117055634945037,0.000376221293210125,1.9112942372766016e-05
-0.012844646720057105,0.00036973086762137446,1.929943041297389e-05
-0.012529218076390538,0.00036338740142226257,1.94827099802348e-05
-0.012180399551732718,0.00035720999701523176,1.9662859329844173e-05
-0.011808339767223775,0.00035121281218549263,1.9839965032144356e-05
-0.011423487806668547,0.00034540485529201956,2.0014119449013735e-05
-0.011036375502668526,0.0003397898894646853,2.0185418135202912e-05
-0.010657404122347456,0.0003343664445584313,2.0353957218708692e-05
-0.010296639547938741,0.00032912793364085974,2.0519830813258516e-05
-0.009963620075334297,0.0003240628687350415,2.0683128513852492e-05
-0.009667179740050756,0.00031915516878119524,2.084393302323155e-05
-0.009415288505475254,0.00031438455171981373,2.1002317953356802e-05
-0.009214910195290948,0.00030972700204462216,2.115834584179791e-05
-0.009071879833944984,0.00030515530453731316,2.1312066418443396e-05
-0.008990803082720671,0.00030063963380814676,2.146351515302976e-05
-0.008974981147521455,0.0002961481877505862,2.161271210841944e-05
-0.009026364956734631,0.0002916478512245222,2.1759661118163218e-05
-0.009145542252014005,0.00028710487442233504,2.1904349299574934e-05
-0.009331759772975897,0.00028248554891608757,2.204674690540954e-05
-0.00958298007047006,0.0002777568639552261,2.218680750862737e-05
-0.00989596976908945,0.0002728871264953362,2.232446850624001e-05
-0.010266413951154957,0.0002678465305652751,2.2459651920505165e-05
-0.010689049572716665,0.0002626076646843072,2.259226546931756e-05
-0.011157809793447479,0.00025714594984276615,2.272220387294933e-05
-0.011665971698964973,0.00025144000446966305,2.2849350361527436e-05
-0.01220630196857098,0.00024547193605277905,2.2973578346658045e-05
-0.012771197347370812,0.0002392275612237936,2.3094753220977187e-05
-0.01335281865312851,0.00023269655722366877,2.321273425058905e-05
-0.01394321864962953,0.00022587254789797927,2.3327376526869463e-05
-0.014534464982350954,0.00021875312698998415,2.3438532945591455e-05
-0.015118758485319584,0.00021133982112306652,2.354605618261972e-05
-0.015688544985988637,0.00020363799525523947,2.3649800636714296e-05
-0.01623661737772954,0.00019565670466430992,2.3749624311694182e-05
-0.016756205504475295,0.00018740849894375872,2.38453906125962e-05
-0.017241053568072942,0.00017890918417562166,2.3936970033376045e-05
-0.01768548695801718,0.00017017754904409912,2.4024241716680975e-05
-0.01808447177515231,0.00016123505936080674,2.41070948687822e-05
-0.0184336702657456,0.00015210552385058225,2.418543001458505e-05
-0.018729493490762937,0.0001428147329114551,2.425916007877556e-05
-0.01896914947524758,0.0001333900721699525,2.432821128004591e-05
-0.019150682679630743,0.00012386011413123292,2.4392523826621205e-05
-0.019273000410678462,0.00011425419335865562,2.4452052403493677e-05
-0.019335883398401824,0.00010460197240638555,2.4506766444934936e-05
-0.01933997965308166,9.493300664351468e-05,2.455665018969741e-05
-0.019286781699564954,8.527631630535303e-05,2.4601702520434628e-05
-0.019178587240226832,7.565997407040508e-05,2.4641936593028567e-05
-0.019018443088693163,6.611071648817508e-05,2.4677379265668212e-05
-0.01881007307435876,5.66535874474121e-05,2.4708070341652107e-05
-0.018557792874805693,4.7311620960120984e-05,2.4734061643753992e-05
-0.01826641710407214,3.8105568465401523e-05,2.4755415941110374e-05
-0.017941164636508633,2.905367303025633e-05,2.4772205751484287e-05
-0.017587566504331197,2.017149024504637e-05,2.478451204230311e-05
-0.017211377857647658,1.1471754154551658e-05,2.479242285340301e-05
-0.016818492998679536,2.96428644046986e-06,2.4796031863551766e-05
-0.01641486129119702,-5.344052131999281e-06,2.4795436922128884e-05
-0.01600640174613636,-1.3449367891332625e-05,2.479073856712305e-05
-0.015598914763010936,-2.1350697018619448e-05,2.4782038550895563e-05
-0.015197990488080104,-2.904992333139221e-05,2.4769438395808062e-05
-0.014808914625665774,-3.655164960982868e-05,2.4753038002572756e-05
-0.01443657449111824,-4.386302188902468e-05,2.4732934334698043e-05
-0.014085370028814818,-5.099350801900795e-05,2.4709220202221034e-05
-0.013759135096488238,-5.7954634300333714e-05,2.46819831666412e-05
-0.01346107292511831,-6.475968630573535e-05,2.4651304586489682e-05
-0.01319370729763555,-7.142338136142381e-05,2.4617258819572892e-05
-0.012958849216675951,-7.796152049000169e-05,2.4579912594110035e-05
-0.012757578448372183,-8.439062740626373e-05,2.4539324557135968e-05
-0.012590240223868978,-9.072758207432402e-05,2.449554500476582e-05
-0.012456458991822595,-9.698925687824691e-05,2.4448615795027678e-05
-0.012355172612573621,-0.00010319216477934595,2.439857043961328e-05
-0.012284690902269295,-0.00010935213065805669,2.4345434365753928e-05
-0.012242781569266819,-0.00011548399877594072,2.4289225333395427e-05
-0.012226784327899257,-0.00012160139025023224,2.4229953986138883e-05
-0.012233750397562332,-0.00012771652393159765,2.4167624507593426e-05
-0.012260600394025323,-0.00013384011162949455,2.4102235348703153e-05
-0.01230429036690571,-0.00013998133431972732,2.4033779987215846e-05
-0.012361974580556219,-0.0001461479005565928,2.3962247678496766e-05
-0.01243115411524708,-0.00015234618273054362,2.3887624157674984e-05
-0.012509801035538651,-0.00015858142151824005,2.3809892256612787e-05
-0.01259644802096276,-0.0001648579837823654,2.3729032405287637e-05
-0.012690233934235875,-0.00017117965427116506,2.3645022995774255e-05
-0.012790898458738976,-0.00017754993736940878,2.355784059786411e-05
-0.012898724165456472,-0.00018397234302545764,2.3467460027765394e-05
-0.01301443076684094,-0.00019045063175853198,2.3373854284069396e-05
-0.01313903155568984,-0.00019698899733916467,2.327699437679497e-05
-0.013273664706122306,-0.0002035921714046177,2.3176849084609026e-05
-0.013419412610290997,-0.00021026544073372104,2.307338468157444e-05
-0.01357712175309799,-0.00021701457432456828,2.296656467780987e-05
-0.013747234076904494,-0.0002238456632820689,2.2856349618408208e-05
-0.013929638473641018,-0.0002307648814197053,2.2742696982232766e-05
-0.014123548996839532,-0.00023777817828732543,2.2625561217306007e-05
-0.014327415621509946,-0.0002448909194419128,2.2504893942873698e-05
-0.014538873030533415,-0.00025210749160492366,2.238064434011199e-05
-0.014754730854966688,-0.0002594308925762987,2.2252759744066683e-05
-0.014971004417648337,-0.00026686232639445246,2.2121186439323995e-05
-0.015182980090485939,-0.00027440082252148604,2.198587065209501e-05
-0.015385306078168636,-0.0002820428940636497,2.1846759722948726e-05
-0.015572098684856059,-0.00028978224525440585,2.1703803438119212e-05
-0.015737055427649194,-0.0002976095337825322,2.155695549335998e-05
-0.015873568489430424,-0.00030551218976180205,2.1406175062473894e-05
-0.015974833940678685,-0.00031347429036932933,2.1251428442441112e-05
-0.01603395387587602,-0.000321476487323468,2.109269074801791e-05
-0.01604403053260247,-0.0003294959834255876,2.0929947630330646e-05
-0.01599825346441809,-0.00033750655442484274,2.0763196995868038e-05
-0.015889982087319916,-0.0003454786133127772,2.0592450703933632e-05
-0.01571282560345326,-0.0003533793152354705,2.041773622179657e-05
-0.015460720553730095,-0.00036117270177476633,2.0239098217544013e-05
-0.015128004255439765,-0.0003688198829770588,2.0056600071356055e-05
-0.01470948156118963,-0.00037627925443121615,1.9870325287003985e-05
-0.014200483560991373,-0.0003835067457117614,1.968037878696824e-05
-0.013596919855576955,-0.0003904560965659035,1.9486888076398823e-05
-0.012895329583728184,-0.0003970791589257298,1.9290004262525913e-05
-0.012092938902855949,-0.0004033262260473758,1.9089902916282638e-05
-0.011187733150152849,-0.00040914639406062803,1.8886784761255638e-05
-0.010178549991614537,-0.00041448796484606985,1.8680876171528963e-05
-0.009065195353753473,-0.00041929890118241187,1.8472429455021843e-05
-0.007848578010492,-0.0004235273445234732,1.826172289359537e-05
-0.006530853977093511,-0.0004271222025203696,1.804906050683441e-05
-0.005115570036624327,-0.0004300338085237991,1.7834771504073367e-05
-0.0036077958572071998,-0.00043221464999725697,1.7619209389443103e-05
-0.002014234390179899,-0.00043362015755910374,1.7402750687554013e-05
-0.000343300279961907,-0.0004342095412266392,1.7185793262857578e-05
0.0013948431323615425,-0.0004339466555135393,1.6968754213672535e-05
0.0031882956903821575,-0.00043280087080785335,1.6752067332092187e-05
0.005023486617396165,-0.00043074792523090875,1.6536180133082498e-05
0.006885299162420324,-0.0004277707287859546,1.632155046957828e-05
0.008757257022895424,-0.0004238600897396257,1.6108642764946885e-05
0.010621774594971769,-0.0004190153318351589,1.589792390955319e-05
0.01246047076267553,-0.00041324477049574707,1.5689858883970464e-05
0.014254542478750297,-0.0004065660171853906,1.548490618705018e-05
0.015985189843804728,-0.00039900608410475184,1.5283513161727642e-05
0.017634078941209625,-0.00039060126690849826,1.508611132397433e-05
0.01918382332710908,-0.0003813967913414186,1.4893111809411852e-05
0.020618461500961933,-0.00037144622013440083,1.4704901056542896e-05
0.021923907109869495,-0.000360810627981693,1.4521836844513874e-05
0.02308835103196971,-0.0003495575634462332,1.4344244796656892e-05
0.02410259899435447,-0.00033775982593965215,1.417241544931042e-05
0.024960333837677363,-0.0003254940927316442,1.4006601969642596e-05
0.025658296176493817,-0.0003128394352281014,1.384701858765266e-05
0.02619637923826716,-0.00029987576637441115,1.3693839787252033e-05
0.02657763326743324,-0.00028668226324798604,1.3547200279846433e-05
0.026808174713422908,-0.000273335811252772,1.3407195761221243e-05
0.026896998224001625,-0.0002599095180184158,1.3273884428903445e-05
0.026855695463263725,-0.00024647134459659947,1.3147289213249691e-05
0.026698091724748785,-0.00023308289779959635,1.3027400652650643e-05
0.02643981678021834,-0.00021979842067335458,1.2914180323032406e-05
0.02609782961555322,-0.0002066640090744117,1.2807564715595464e-05
0.0256899180352935,-0.00019371707216170003,1.2707469445286437e-05
0.025234193682014818,-0.00018098604423237295,1.2613793666187918e-05
0.024748600794331155,-0.00016849034561328645,1.2526424568726503e-05
0.024250453807890218,-0.0001562405819627311,1.2445241836832498e-05
0.023756016020558036,-0.00014423896450561905,1.237012195021541e-05
0.023280129712200646,-0.00013247992807242936,1.2300942227070898e-05
0.022835906929395914,-0.00012095091891203022,1.2237584515324783e-05
0.022434488689433565,-0.00010963332000732284,1.2179938455594945e-05
0.02208487813115212,-9.850347830217642e-05,1.212790425601757e-05
0.021793850350040722,-8.75337961818782e-05,1.2081394937396558e-05
0.021565938536219915,-7.669384896031304e-05,1.204033802611101e-05
0.021403492470234722,-6.595149120869939e-05,1.2004676691068757e-05
0.021306801654950976,-5.5273917677402964e-05,1.1974370338847231e-05
0.02127427224782471,-4.462864920170904e-05,1.1949394697127453e-05
0.021302644931604383,-3.398441990685177e-05,1.1929741429850312e-05
0.02138723937695315,-2.3311948829712385e-05,1.1915417337666172e-05
0.021522210057988905,-1.258458647097687e-05,1.1906443203840999e-05
0.021700799463433524,-1.7788340906212635e-06,1.1902852348700599e-05
0.02191557892340625,9.12526050608868e-06,1.1904688955304466e-05
0.022158672057868794,2.014382325140744e-05,1.191200622624384e-05
0.022421958220797,3.128898082107389e-05,1.192486442726196e-05
0.022697252863622272,4.256878359217871e-05,1.1943328868365273e-05
0.022976460618751054,5.398721196277204e-05,1.196746786725401e-05
0.023251697434709322,6.554425147613714e-05,1.1997350733113737e-05
0.02351538084707016,7.7236021046582e-05,1.2033045801244418e-05
0.02376029120894582,8.9054939060586e-05,1.207461854127121e-05
0.023979610132652058,0.00010098991439598546,1.2122129754635352e-05
0.024166945028766255,0.00011302655318634004,1.2175633871530933e-05
0.02431634987508718,0.00012514737691230338,1.2235177354055594e-05
0.024422351234621473,0.00013733205218973056,1.2300797211331103e-05
0.02447998479918134,0.00014955763619818127,1.2372519633428081e-05
0.024484842562513986,0.0001617988430386051,1.2450358753237278e-05
0.024433126553591273,0.00017402833531763142,1.2534315547826337e-05
0.02432170406230586,0.0001862170429716057,1.2624376892398646e-05
0.02414816123122781,0.00019833450929498912,1.2720514780465295e-05
0.023910854089364747,0.00021034926312513727,1.2822685723570327e-05
0.023608956357768877,0.00022222921573692068,1.2930830343285842e-05
0.023242501828011308,0.00023394208028336573,1.3044873167290913e-05
0.022812417095764235,0.00024545581001430964,1.3164722639865332e-05
0.022320538874900344,0.0002567390490069758,1.3290271354620653e-05
0.02176960965759313,0.00026776158614009917,1.3421396513407422e-05
0.021163246511125264,0.0002784948001822788,1.3557960609988018e-05
0.020505880153305525,0.00028891208184838647,1.3699812330495685e-05
0.01980266466464569,0.00029898921805287425,1.3846787655471e-05
0.019059361970387857,0.00030870472471163264,1.3998711141162127e-05
0.018282208935558538,0.00031804011743811924,1.4155397351699566e-05
0.017477776970383857,0.00032698011391460484,1.4316652409537747e-05
0.016652832920702278,0.00033551276638737635,1.4482275629613242e-05
0.015814206161492626,0.0003436295261579251,1.4652061202749567e-05
0.01496866261499976,0.0003513252433520482,1.482579989512706e-05
0.014122784060818946,0.00035859810502100286,1.5003280732220323e-05
0.013282850810788364,0.0003654495137389047,1.51842926369103e-05
0.012454726404271787,0.00037188390804266975,1.5368625992355692e-05
