acceleration,velocity,displacement
0.031989224813086435,0.0,0.0
0.03143138671066888,1.5855152880938828e-05,3.9637882202347075e-09
0.030865621349212054,3.1429404895909064e-05,1.5784927664446683e-08
0.030293200025527114,4.671911023959386e-05,3.532205644832241e-08
0.02971530966273979,6.172123766166059e-05,6.243214342363603e-08
0.029133056399853956,7.643332917730902e-05,9.697078513337843e-08
0.028547469983894395,9.08534607732461e-05,1.387924826210172e-07
0.02795950868817476,0.0001049802054412634,1.877508991746446e-07
0.027370064474653222,0.00011881259873197039,2.43699100217953e-07
0.02677996815096231,0.00013235010688837428,3.064897766230392e-07
0.02618999432633478,0.00014559259750769856,3.759754527220574e-07
0.025600866035758955,0.000158540312598222,4.5200868024853753e-07
0.02501325896996052,0.00017119384384965187,5.34442219360506e-07
0.02442780529792823,0.00018355410991662406,6.23129207802075e-07
0.02384509707718771,0.00019562233551040305,7.179233191588317e-07
0.02326568922010514,0.00020740003208472626,8.186789110576141e-07
0.022690101948743713,0.00021888897987693847,9.252511640480302e-07
0.022118822650750075,0.0002300912110268119,1.0374962117739678e-06
0.021552307058592873,0.00024100899345414766,1.1552712628942077e-06
0.020990979717368994,0.00025164481514813815,1.2784347150447792e-06
0.020435233768127916,0.00026200136851951237,1.4068462609616919e-06
0.01988543012832071,0.0002720815344936245,1.540366986714976e-06
0.019341896181408583,0.0002818883660710568,1.6788594618561463e-06
0.01880492409963214,0.000291425071141317,1.8221878211592397e-06
0.018274768937880798,0.00030069499440069525,1.970217837544743e-06
0.017751646661788367,0.00030970159830061257,2.12281698572007e-06
0.017235732294707647,0.00031844844303973655,2.279854496055157e-06
0.01672715836659121,0.00032693916570506127,2.4412013982413568e-06
0.016226013822224394,0.00033517745875226516,2.6067305543556882e-06
0.015732343507352205,0.0003431670480846593,2.7763166810649194e-06
0.01524614830248656,0.000350911671037119,2.949836360845364e-06
0.014767385915028216,0.0003584150545914977,3.1271680422525185e-06
0.01429597227719812,0.0003656808941395543,3.3081920294352815e-06
0.013831783440368069,0.00037271283306894584,3.4927904612374067e-06
0.013374657818414962,0.0003795144433836416,3.6808472803505534e-06
0.012924398628884504,0.0003860892074954665,3.872248193070331e-06
0.012480776411282604,0.00039244050125550827,4.066880620258074e-06
0.012043531542177908,0.0003985715782438734,4.26463364013292e-06
0.011612376694745267,0.0004044855553031042,4.465397923519664e-06
0.011186999209664405,0.00041018539927920657,4.669065662165242e-06
0.010767063373692163,0.0004156739149250457,4.875530490716305e-06
0.010352212649089325,0.00042095373393074106,5.084687402930252e-06
0.009942071945693826,0.00042602730507943686,5.2964326626827966e-06
0.009536250048525293,0.00043089688557799164,5.510663710347153e-06
0.009134342292024327,0.00043556453366312903,5.727279065157434e-06
0.008735933521373872,0.0004400321026164786,5.946178224227336e-06
0.008340601329292338,0.00044430123632914514,6.167261558963741e-06
0.00794791951931156,0.00044837336654129613,6.390430209681351e-06
0.0075574617251300555,0.00045224971185240656,6.6155859792797766e-06
0.007168805109563388,0.00045593127856107993,6.842631226883148e-06
0.006781534079721989,0.0004594188633584013,7.071468762363018e-06
0.006395243983882212,0.0004627130578743023,7.3020017426711935e-06
0.006009544783177026,0.0004658142550660671,7.5341335709062855e-06
0.005624064702543202,0.00046872265743749716,7.767767799032176e-06
0.005238453860147933,0.00047143828707816996,8.002808035161092e-06
0.004852387859841391,0.0004739609975081673,8.239157856307677e-06
0.0044655713132898565,0.00047629048730145015,8.47672072751008e-06
0.004077741246832169,0.00047842631544148066,8.715399928195814e-06
0.00368867035036184,0.00048036791834077917,8.955098486641378e-06
0.003298170034527398,0.0004821146284370015,9.195719123335823e-06
0.0029060932642156465,0.00048366569426168724,9.437164204010496e-06
0.002512337131583121,0.0004850203018606369,9.679335703041076e-06
0.0021168451343237453,0.00048617759742711366,9.922135177863014e-06
0.001719609139756343,0.00048713671099563367,1.01654637549687e-05
0.001320671032579623,0.0004878967810387177,1.0409222127977289e-05
0.0009201240496622887,0.0004884569798092782,1.0653310568189287e-05
0.0005181137950894763,0.0004888165392704661,1.0897628947959222e-05
0.00011483891107774207,0.0004889747774470079,1.1142076777138591e-05
-0.0002894486353453382,0.000488931125015941,1.1386553252754328e-05
-0.0006944436993796194,0.0004886851519322598,1.1630957321991379e-05
-0.0010997885889230986,0.00048823659386018414,1.187518775843949e-05
-0.0015050742192439619,0.00048758537815814235,1.2119143251444071e-05
-0.0019098418239281041,0.00048673164914734933,1.2362722508270444e-05
-0.002313585259365247,0.00048567579237652597,1.2605824368651413e-05
-0.00271575396219916,0.00048441845757113487,1.2848347931138329e-05
-0.0031157566441877625,0.0004829605799195381,1.3090192690510996e-05
-0.0035129658143099145,0.0004813033993049137,1.333125868531711e-05
-0.003906723191367369,0.0004794484770534944,1.357144665440671e-05
-0.004296346021355877,0.0004773977097503136,1.3810658201107663e-05
-0.0046811342615544205,0.000475153339679586,1.4048795963465139e-05
-0.0050603785458875235,0.00047271796147772556,1.4285763788754467e-05
-0.005433368804706258,0.0004700945246400771,1.4521466910283918e-05
-0.005799403383016797,0.00046728633159314636,1.4755812124342224e-05
-0.006157798485790874,0.00046429703112594445,1.4988707965021996e-05
-0.006507897767582666,0.00046113060706260106,1.5220064874569133e-05
-0.006849081874145593,0.000457791362152169,1.5449795366872824e-05
-0.0071807777486284485,0.0004542838972464755,1.5677814181722485e-05
-0.007502467537232571,0.00045061308592501026,1.5904038427515356e-05
-0.00781369695083481,0.00044678404480299344,1.6128387710197357e-05
-0.008114082944854438,0.0004428020998290711,1.6350784246355374e-05
-0.008403320576560395,0.0004386727489487174,1.6571152958549822e-05
-0.008681188897792257,0.0004344016215801293,1.6789421551182035e-05
-0.008947555736451203,0.00042999443542156843,1.700552056543246e-05
-0.009202381207523213,0.0004254569511855748,1.7219383412084246e-05
-0.009445719790565946,0.0004207949259360525,1.7430946381364653e-05
-0.00967772083715271,0.00041601406577912285,1.7640148629293447e-05
-0.009898627429027577,0.00041111997871257777,1.7846932140416373e-05
-0.010108773574919976,0.0004061181284615909,1.8051241667209916e-05
-0.01030857978887956,0.000401013790120641,1.8253024646855472e-05
-0.010498547129113132,0.0003958120083911428,1.845223109648342e-05
-0.010679249803679949,0.00039051755915794456,1.8648813488370692e-05
-0.010851326478594821,0.00038513491508737586,1.8842726606932022e-05
-0.011015470454049346,0.0003796682158542148,1.903392738966742e-05
-0.01117241889889925,0.00037412124351597766,1.9222374754509966e-05
-0.011322941349148272,0.0003684974034539658,1.9408029416252452e-05
-0.011467827682825902,0.00036279971119597225,1.9590853694914938e-05
-0.011607875780574635,0.0003570307853301221,1.9770811319046463e-05
-0.011743879071914739,0.00035119284661699977,1.9947867227033245e-05
-0.011876614162998992,0.00034528772330827135,2.012198736951456e-05
-0.012006828746650594,0.00033931686258085894,2.0293138515986845e-05
-0.012135229994664702,0.00033328134789553014,2.0461288068605942e-05
-0.01226247361333703,0.0003271819219935297,2.0626403886078206e-05
-0.012389153717225623,0.00032101901516088906,2.078845412036681e-05
-0.012515793662070602,0.000314792778316065,2.094740706873605e-05
-0.012642837977218551,0.0003085031204062427,2.1103231043416628e-05
-0.012770645538395563,0.00030214974952733916,2.1255894260900023e-05
-0.012899484116128034,0.00029573221711370824,2.1405364752560284e-05
-0.01302952642465777,0.0002892499644785118,2.155161029795834e-05
-0.013160847777184102,0.0002827023709280513,2.169459838180998e-05
-0.013293425416703414,0.0002760888026295794,2.1834296175199388e-05
-0.013427139539459917,0.0002694086613905386,2.1970670541204418e-05
-0.013561775974569722,0.00026266143251203115,2.210368806468006e-05
-0.013697030436973099,0.00025584673090914544,2.2233315105535352e-05
-0.013832514229676511,0.00024896434474248305,2.2359517874448258e-05
-0.013967761239824515,0.00024201427587510778,2.2482262529602657e-05
-0.01410223606318175,0.00023499677654935622,2.2601515292708774e-05
-0.014235343101443912,0.0002279123817581998,2.2717242582285662e-05
-0.01436643649091986,0.00022076193686010884,2.282941116194024e-05
-0.014494830731293675,0.00021354662005455545,2.2937988301168907e-05
-0.014619811891711854,0.00020626795939880408,2.304294194603225e-05
-0.014740649272489848,0.00019892784410775364,2.3144240896908887e-05
-0.014856607381710513,0.00019152852994420354,2.3241854990421876e-05
-0.014966958052598166,0.00018407263858562638,2.3335755282554333e-05
-0.015070992506890792,0.00017656315094575413,2.3425914229937177e-05
-0.015168033177935171,0.00016900339452454764,2.351230586630475e-05
-0.015257445135560137,0.00016139702494617382,2.3594905971172433e-05
-0.015338646985600033,0.00015374800191588379,2.3673692227887948e-05
-0.015411121139460308,0.0001460605598846187,2.3748644368338073e-05
-0.015474423355569583,0.00013833917376086121,2.381974430174944e-05
-0.015528191439604752,0.00013058852006206763,2.3886976225205174e-05
-0.015572152962088779,0.00012281343396164425,2.39503267137111e-05
-0.015606131833783083,0.00011501886276267629,2.400978478789218e-05
-0.015630053590065977,0.00010720981640671403,2.4065341957684527e-05
-0.015643949270618067,9.939131569154301e-05,2.4116992240709092e-05
-0.015647957820345247,9.156833891880219e-05,2.416473215436168e-05
-0.01564232696626965,8.374576772214847e-05,2.4208560681021918e-05
-0.01562741254141326,7.592833284522775e-05,2.4248479206163763e-05
-0.015603676241115727,6.812056064959551e-05,2.4284491429537468e-05
-0.01557168182519948,6.03267211330167e-05,2.431660324998312e-05
-0.015532089824840415,5.255077822050673e-05,2.4344822624821502e-05
-0.015485650859493494,4.4796343049423255e-05,2.4369159405138984e-05
-0.015433197693271656,3.7066630911231964e-05,2.438962514862915e-05
-0.015375636154361149,2.936442244932376e-05,2.4406232911969286e-05
-0.015313935018937488,2.16920296559991e-05,2.4418997024995617e-05
-0.015249114942528195,1.405126716563268e-05,2.4427932849201024e-05
-0.015182236517953224,6.443429300512325e-06,2.443305652331756e-05
-0.015114387549162348,-1.130726716266568e-06,2.443438469896362e-05
-0.015046669647569958,-8.670991015449645e-06,2.443193426953069e-05
-0.014980184277043816,-1.6177704496603088e-05,2.442572209565268e-05
-0.01491601839671376,-2.3651755165042482e-05,2.4415764730737267e-05
-0.014855229879419979,-3.109456723407592e-05,2.440207815013749e-05
-0.014798832910499351,-3.850808293155575e-05,2.4384677487596082e-05
-0.01474778357971752,-4.589473705410997e-05,2.4363576782599665e-05
-0.014702965860746474,-5.325742441422597e-05,2.433878874223258e-05
-0.01466517814040767,-6.0599460414514504e-05,2.4310324521025398e-05
-0.014635120433812791,-6.792453505806962e-05,2.4278193522157253e-05
-0.014613382411777861,-7.523666076946728e-05,2.424240322320037e-05
-0.0146004323720708,-8.254011446542945e-05,2.4202959029391647e-05
-0.014596607299271262,-8.983937438326497e-05,2.4159864157179473e-05
-0.014602104168809861,-9.713905225028525e-05,2.4113119550521085e-05
-0.014616972648244084,-0.00010444382145454874,2.4062723832094876e-05
-0.014641109328101774,-0.0001117583419486352,2.4008673291244082e-05
-0.014674253575583652,-0.00011908718267455656,2.3950961910088284e-05
-0.014715985048213923,-0.00012643474233050596,2.3889581428837017e-05
-0.014765722839946226,-0.000133805169302546,2.3824521450928753e-05
-0.014822726179347606,-0.00014120228155736945,2.3755769588213776e-05
-0.014886096572940042,-0.00014862948724544137,2.3683311646013073e-05
-0.014954781280732127,-0.00015608970670885942,2.36071318475245e-05
-0.015027578007251616,-0.00016358529653085534,2.352721309671457e-05
-0.015103140680977348,-0.0001711179762029126,2.344353727853113e-05
-0.015179986190108543,-0.00017868875792068407,2.335608559500023e-05
-0.015256501963923266,-0.00018629787995919203,2.326483893553026e-05
-0.015330954342897425,-0.0001939447440358972,2.3169778279531487e-05
-0.015401497749578483,-0.00020162785705901616,2.3070885129257758e-05
-0.015466184726419722,-0.00020934477767801571,2.29681419705735e-05
-0.015522976928691522,-0.00021709206809179352,2.2861532759131048e-05
-0.015569757155013282,-0.0002248652516127197,2.275104342920492e-05
-0.015604342477933917,-0.0002326587765209565,2.2636662422171503e-05
-0.015624498505993241,-0.0002404659867669383,2.251838123134953e-05
-0.015627954768472948,-0.0002482791000855548,2.2396194959636404e-05
-0.015612421177659257,-0.00025608919407208786,2.2270102886096993e-05
-0.015575605503920394,-0.00026388620074248276,2.214010903739335e-05
-0.015515231785328902,-0.0002716589100647951,2.200622275969153e-05
-0.015429059559326105,-0.00027939498290095884,2.1868459286450094e-05
-0.015314903741196626,-0.0002870809737260895,2.172684029729333e-05
-0.015170654905445603,-0.00029470236338775005,2.158139446301487e-05
-0.014994299679574451,-0.00030224360203400506,2.1432157971659433e-05
-0.014783940946770081,-0.00030968816219059116,2.1279175030603283e-05
-0.014537817568782764,-0.00031701860181947936,2.1122498339600765e-05
-0.014254323367075423,-0.0003242166370534439,2.0962189529882535e-05
-0.013932025126508188,-0.0003312632241768398,2.0798319564574963e-05
-0.01356967941109411,-0.0003381386503112404,2.0630969095952944e-05
-0.013166248011160998,-0.00034482263216680415,2.0460228775333432e-05
-0.012720911874078982,-0.00035129442213811417,2.02861995117572e-05
-0.012233083395946693,-0.0003575329209556206,2.0108992675983766e-05
-0.011702416959063457,-0.00036351679604437314,1.992873024673377e-05
-0.011128817591172437,-0.0003692246046819321,1.9745544896552194e-05
-0.010512447612429648,-0.00037463492098283263,1.9559580015136e-05
-0.009853731142685085,-0.00037972646567161134,1.937098966847239e-05
-0.009153356375377253,-0.00038447823755112694,1.9179938492666705e-05
-0.008412275582597852,-0.0003888696455406207,1.898660152189377e-05
-0.00763170288242939,-0.0003928806401568775,1.8791163950469395e-05
-0.006813109854188878,-0.00039649184334103205,1.8593820829594917e-05
-0.005958219117412142,-0.0003996846755839323,1.8394776699863676e-05
-0.005068995990254843,-0.00040244147936084905,1.8194245161127482e-05
-0.004147638310352666,-0.00040474563793600093,1.799244838180327e-05
-0.0031965644507463203,-0.0004065816886262757,1.7789616550162702e-05
-0.0022183995279885568,-0.0004079354296209594,1.7585987270600892e-05
-0.0012159598001534207,-0.0004087940194529949,1.7381804908332404e-05
-0.00019223527700024335,-0.00040914606822228333,1.7177319886413584e-05
0.0008496294110238212,-0.0004089817196887774,1.6972787939435818e-05
0.0019063558177609208,-0.00040829272338158124,1.6768469328668227e-05
0.002974554064406344,-0.0004070724959110394,1.6564628023845072e-05
0.004050746664494339,-0.00040531617072881424,1.636153085718511e-05
0.005131393615648406,-0.00040302063565877857,1.615944665558821e-05
0.006212918556350206,-0.0004001845576157789,1.595864535726957e-05
0.007291735768742127,-0.00039680839403450583,1.5759397119356997e-05
0.008364277788673663,-0.0003928943906451519,1.556197142318708e-05
0.009427023354485111,-0.00038844656535936216,1.5366636184185954e-05
0.010476525385772104,-0.0003834706781742979,1.5173656873302539e-05
0.01150943863310078,-0.00037797418716957964,1.498329565696657e-05
0.012522546581618147,-0.0003719661908658999,1.47958105624577e-05
0.013512787138260223,-0.0003654573574359303,1.4611454675382242e-05
0.014477276605106577,-0.0003584598415000886,1.4430475375648238e-05
0.015413331455553132,-0.0003509871894849237,1.4253113617901985e-05
0.01631848748462342,-0.00034305423474987955,1.4079603261843285e-05
0.01719051598881907,-0.0003346769838815189,1.3910170457185434e-05
0.018027436729176304,-0.00032587249570202007,1.3745033087289549e-05
0.01882752752077869,-0.0003166587546395313,1.358440027470416e-05
0.01958933034981527,-0.00030705454017188283,1.3428471951001308e-05
0.020311653946975625,-0.0002970792940976851,1.3277438492433915e-05
0.02099357277665071,-0.00028675298741677853,1.31314804220553e-05
0.021634422469264256,-0.0002760959886052998,1.299076817804978e-05
0.022233791831303553,-0.00026512893503015785,1.2855461947140916e-05
0.022791511685378376,-0.00025387260915098734,1.272571156109563e-05
0.023307640889493244,-0.00024234782100726943,1.2601656453556066e-05
0.0237824499504175,-0.00023057529829729174,1.2483425673729926e-05
0.02421640268488439,-0.00021857558513846626,1.2371137952870987e-05
0.024610136395500692,-0.00020636895036836998,1.2264901818994277e-05
0.02496444101517579,-0.00019397530601570086,1.216481575489826e-05
0.025280237644320917,-0.00018141413635082667,1.2070968394306628e-05
0.025558556875856175,-0.0001687044377207824,1.1983438750788725e-05
0.02580051728319913,-0.0001558646691810186,1.1902296474063275e-05
0.0260073044308664,-0.0001429127137525022,1.1827602128329895e-05
0.026180150744448977,-0.00012986584995867335,1.1759407487402101e-05
0.026320316540487408,-0.00011674073313743926,1.1697755841628073e-05
0.026429072470022456,-0.00010355338588481179,1.164268231187251e-05
0.026507683575615205,-9.031919687340237e-05,1.1594214166182956e-05
0.02655739509933158,-7.705292720466567e-05,1.155237113516344e-05
0.026579420111855344,-6.376872340186894e-05,1.1517165722511806e-05
0.026574928972056953,-5.0480136130890866e-05,1.1488603507628616e-05
0.026545040577877908,-3.720014374340715e-05,1.1466683437660042e-05
0.026490815326704883,-2.3941179767261447e-05,1.1451398106782375e-05
0.026413249667703653,-1.0715163518659313e-05,1.1442734020960895e-05
0.026313272120207894,2.4664669283185737e-06,1.144067184681331e-05
0.026191740660847992,1.5592720123582546e-05,1.1445186643576284e-05
0.026049441419038578,2.8653015643554186e-05,1.1456248077518069e-05
0.025887088627700998,4.163714815523908e-05,1.1473820618467767e-05
0.025705325748969353,5.453525174940667e-05,1.149786371844393e-05
0.025504727660514037,6.733776510177752e-05,1.1528331972656725e-05
0.025285803776809553,8.003539796110842e-05,1.1565175263422446e-05
0.025049001998421354,9.261909940491614e-05,1.1608338887763952e-05
0.024794713415831372,0.00010508002825847933,1.16577636696798e-05
0.024523277726043208,0.00011740952604394797,1.1713386058255408e-05
0.02423498934422437,0.00012959909281151487,1.1775138212969274e-05
0.023930104201396858,0.00014164036619792017,1.1842948077721633e-05
0.023608847200419163,0.00015352510404837417,1.1916739445283207e-05
0.023271420252741863,0.00016524517091166444,1.1996432014023217e-05
0.02291801075276639,0.0001767925286630415,1.2081941438916894e-05
0.02254880029579569,0.00018815923142518202,1.2173179378938949e-05
0.022163973436976174,0.000199337424858375,1.2270053543009838e-05
0.021763726319099192,0.00021031934979739384,1.237246773667378e-05
0.021348275032631123,0.00022109735013532643,1.248032191165696e-05
0.020917863583641425,0.00023166388478939456,1.259351222038814e-05
0.020472771336317187,0.00024201154351938421,1.2711931077465335e-05
0.02001331978265588,0.00025213306629912746,1.2835467229919962e-05
0.019539878484480945,0.00026202136586591165,1.2964005837961221e-05
0.019052870040034676,0.00027166955299704057,1.3097428567676959e-05
0.018552773953671036,0.000281070963995467,1.3235613696925087e-05
0.01804012933039712,0.00029021918981648407,1.3378436235378075e-05
0.01751553637113494,0.0002991081062418671,1.3525768059392662e-05
0.016979656705422813,0.00030773190451100657,1.367747806208088e-05
0.016433212657901496,0.00031608512185183767,1.383343231867159e-05
0.015876985582828972,0.0003241626714120203,1.3993494266987556e-05
0.015311813397758188,0.00033195987115716707,1.4157524902629852e-05
0.01473858740876469,0.0003394724713587978,1.4325382988258843e-05
0.014158248475514904,0.0003466966803298677,1.449692527618101e-05
0.013571782542538015,0.0003536291880843809,1.4672006743284572e-05
0.01298021556600007,0.00036026718761151546,1.4850480837208546e-05
