frame_number,force
0,719.9904571024255
1,719.9496484710427
2,719.908259921238
3,719.8663844546955
4,719.8241089007446
5,719.7815141789542
6,719.7386756204404
7,719.6956633276616
8,719.6525425520708
9,719.6093740713782
10,719.5662145521012
11,719.523116887845
12,719.4801305087466
13,719.4373016611112
14,719.3946736568912
15,719.3522870906859
16,719.3101800193263
17,719.2683880976425
18,719.2269446647311
19,719.1858807781773
20,719.1452251982039
21,719.1050043277173
22,719.0652421164459
23,719.0259599382421
24,718.9871764516394
25,718.9489074555979
26,718.9111657539464
27,718.87396104191
28,718.837299826242
29,718.8011853876317
30,718.7656177904929
31,718.7305939409117
32,718.696107688912
33,718.6621499670351
34,718.6287089544527
35,718.5957702555495
36,718.5633170841493
37,718.5313304475069
38,718.4997893262362
39,718.468670847753
40,718.437950452964
41,718.4076020593604
42,718.3775982272317
43,718.3479103372564
44,718.3185087861364
45,718.2893632032321
46,718.2604426873504
47,718.2317160601
48,718.2031521306656
49,718.1747199664043
50,718.1463891646295
51,718.1181301230552
52,718.0899143083985
53,718.0617145234648
54,718.033505172658
55,718.0052625247864
56,717.9769649707245
57,717.948593272641
58,717.9201308016713
59,717.8915637615665
60,717.8628813959768
61,717.8340761766817
62,717.8051439702565
63,717.7760841817551
64,717.7468998752515
65,717.7175978714864
66,717.6881888221227
67,717.6586872588264
68,717.6291116142386
69,717.599484211219
70,717.5698312167236
71,717.5401825573351
72,717.5105717940982
73,717.4810359539349
74,717.4516153132929
75,717.4223531278476
76,717.3932953016878
77,717.3644899913568
78,717.3359871437054
79,717.3078379703402
80,717.2800943649172
81,717.2528082725626
82,717.2260310228285
83,717.1998126387218
84,717.1742011351761
85,717.1492418210345
86,717.1249766182556
87,717.1014434104201
88,717.0786754310366
89,717.0567007017211
90,717.0355415305509
91,717.0152140809827
92,716.9957280220628
93,716.9770862715785
94,716.9592848440791
95,716.9423128137543
96,716.9261523979656
97,716.9107791623134
98,716.8961623441037
99,716.8822652884369
100,716.8690459891378
101,716.8564577246113
102,716.8444497765006
103,716.8329682172377
104,716.8219567514371
105,716.8113575955928
106,716.8011123807677
107,716.7911630636466
108,716.7814528316275
109,716.7719269872617
110,716.7625337974158
111,716.7532252939133
112,716.7439580143196
113,716.7346936725596
114,716.725399749101
115,716.7160499903997
116,716.70662480771
117,716.6971115661262
118,716.6875047561132
119,716.677806042459
120,716.6680241894042
121,716.6581748646139
122,716.6482803280536
123,716.6383690148414
124,716.6284750234506
125,716.6186375213638
126,716.6089000795588
127,716.5993099461766
128,716.5899172689744
129,716.5807742755446
130,716.571934420203
131,716.5634515078409
132,716.5553788074793
133,716.5477681697729
134,716.540669162092
135,716.5341282327361
136,716.5281879135798
137,716.5228860688029
138,716.5182551968855
139,716.5143217941437
140,716.5111057901485
141,716.5086200667033
142,716.5068700712657
143,716.5058535331285
144,716.505560287781
145,716.5059722127595
146,716.5070632771088
147,716.5087997055189
148,716.5111402561549
149,716.5140366078766
150,716.5174338491379
151,716.5212710591024
152,716.5254819719337
153,716.5299957168365
154,716.5347376277833
155,716.5396301171348
156,716.5445936066224
157,716.5495475078925
158,716.5544112433856
159,716.5591052966358
160,716.5635522789839
161,716.5676779977289
162,716.5714125101496
163,716.5746911491758
164,716.5774555088411
165,716.5796543795589
166,716.5812446239763
167,716.5821919837829
168,716.5824718068807
169,716.5820696835374
170,716.5809819803242
171,716.5792162621582
172,716.5767915956249
173,716.5737387308667
174,716.5701001640499
175,716.5659300862887
176,716.5612942268494
177,716.5562695988978
178,716.5509441563266
179,716.545416370962
180,716.5397947398078
181,716.5341972304318
182,716.5287506686499
183,716.523590067631
184,716.5188578935795
185,716.5147032615494
186,716.5112810553507
187,716.5087509669823
188,716.5072764532916
189,716.5070236105029
190,716.5081599699212
191,716.5108532195436
192,716.5152698573038
193,716.52157378418
194,716.5299248499857
195,716.5404773696864
196,716.553378631493
197,716.5687674189351
198,716.5867725680338
199,716.6075115787369
200,716.6310892978594
201,716.6575966889275
202,716.6871097021418
203,716.7196882552755
204,716.7553753344762
205,716.7941962233974
206,716.8361578697321
207,716.8812483989536
208,716.9294367845857
209,716.9806726818559
210,717.034886427325
211,717.0919892022172
212,717.1518733531872
213,717.2144128620491
214,717.2794639560062
215,717.3468658523053
216,717.4164416349316
217,717.4879992635543
218,717.5613327148898
219,717.6362232548544
220,717.7124408380923
221,717.7897456299631
222,717.867889643974
223,717.9466184846959
224,718.0256731833504
225,718.1047921113066
226,718.183712955471
227,718.2621747380998
228,718.3399198613909
229,718.4166961542699
230,718.4922588951044
231,718.566372779837
232,718.6388138011318
233,718.7093710021451
234,718.7778480695602
235,718.8440647345283
236,718.907857956305
237,718.969082870562
238,719.0276134909083
239,719.0833431563825
240,719.1361847197104
241,719.1860704733593
242,719.2329518153908
243,719.2767986649545
244,719.317598645883
245,719.3553560639319
246,719.3900907080168
247,719.4218365086383
248,719.4506400876514
249,719.476559232577
250,719.4996613264907
251,719.52002176239
252,719.5377223694832
253,719.5528498777105
254,719.565494445133
255,719.5757482701733
256,719.5837043072742
257,719.58945510059
258,719.5930917457708
259,719.5947029849698
260,719.5943744357586
261,719.5921879510861
262,719.5882211042946
263,719.582546790596
264,719.5752329357972
265,719.5663423051556
266,719.5559324079472
267,719.5440554938624
268,719.5307586353562
269,719.516083887589
270,719.5000685167632
271,719.4827452890326
272,719.4641428146107
273,719.4442859440228
274,719.4231962152026
275,719.400892350777
276,719.3773908035087
277,719.3527063442243
278,719.3268526817563
279,719.2998431007043
280,719.2716911021948
281,719.2424110350487
282,719.2120187073581
283,719.1805319693805
284,719.1479712579954
285,719.1143600919414
286,719.0797255065037
287,719.0440984168453
288,719.0075139010943
289,718.970011397463
290,718.9316348136339
291,718.8924325510978
292,718.8524574514946
293,718.8117666747739
294,718.7704215187719
295,718.7284871869604
296,718.6860325079031
297,718.6431296083455
298,718.5998535420833
299,718.5562818776907
300,718.5124942492738
301,718.4685718760941
302,718.4245970592298
303,718.380652665408
304,718.3368216090254
305,718.2931863435879
306,718.2498283738388
307,718.206827799322
308,718.1642628981275
309,718.1222097556756
310,718.0807419383547
311,718.0399302071595
312,717.9998422636412
313,717.9605425201048
314,717.9220918874993
315,717.884547576202
316,717.847962905426
317,717.8123871162246
318,717.7778651825337
319,717.7444376160197
320,717.7121402639984
321,717.6810041042129
322,717.6510550442378
323,717.6223137357825
324,717.5947954149322
325,717.568509778123
326,717.5434609003355
327,717.5196471977407
328,717.4970614339163
329,717.4756907679143
330,717.4555168433502
331,717.4365159187179
332,717.4186590391535
333,717.4019122489989
334,717.3862368438706
335,717.3715896613644
336,717.3579234107356
337,717.3451870427373
338,717.3333261604033
339,717.3222834701244
340,717.3119992707356
341,717.3024119770532
342,717.2934586733293
343,717.2850756912254
344,717.2771992063573
345,717.2697658478252
346,717.2627133168243
347,717.2559810127137
348,717.2495106662321
349,717.2432469785988
350,717.2371382618281
351,717.2311370703873
352,717.2252008084153
353,717.2192922914892
354,717.2133802390796
355,717.2074396748743
356,717.201452217405
357,717.1954062515476
358,717.1892969798063
359,717.1831263583515
360,717.1769029261097
361,717.170641537007
362,717.1643630066902
363,717.1580936853454
364,717.1518649671149
365,717.1457127448305
366,717.139676817793
367,717.1338002606384
368,717.1281287621562
369,717.122709943467
370,717.1175926652693
371,717.1128263345597
372,717.1084602228628
373,717.1045428100526
374,717.1011211687842
375,717.0982404032444
376,717.0959431528341
377,717.0942691675361
378,717.0932549572893
379,717.0929335126849
380,717.0933340898882
381,717.0944820505412
382,717.0963987481729
383,717.099101455485
384,717.102603329808
385,717.106913415113
386,717.1120366777265
387,717.1179740706187
388,717.1247226195093
389,717.1322755235034
390,717.140622262787
391,717.1497487058258
392,717.159637209386
393,717.1702667067701
394,717.1816127819716
395,717.1936477292777
396,717.2063405995322
397,717.2196572363545
398,717.2335603080518
399,717.2480093431669
400,717.2629607787972
401,717.2783680304447
402,717.2941815902493
403,717.3103491574744
404,717.32681580196
405,717.3435241592798
406,717.360414656493
407,717.3774257690908
408,717.3944943115164
409,717.4115557647448
410,717.4285446449697
411,717.4453949172661
412,717.4620404564077
413,717.478415553696
414,717.4944554646512
415,717.5100969891412
416,717.5252790739197
417,717.5399434275826
418,717.5540351383893
419,717.5675032845759
420,717.5803015239275
421,717.5923886456156
422,717.6037290650236
423,717.6142932429354
424,717.6240580131864
425,717.6330068056153
426,717.6411297529517
427,717.6484236718856
428,717.6548919114014
429,717.6605440660503
430,717.6653955575098
431,717.6694670933579
432,717.6727840168403
433,717.6753755655781
434,717.6772740606459
435,717.678514049605
436,717.6791314269007
437,717.6791625521861
438,717.6786433826169
439,717.677608631058
440,717.6760909603569
441,717.6741202246561
442,717.6717227706481
443,717.6689208125139
444,717.6657318926266
445,717.6621684359743
446,717.6582374011938
447,717.6539400272738
448,717.6492716734964
449,717.6442217500875
450,717.6387737365505
451,717.6329052831051
452,717.6265883886808
453,717.6197896470765
454,717.6124705510279
455,717.6045878420499
456,717.5960938928489
457,717.5869371098154
458,717.5770623457805
459,717.5664113173518
460,717.554923025777
461,717.5425341839481
462,717.5291796538633
463,717.51479289907
464,717.4993064562992
465,717.4826524297795
466,717.4647630101832
467,717.445571018038
468,717.4250104696661
469,717.403017163208
470,717.3795292831697
471,717.3544880231137
472,717.3278382260343
473,717.2995290401518
474,717.2695145851409
475,717.2377546210676
476,717.2042152098743
477,717.1688693573208
478,717.1316976226534
479,717.0926886847815
480,717.0518398568554
481,717.0091575440057
482,716.9646576403132
483,716.9183658610796
484,716.870318005832
485,716.8205601468072
486,716.769148737755
487,716.7161506393829
488,716.6616430600624
489,716.605713412355
490,716.5484590867927
491,716.4899871440806
492,716.4304139258952
493,716.3698645836997
494,716.3084725255301
495,716.2463787824927
496,716.1837312987773
497,716.120684150749
498,716.0573967025823
499,715.9940327084782
500,715.9307593744425
501,715.8677463949872
502,715.8051649811872
503,715.7431868957935
504,715.6819835083542
505,715.6217248788722
506,715.5625788737558
507,715.5047103144519
508,715.4482801580779
509,715.3934447098507
510,715.3403548679685
511,715.2891554024812
512,715.2399842708201
513,715.1929719737624
514,715.1482409557944
515,715.1059050526552
516,715.0660689872136
517,715.0288279143615
518,714.9942670169329
519,714.9624611567184
520,714.9334745857576
521,714.9073607224163
522,714.8841619944512
523,714.8639097481184
524,714.846624219856
525,714.8323145670486
526,714.8209789578447
527,714.8126047253581
528,714.8071685949958
529,714.804636992055
530,714.8049664304829
531,714.808103975991
532,714.8139877708588
533,714.8225476051554
534,714.833705519408
535,714.8473764260592
536,714.8634687408155
537,714.8818850199526
538,714.9025226050442
539,714.9252742807846
540,714.9500289528777
541,714.9766723509576
542,715.0050877572728
543,715.0351567570406
544,715.0667600025508
545,715.0997779814177
546,715.1340917801749
547,715.1695838365963
548,715.2061386754905
549,715.2436436215169
550,715.281989479477
551,715.3210711702305
552,715.360788310557
553,715.4010457270853
554,715.4417538961169
555,715.4828293021803
556,715.5241947088705
557,715.5657793363916
558,715.6075189414362
559,715.649355796954
560,715.6912385723444
561,715.7331221185735
562,715.7749671668898
563,715.8167399529356
564,715.8584117793289
565,715.8999585296144
566,715.941360145571
567,715.9826000783158
568,716.02366472157
569,716.0645428337469
570,716.1052249547539
571,716.1457028233021
572,716.1859688010987
573,716.2260153117982
574,716.2658343046369
575,716.3054167544026
576,716.3447522103272
577,716.3838284066112
578,716.422630946698
579,716.461143072626
580,716.4993455306422
581,716.5372165448322
582,716.5747319103981
583,716.6118652157298
584,716.6485881972898
585,716.6848712243994
586,716.720683903256
587,716.7559957823523
588,716.7907771367511
589,716.8249998067829
590,716.8586380659679
591,716.891669491628
592,716.9240758100636
593,716.95584368781
594,716.9869654421648
595,717.0174396474785
596,717.0472716178373
597,717.0764737514669
598,717.1050657279031
599,717.1330745561702
600,717.1605344799885
601,717.1874867521877
602,717.2139792935238
603,717.2400662515587
604,717.2658074745326
605,717.2912679140749
606,717.3165169692921
607,717.3416277831717
608,717.3666765003386
609,717.391741493421
610,717.416902564482
611,717.442240128749
612,717.467834389525
613,717.4937645140413
614,717.5201078191268
615,717.5469389735833
616,717.5743292224789
617,717.6023456379543
618,717.6310504012451
619,717.6605001209457
620,717.6907451934511
621,717.7218292137036
622,717.7537884471994
623,717.786651375985
624,717.8204383312382
625,717.8551612234335
626,717.8908233782624
627,717.9274194821897
628,717.9649356363391
629,718.0033495130161
630,718.0426306068881
631,718.0827405725742
632,718.1236336413499
633,718.1652571109116
634,718.207551902761
635,718.2504531813886
636,718.2938910286724
637,718.3377911665896
638,718.3820757212519
639,718.4266640206088
640,718.4714734167194
641,718.5164201217597
642,718.5614200454777
643,718.6063896215102
644,718.6512466113729
645,718.6959108768419
646,718.7403051114616
647,718.7843555193479
648,718.8279924265906
649,718.871150810302
650,718.9137707330615
651,718.9557976741085
652,718.9971827514912
653,719.0378828315932
654,719.0778605246202
655,719.1170840669139
656,719.1555270933179
657,719.1931683053447
658,719.229991043582
659,719.2659827754305
660,719.3011345115231
661,719.3354401660479
662,719.3688958784263
663,719.4014993170448
664,719.433248989262
665,719.4641435838051
666,719.494181370747
667,719.5233596809699
668,719.5516744825136
669,719.5791200658682
670,719.6056888438525
671,719.6313712647168
672,719.6561558312649
673,719.680029215556
674,719.7029764578305
675,719.7249812383138
676,719.7460262105434
677,719.7660933847706
678,719.7851645500853
679,719.8032217241225
680,719.820247619556
681,719.8362261174573
682,719.8511427389885
683,719.8649851078671
684,719.8777433959136
685,719.8894107432676
686,719.899983644409
687,719.9094622913588
688,719.9178508665849
689,719.925157780392
690,719.9313958507164
691,719.9365824264853
692,719.9407394577972
693,719.9438935160308
694,719.94607576504
695,719.947321882868
696,719.9476719334666
697,719.9471701894877
698,719.9458649090709
699,719.9438080705434
700,719.9410550688042
701,719.9376643766991
702,719.9336971746054
703,719.9292169516059
704,719.92428908194
705,719.9189803811098
706,719.9133586465043
707,719.9074921867046
708,719.9014493420273
709,719.8952979973802
710,719.8891050872211
711,719.8829360908923
712,719.8768545155609
713,719.8709213646371
714,719.8651945919717
715,719.8597285455354
716,719.854573408253
717,719.8497746480155
718,719.8453724925016
719,719.8414014455025
720,719.8378898590872
721,719.8348595716391
722,719.8323256185782
723,719.8302960225395
724,719.8287716720068
725,719.8277462990822
726,719.8272065657316
727,719.8271322630851
728,719.8274966217504
729,719.8282667247406
730,719.8294040098843
731,719.8308648461267
732,719.8326011680371
733,719.834561154352
734,719.836689938669
735,719.838930343226
736,719.841223629468
737,719.8435102599997
738,719.8457306639223
739,719.8478259922463
740,719.8497388451401
741,719.8514139510181
742,719.8527987796112
743,719.853844076395
744,719.8545043126029
745,719.8547380513606
746,719.8545082339408
747,719.8537823900966
748,719.8525327745565
749,719.8507364304327
750,719.8483751809499
751,719.8454355537704
752,719.8419086464522
753,719.8377899452813
754,719.8330791107607
755,719.8277797408219
756,719.8218991185531
757,719.8154479468387
758,719.8084400693822
759,719.8008921768694
760,719.792823497927
761,719.784255475589
762,719.7752114306143
763,719.7657162138432
764,719.7557958512665
765,719.7454771869922
766,719.7347875301599
767,719.7237543120935
768,719.7124047600048
769,719.7007655932562
770,719.6888627468493
771,719.6767211240402
772,719.6643643765588
773,719.6518147080832
774,719.6390926950656
775,719.6262171187943
776,719.6132048036143
777,719.6000704581301
778,719.5868265183977
779,719.5734829942219
780,719.5600473213193
781,719.5465242224234
782,719.5329155791047
783,719.5192203144734
784,719.505434286676
785,719.4915501943865
786,719.4775574973537
787,719.463442356987
788,719.4491876038646
789,719.43477274014
790,719.420173983666
791,719.4053643567777
792,719.3903138175475
793,719.3749894271871
794,719.3593555450823
795,719.3433740419244
796,719.3270045207464
797,719.3102045360159
798,719.292929803435
799,719.2751343977869
800,719.256770941885
801,719.2377907947491
802,719.2181442500765
803,719.1977807561032
804,719.1766491654499
805,719.1546980193482
806,719.1318758654309
807,719.1081316031739
808,719.0834148481807
809,719.0576763072133
810,719.0308681587467
811,719.0029444358605
812,718.9738614081894
813,718.9435779584376
814,718.9120559478428
815,718.8792605645108
816,718.8451606493246
817,718.8097289962778
818,718.772942626479
819,718.7347830362272
820,718.6952364192043
821,718.6542938618778
822,718.611951510803
823,718.5682107113892
824,718.5230781198811
825,718.4765657928752
826,718.4286912602587
827,718.3794775873041
828,718.3289534301754
829,718.2771530872425
830,718.2241165470501
831,718.1698895328688
832,718.114523543713
833,718.0580758924195
834,718.0006097419296
835,717.9421941400615
836,717.8829040504388
837,717.8228203740268
838,717.7620299539454
839,717.7006255568708
840,717.6387058261165
841,717.5763752017803
842,717.5137438010075
843,717.4509272478301
844,717.3880464394015
845,717.3252272349973
846,717.2626000560182
847,717.2002993889926
848,717.1384631881332
849,717.0772321777052
850,717.0167490565359
851,716.9571576084145
852,716.8986017244207
853,716.8412243466965
854,716.7851663468317
855,716.7305653548042
856,716.6775545563053
857,716.6262614781416
858,716.576806783686
859,716.5293031022994
860,716.4838539169862
861,716.4405525328866
862,716.3994811467095
863,716.3607100354594
864,716.3242968820414
865,716.2902862541221
866,716.2587092495157
867,716.2295833160779
868,716.2029122476987
869,716.1786863521854
870,716.1568827829271
871,716.1374660244173
872,716.1203885211143
873,716.1055914386822
874,716.0930055457835
875,716.082552203242
876,716.0741444457883
877,716.067688139815
878,716.0630831982538
879,716.0602248304978
880,716.0590048017821
881,716.0593126740822
882,716.0610370006425
883,716.0640664488576
884,716.0682908305176
885,716.0736020231944
886,716.0798947709138
887,716.0870673560287
888,716.0950221379974
889,716.103665959551
890,716.112910426427
891,716.122672071662
892,716.1328724171841
893,716.1434379437204
894,716.1542999767687
895,716.1653944940398
896,716.1766618590494
897,716.1880464852551
898,716.1994964344714
899,716.2109629528452
900,716.2223999481719
901,716.2337634137793
902,716.2450108065099
903,716.256100389532
904,716.2669905543261
905,716.2776391393041
906,716.2880027645903
907,716.2980362035113
908,716.3076918117641
909,716.3169190353524
910,716.3256640179953
911,716.3338693271927
912,716.341473814911
913,716.348412623812
914,716.3546173439571
915,716.3600163193952
916,716.3645350993977
917,716.3680970244742
918,716.3706239321297
