frame_number,force
0,583.162050000043
1,582.7115392895123
2,582.2829126544675
3,581.8959930012047
4,581.5667594762222
5,581.3060787288609
6,581.1191058521582
7,581.0053986753802
8,580.9596544727569
9,580.9728600845802
10,581.0335995334143
11,581.1293065888176
12,581.2473392123134
13,581.3758252464488
14,581.504266845918
15,581.6239167291084
16,581.7279605806373
17,581.8115484212707
18,581.8717175177533
19,581.9072495023778
20,581.9184997588754
21,581.9072204122151
22,581.8763753076355
23,581.8299298319705
24,581.7725990141649
25,581.7095501466317
26,581.6460694893497
27,581.5872111667235
28,581.5374524630514
29,581.5003798943897
30,581.4784176907874
31,581.4725951944749
32,581.4823578528371
33,581.5054631429547
34,581.5380376515373
35,581.5748676464802
36,581.6099408215997
37,581.6371742045768
38,581.651197463632
39,581.6480470807212
40,581.6256650270651
41,581.5841554211112
42,581.5257977961238
43,581.4548310789223
44,581.3770254872832
45,581.2990747250765
46,581.2278682551054
47,581.1697260176264
48,581.1296869098637
49,581.1109382210035
50,581.1144550607427
51,581.1388885294442
52,581.180708394717
53,581.2345763045467
54,581.2938989773319
55,581.3514942967547
56,581.4003051327779
57,581.4341062305116
58,581.4481507756738
59,581.4396935925275
60,581.4083178566023
61,581.3559914963373
62,581.286801629763
63,581.2063737586518
64,581.1210670105809
65,581.0371071986058
66,580.9598356546865
67,580.8932100658997
68,580.8396230218369
69,580.8000301672819
70,580.7743112770715
71,580.7617351613773
72,580.7613834077285
73,580.7724201070204
74,580.7941624799414
75,580.8259791966046
76,580.8670892025401
77,580.9163443265471
78,580.9720633014408
79,581.0319576485808
80,581.0931626572553
81,581.1523667841642
82,581.2060236838078
83,581.2506314439609
84,581.2830630637706
85,581.300916916932
86,581.3028304075481
87,581.2886905999949
88,581.2596986061387
89,581.2182852479849
90,581.1679081033678
91,581.1127736144447
92,581.0575271207867
93,581.0069450030201
94,580.9656487402092
95,580.9378430527598
96,580.9270669378548
97,580.9359452994402
98,580.9659411939609
99,581.0171289314565
100,581.0880279076541
101,581.1755469060021
102,581.2750825746049
103,581.3807945597184
104,581.4860490548998
105,581.5839888345301
106,581.6681597702791
107,581.7331130408743
108,581.7749135311587
109,581.7915072529697
110,581.7829183388719
111,581.7512564277982
112,581.7005266475329
113,581.636252838739
114,581.564946811623
115,581.4934747382575
116,581.4283843093802
117,581.3752675461099
118,581.338241888989
119,581.3196216469945
120,581.3198151791466
121,581.337437154261
122,581.3695944725596
123,581.4122931697304
124,581.4609116435835
125,581.5106887764105
126,581.5571824020983
127,581.5966577454176
128,581.6263657522211
129,581.6446771138983
130,581.6510612871127
131,581.6459419590458
132,581.6305004895225
133,581.6065059646659
134,581.576215729302
135,581.5423373901747
136,581.5080036384493
137,581.4767027215344
138,581.4521318608872
139,581.4379802627672
140,581.4376742917656
141,581.4541203568799
142,581.4894735462318
143,581.5449516842966
144,581.6207048974107
145,581.7157408523434
146,581.8279013098654
147,581.9538898575056
148,582.0893594028353
149,582.2290745224316
150,582.3671629587064
151,582.4974571147857
152,582.6139022866856
153,582.7109877512253
154,582.7841501577891
155,582.8301026842034
156,582.8470536013763
157,582.8347943972601
158,582.7946555383865
159,582.7293391710649
160,582.6426444736662
161,582.5391106324689
162,582.4236125772258
163,582.3009493747987
164,582.1754684655306
165,582.0507754785777
166,581.9295778546605
167,581.8136848101182
168,581.7041404557534
169,581.6014287371015
170,581.505686110792
171,581.4168906379157
172,581.3350331548241
173,581.2602847000456
174,581.1931524241365
175,581.1345903536871
176,581.086027098009
177,581.0492912396843
178,581.0264374646875
179,581.0194838832956
180,581.0300647005588
181,581.0590045100776
182,581.1058510657325
183,581.168452966676
184,581.2427014426672
185,581.3225437561805
186,581.4003238001922
187,581.4674371116721
188,581.5152246206299
189,581.535985607418
190,581.523969050592
191,581.4761981823669
192,581.3929954056081
193,581.2781137077599
194,581.1384461367234
195,580.9833562265939
196,580.8237251737806
197,580.6708340375908
198,580.5351954937659
199,580.4254394693231
200,580.3473624218436
201,580.3032689312853
202,580.2917322353231
203,580.3078450749641
204,580.3439354674609
205,580.3906330850791
206,580.438128105199
207,580.4774590908554
208,580.5016690121548
209,580.5066676806472
210,580.491657885572
211,580.4590489979685
212,580.4138901077395
213,580.3629646016363
214,580.3137529084607
215,580.2734631992994
216,580.2482586918184
217,580.2427170022153
218,580.2594946097072
219,580.299163639095
220,580.3602172653356
221,580.4392562673078
222,580.5313467240487
223,580.6304983080369
224,580.7301923759395
225,580.8239010107263
226,580.9055615846975
227,580.9699807525791
228,581.0131341007065
229,581.0323256461498
230,581.0261990184583
231,580.99464519273
232,580.9386924386476
233,580.8604531573333
234,580.7631412381747
235,580.6511081907906
236,580.52981886777
237,580.4057003841956
238,580.2858282582639
239,580.1774472367682
240,580.0873613732883
241,580.0212683993324
242,579.983144423697
243,579.9747897886674
244,579.9956222676619
245,580.0427619247859
246,580.1114027408597
247,580.1954096873221
248,580.2880282349679
249,580.3825779532158
250,580.4730364189614
251,580.5544726070264
252,580.6233189282301
253,580.6774741212643
254,580.7162322397636
255,580.7400539181533
256,580.7502270408446
257,580.7484868969408
258,580.736672845668
259,580.7164931653332
260,580.6894530227356
261,580.6569647762958
262,580.6206038981591
263,580.5824146731568
264,580.5451347087595
265,580.5122200043216
266,580.4876199076679
267,580.475347601153
268,580.4789659129935
269,580.5011251921215
270,580.5432532782321
271,580.6054357421144
272,580.6864700752535
273,580.7840467648668
274,580.894995807764
275,581.0155318579809
276,581.1414459853277
277,581.2682330100671
278,581.391189319474
279,581.5055382933374
280,581.6066309119682
281,581.6902378824635
282,581.752907858282
283,581.7923252035918
284,581.8075800405803
285,581.7992813247612
286,581.7694928493581
287,581.7215186387035
288,581.6595821183126
289,581.5884401565581
290,581.5129730688999
291,581.4378020674033
292,581.3669882295832
293,581.3038448935156
294,581.2508579632358
295,581.2096816670773
296,581.1811739075556
297,581.1654492155848
298,581.1619472422788
299,581.1695312159485
300,581.1866338090185
301,581.2114509783727
302,581.242155041804
303,581.277077738808
304,581.3148178620694
305,581.35425043303
306,581.3944419275665
307,581.4345058483678
308,581.4734597615346
309,581.5101467482287
310,581.5432469561493
311,581.5713534139716
312,581.593066440775
313,581.6070886516818
314,581.612344155156
315,581.608154521079
316,581.5944682881005
317,581.5720885831845
318,581.54281124649
319,581.5093908765073
320,581.4752926748092
321,581.4442498657803
322,581.4197039790378
323,581.4042330747873
324,581.3990678407596
325,581.4037748711227
326,581.4161633563847
327,581.4324427829367
328,581.44762112373
329,581.4560935664814
330,581.4523432137479
331,581.4316618357442
332,581.3907959496847
333,581.3284250039259
334,581.2453901233208
335,581.1446300513282
336,581.030845697881
337,580.9099762719493
338,580.7885949207724
339,580.6733159465165
340,580.5702726046114
341,580.4846973886275
342,580.4206196650816
343,580.380680354424
344,580.3660471342325
345,580.3764044766899
346,580.4099991355704
347,580.463739364765
348,580.5333597667357
349,580.6136632532431
350,580.6988432687659
351,580.7828829470939
352,580.8600211427927
353,580.9252587622236
354,580.9748513810714
355,581.0067106325117
356,581.0206367209456
357,581.0183317360479
358,581.0031838724517
359,580.979849892692
360,580.9536918307983
361,580.9301467329316
362,580.9141248768374
363,580.9095334907647
364,580.9189999904971
365,580.9438225078632
366,580.9841186859207
367,581.0390961068601
368,581.1073510561074
369,581.1871237921622
370,581.2764771334499
371,581.3733908458926
372,581.4757707251683
373,581.5813766049168
374,581.6876918523087
375,581.7917826955675
376,581.8902120534374
377,581.9790659800186
378,582.0541232405644
379,582.1111629384118
380,582.1463694758016
381,582.1567635027906
382,582.1405757023063
383,582.0974962997309
384,582.0287668688504
385,581.9371174847472
386,581.8265830473628
387,581.7022480919379
388,581.5699638388207
389,581.4360636199129
390,581.3070851974895
391,581.1894922484947
392,581.0893750863206
393,581.0121150888057
394,580.9620221463977
395,580.9419841271788
396,580.953184865438
397,580.9949487044842
398,581.0647568806595
399,581.1584525792356
400,581.2706098615447
401,581.3950023687163
402,581.5250892965175
403,581.6544426463348
404,581.7770638132231
405,581.8875749123464
406,581.9813148588405
407,582.054402905063
408,582.1038338065812
409,582.1276387237638
410,582.1250990448655
411,582.0969540240808
412,582.0455139099095
413,581.9745925147072
414,581.8892160599254
415,581.7951391043457
416,581.6982662510063
417,581.6041042166024
418,581.5173533471054
419,581.4417101039256
420,581.3798967185106
421,581.3338635444841
422,581.3050499300606
423,581.2945752969192
424,581.303270776239
425,581.3315264834566
426,581.3789908926473
427,581.44421139372
428,581.5243488441798
429,581.615107268498
430,581.7109616836545
431,581.8056604443391
432,581.8928876518034
433,581.9669413805194
434,582.0233058619409
435,582.059038035501
436,582.0729335271659
437,582.0654819624058
438,582.0386630082036
439,581.9956624735169
440,581.9405899624975
441,581.8782490237361
442,581.8139565446152
443,581.7533582366078
444,581.7021712605707
445,581.6658145243185
446,581.6489469461849
447,581.654988090782
448,581.6857121617107
449,581.7409860793018
450,581.8186897708551
451,581.9148280250682
452,582.0238202875382
453,582.1389390394648
454,582.2528593731357
455,582.3582759912965
456,582.4485335619712
457,582.5182052346222
458,582.5635523342049
459,582.5828136030023
460,582.57629959582
461,582.5462920930042
462,582.496761863518
463,582.4329260364871
464,582.3606782384337
465,582.2859457918752
466,582.2140544907724
467,582.1491990843789
468,582.0941122850564
469,582.049989409809
470,582.0166631319959
471,581.9929552939486
472,581.9770946320683
473,581.9670996459498
474,581.961071107517
475,581.9573842542833
476,581.9547911710015
477,581.9524452420056
478,581.9498617498695
479,581.9468325153439
480,581.9433096813617
481,581.9392740410503
482,581.9346153109494
483,581.929056459992
484,581.9221325228941
485,581.9132024911721
486,581.9014633504091
487,581.88595652272
488,581.8655874513942
489,581.8391901608926
490,581.8056466268512
491,581.7640299550922
492,581.7137179774758
493,581.6544477151641
494,581.5863343136558
495,581.5099086424336
496,581.4262040437084
497,581.3368678946334
498,581.2442360255642
499,581.1513103451397
500,581.0616098162025
501,580.9788994775213
502,580.9068278143086
503,580.848518982647
504,580.8061810430048
505,580.7808060404276
506,580.7720392768169
507,580.7782705458143
508,580.7969513465613
509,580.8250795182505
510,580.859734636271
511,580.8985248317817
512,580.9398389059984
513,580.982869671691
514,581.027445090846
515,581.0737459194637
516,581.1220001358918
517,581.1722335041806
518,581.2241298015765
519,581.277019454511
520,581.3299771487168
521,581.3819807114011
522,581.4320801864062
523,581.4795411918607
524,581.5239407178843
525,581.5652018101625
526,581.6035604978947
527,581.6394627565953
528,581.673396659517
529,581.7056869293781
530,581.7363090884328
531,581.7647918654129
532,581.7902533737001
533,581.8115703556394
534,581.8276366273634
535,581.837645391686
536,581.841330427557
537,581.8391103458996
538,581.8320902623434
539,581.8218974604189
540,581.8103772940864
541,581.7992393491326
542,581.7897783920363
543,581.7827681352682
544,581.7785478270789
545,581.7772334605838
546,581.7789356213151
547,581.783879586862
548,581.7923801644157
549,581.8046826988054
550,581.8207234922908
551,581.8398906809423
552,581.8608758500877
553,581.8816837719645
554,581.8998165320533
555,581.9125950220229
556,581.9175483305206
557,581.912793343635
558,581.8973357393827
559,581.8712451220973
560,581.835687750448
561,581.7928305061932
562,581.7456484437663
563,581.6976731038967
564,581.6527141648105
565,581.6145748905305
566,581.5867656828074
567,581.5722134216564
568,581.5729745137036
569,581.5899715918132
570,581.6227766025188
571,581.669470952166
572,581.7266333240666
573,581.789513199945
574,581.8524204872068
575,581.9093077796641
576,581.9544656756611
577,581.9832122044891
578,581.9924472702078
579,581.9809664291611
580,581.9494782732794
581,581.9003308269682
582,581.8370077398764
583,581.7634944353504
584,581.6836335011586
585,581.6005819006633
586,581.5164489973178
587,581.4321475873455
588,581.3474515823494
589,581.2612359276367
590,581.1718689005946
591,581.0777143334949
592,580.9776757637109
593,580.8716932580702
594,580.7611033803859
595,580.6487916808582
596,580.5390964656104
597,580.4374597719487
598,580.349863177505
599,580.282122944535
600,580.239145339395
601,580.2242594268484
602,580.2387440334329
603,580.2816329718264
604,580.3498203168024
605,580.4384234652948
606,580.5413227611552
607,580.6517860268114
608,580.7630919595133
609,580.869077951322
610,580.9645564284502
611,581.0455742980952
612,581.1095264382386
613,581.1551596793141
614,581.1825088654595
615,581.1927935121754
616,581.1882786542894
617,581.1720805497883
618,581.1478952563587
619,581.1196495629073
620,581.0911077288129
621,581.0655013647518
622,581.0452665435974
623,581.0319507162043
624,581.0262948387634
625,581.028437041109
626,581.0381521015696
627,581.0550396202705
628,581.0785998363871
629,581.108187049958
630,581.1428896689548
631,581.1814237393173
632,581.2221249122485
633,581.2630835030583
634,581.3024025358633
635,581.3384963102902
636,581.3703232403208
637,581.397477897865
638,581.4201299993767
639,581.4388522359083
640,581.4543992241981
641,581.4674877321808
642,581.4786080084253
643,581.4878920953054
644,581.4950741975249
645,581.4995757132692
646,581.5007193282785
647,581.4980336765269
648,581.4915750140486
649,581.4821788268292
650,581.4715630220959
651,581.4622348492286
652,581.4572048977113
653,581.4595683548007
654,581.4720507212422
655,581.4966184300606
656,581.5342298229451
657,581.5847615754991
658,581.6471011701462
659,581.7193576253575
660,581.7991191352861
661,581.8836858968812
662,581.9702352101248
663,582.0559219421056
664,582.1379494352334
665,582.2136440043196
666,582.2805399698351
667,582.3364553511238
668,582.3795311553994
669,582.4082261832922
670,582.4212875740186
671,582.41772862695
672,582.3968356036339
673,582.3582120479319
674,582.3018628375083
675,582.2283148681363
676,582.1387607600244
677,582.0351978213447
678,581.9205236082918
679,581.7985496970485
680,581.6739086266886
681,581.5518477058624
682,581.4379188655868
683,581.3375864830425
684,581.2557910920373
685,581.1965272225693
686,581.1625087899039
687,581.1549878607613
688,581.1737528521535
689,581.2172756741062
690,581.2829339328521
691,581.3672240173034
692,581.4659067568847
693,581.5740789985238
694,581.6862171087892
695,581.7962630404949
696,581.8978098333283
697,581.9844057599151
698,582.049956962414
699,582.0891815203679
700,582.0980589115017
701,582.074226463424
702,582.017287530109
703,581.9289999775372
704,581.8133061694803
705,581.6761610156863
706,581.5251288450216
707,581.3687594289139
708,581.2158094218687
709,581.0744216213059
710,580.9513849549495
711,580.8515753730358
712,580.7776474269754
713,580.7300192819185
714,580.7071553727006
715,580.7060919814212
716,580.7230909225252
717,580.7542759931795
718,580.7961224886594
719,580.8457269640128
720,580.9008613633979
721,580.9598825741108
722,581.021597633936
723,581.0851668307705
724,581.1500781386187
725,581.216175911056
726,581.2836950349532
727,581.3532421959611
728,581.4256739071923
729,581.5018466655612
730,581.5822590324077
731,581.6666550901169
732,581.7536889206943
733,581.8407480495946
734,581.9240082651393
735,581.9987537020218
736,582.0599452779912
737,582.102958866502
738,582.1243580562023
739,582.1225400757787
740,582.0981131560658
741,582.0539236508289
742,581.9947284954089
743,581.9265784764812
744,581.8560255055339
745,581.7892865408694
746,581.7314901928559
747,581.6861100551413
748,581.6546619020393
749,581.636708891021
750,581.630167812039
751,581.6318403270525
752,581.6380387245454
753,581.6451757694902
754,581.6502406241924
755,581.6511422210518
756,581.6469279127583
757,581.6378772850492
758,581.6254547810331
759,581.6121051393625
760,581.6008971356472
761,581.5950489078617
762,581.5973877645595
763,581.6098094177763
764,581.6328112743664
765,581.6651775710629
766,581.7038846424927
767,581.7442747322929
768,581.7805183110571
769,581.8063407283576
770,581.8159259522879
771,581.8048460613838
772,581.7708354302273
773,581.7142586717647
774,581.6381992814707
775,581.5481782399029
776,581.4515640712465
777,581.3567591762882
778,581.2722624185672
779,581.2057235832903
780,581.1631102383128
781,581.1480892930011
782,581.1616867093057
783,581.2022432826415
784,581.2656469457719
785,581.3457998847246
786,581.4352643330868
787,581.5260123176781
788,581.6101878975297
789,581.6807920164903
790,581.732220083326
791,581.760608141723
792,581.7639710630549
793,581.7421510294846
794,581.6966360224715
795,581.6303366777893
796,581.547395745887
797,581.453043046792
798,581.3534406601558
799,581.2554376875884
800,581.1661834286552
801,581.0926049803462
802,581.0408054438248
803,581.0154677178274
804,581.0193613504275
805,581.0530487762084
806,581.1148651372367
807,581.2011994984946
808,581.3070407687586
809,581.4266799976629
810,581.5544062455101
811,581.6850351465284
812,581.814185776648
813,581.938332510445
814,582.054730171185
815,582.1613059759248
816,582.2565630948989
817,582.3395031566329
818,582.4095664280433
819,582.4665900998068
820,582.5107804194198
821,582.5426846217366
822,582.5631427195017
823,582.5732021760803
824,582.5739893691449
825,582.5665474626956
826,582.5516664304605
827,582.5297415933512
828,582.5006969458952
829,582.4639997771541
830,582.4187841158135
831,582.364097361759
832,582.2992691837146
833,582.2243547289573
834,582.1405442606055
835,582.0504094512622
836,581.9578993369518
837,581.8680746096372
838,581.7866259943177
839,581.7192480666154
840,581.6709549661966
841,581.645438161992
842,581.644566401062
843,581.6681056043307
844,581.7136987639494
845,581.7771052717297
846,581.8526617790426
847,581.9338932598894
848,582.0141784424804
849,582.0873705673843
850,582.1482979485882
851,582.1931049406704
852,582.219421743343
853,582.2263663853656
854,582.2143957536725
855,582.1850406958903
856,582.1405745161534
857,582.0836672127941
858,582.0170740506635
859,581.9434007972111
860,581.8649751986583
861,581.7838350344182
862,581.7018250418678
863,581.6207776139757
864,581.5427278915447
865,581.4700921660078
866,581.4057433025619
867,581.3529518994492
868,581.3152025333644
869,581.2959194178529
870,581.2981455941787
871,581.3242218501947
872,581.3755067421484
873,581.4521661160113
874,581.5530423065674
875,581.6755977953486
876,581.8159262415571
877,581.9688376265499
878,582.1280397272509
879,582.2864397956317
880,582.4365776878439
881,582.571179638812
882,582.6837892987234
883,582.7693952216006
884,582.824952301534
885,582.8497051250948
886,582.8452589279254
887,582.8153904640056
888,582.7656318988662
889,582.7026909310916
890,582.6337897580842
891,582.5660130280772
892,582.5057486623604
893,582.458287121096
894,582.4276187637821
895,582.4164387086349
896,582.4263357432582
897,582.458107909454
898,582.5121187757755
899,582.5886003622317
900,582.6878309898834
901,582.8101550946012
902,582.9558451838377
903,583.1248349201462
904,583.3163917894819
905,583.528837185763
906,583.7594250838653
907,584.004442087624
908,584.2595182223905
909,584.5200804435784
910,584.7818590905614
911,585.041363492707
912,585.2962592268896
913,585.5455956970075
914,585.7898471780001
915,586.0307494165924
916,586.2709483001464
917,586.5135244155645
