frame_number,force
0,509.60195000003375
1,509.2700971195424
2,508.95019664790823
3,508.6532601127186
4,508.3885928857549
5,508.1633172601394
6,507.98220491647743
7,507.84775790469877
8,507.7604285085208
9,507.7188643551094
10,507.7201064241888
11,507.7597321863455
12,507.83198689439513
13,507.9299622321388
14,508.0458681144335
15,508.17141118703034
16,508.2982529677823
17,508.4184921479119
18,508.5251189033018
19,508.6124163287767
20,508.67630292533386
21,508.7146004922425
22,508.7271873173086
23,508.71598369280963
24,508.68473057543315
25,508.63856420635113
26,508.5834478235966
27,508.5255697727012
28,508.4708275405064
29,508.42447738932674
30,508.39095395277246
31,508.373796712123
32,508.37560407216534
33,508.397970915506
34,508.4414111718289
35,508.50528753436197
36,508.58776527020314
37,508.68579926497256
38,508.7951714640594
39,508.91061630508773
40,509.02608422180793
41,509.1351768049019
42,509.23173858483494
43,509.31053215585484
44,509.3678833697002
45,509.4021719771802
46,509.41406111686774
47,509.40640715926105
48,509.3838580249824
49,509.3522098124193
50,509.31763372429555
51,509.2859060326217
52,509.261770528406
53,509.24852835508693
54,509.24788612399414
55,509.260024692328
56,509.28381448255584
57,509.31711205111725
58,509.35710183156726
59,509.4006614360473
60,509.4447206620492
61,509.48657426680103
62,509.52411503789756
63,509.55597338786566
64,509.5815688135682
65,509.60108635164477
66,509.61538368210984
67,509.6258236965661
68,509.6340377909348
69,509.6416594553989
70,509.65009229371384
71,509.6603653051586
72,509.6730950690747
73,509.6885456255672
74,509.7067604136974
75,509.7277310864183
76,509.75155792227497
77,509.7785473149428
78,509.80920069385303
79,509.8440887371038
80,509.88365540702716
81,509.9280208568953
82,509.976836535571
83,510.029212357454
84,510.0837180605009
85,510.1384700947806
86,510.1913301973973
87,510.2402296928449
88,510.2835843748105
89,510.320703517991
90,510.35206410223304
91,510.3793431969985
92,510.40517113770886
93,510.4326551939908
94,510.46479305761227
95,510.50392300578244
96,510.5513335626587
97,510.60708926813055
98,510.6700538433901
99,510.73805021299165
100,510.80810447504604
101,510.8767519334826
102,510.9403985134159
103,510.9957154948964
104,511.0400167200831
105,511.0715542286434
106,511.0896857602711
107,511.0949049179362
108,511.08875709518117
109,511.0736762280153
110,511.05277211212353
111,511.02958522283683
112,511.00781156608826
113,510.990990409945
114,510.98215489168973
115,510.983476024017
116,510.995968144018
117,511.01933384908835
118,511.0519903547636
119,511.09125975250987
120,511.13366497340985
121,511.1752700031376
122,511.2120232284543
123,511.2400840170427
124,511.25612171771473
125,511.25757407772085
126,511.24284870792053
127,511.21145181827296
128,511.1640288385106
129,511.10230513291293
130,511.028931826789
131,510.94726285883803
132,510.8610942498609
133,510.774385506917
134,510.6909722346133
135,510.61427805392026
136,510.54704482357045
137,510.49111569080543
138,510.4473089524484
139,510.4154045274819
140,510.3942399245386
141,510.3818946856683
142,510.3759389279058
143,510.3737270563065
144,510.37271714534705
145,510.3707838895114
146,510.3664803809573
147,510.3592032995719
148,510.3492242019081
149,510.3375604645098
150,510.3256800852593
151,510.31507624025227
152,510.30680193924985
153,510.30108934559524
154,510.29716331194925
155,510.2932992323188
156,510.28710388524786
157,510.2759462501822
158,510.25744660595217
159,510.22993965347973
160,510.192843438366
161,510.14688007270325
162,510.09411090388176
163,510.03777530863306
164,509.9819582409841
165,509.93114896139076
166,509.8897792945359
167,509.86183009662017
168,509.8505613967473
169,509.858362928248
170,509.8866638816013
171,509.9358166106262
172,510.00489714693373
173,510.09143438968266
174,510.19115406252206
175,510.2978674277653
176,510.40363069771007
177,510.4992482520526
178,510.5751057924635
179,510.6222285590917
180,510.6333952459847
181,510.60411549555965
182,510.5332999524415
183,510.4235109110563
184,510.2807624551604
185,510.1139178121478
186,509.93378740941546
187,509.75205724849747
188,509.5801825049982
189,509.4283732303974
190,509.30477459238625
191,509.2149055515387
192,509.1613818451864
193,509.1439186621859
194,509.1595783442579
195,509.20319942420485
196,509.2679318802514
197,509.3458187896735
198,509.42839233609413
199,509.5072706869954
200,509.57474274468314
201,509.62431681661394
202,509.651199974015
203,509.6526718097051
204,509.628312544376
205,509.5800423157449
206,509.51194153736435
207,509.4298561950966
208,509.3408303636973
209,509.2524360605929
210,509.1720867181697
211,509.1064223708619
212,509.0608324331891
213,509.0391379046231
214,509.04341187315254
215,509.0739007950378
216,509.1290241510211
217,509.2054562284263
218,509.2983057861183
219,509.40140428699345
220,509.5077069680073
221,509.60980658994384
222,509.70054053080503
223,509.7736333636059
224,509.82428374972363
225,509.8496005206884
226,509.8488171480762
227,509.8232544407302
228,509.77605118996144
229,509.7117324485516
230,509.6357164107196
231,509.55385556371346
232,509.472067058154
233,509.3960538939083
234,509.3310806838309
235,509.28176064593043
236,509.251828242351
237,509.24389837592344
238,509.25924193098973
239,509.2976367950261
240,509.3573631082754
241,509.4353772610659
242,509.5276334592884
243,509.629469270376
244,509.7359631825238
245,509.84220187371864
246,509.94343653931406
247,510.0351396092363
248,510.11299130991245
249,510.1728381443765
250,510.21067764365506
251,510.2227292653739
252,510.205636148377
253,510.1567998680749
254,510.07479731710424
255,509.95979748194475
256,509.8138995796641
257,509.64133421835214
258,509.44848258923605
259,509.24367375337
260,509.0367338353751
261,508.8382992695157
262,508.65896667422044
263,508.5084081203142
264,508.3945975524541
265,508.32325584615245
266,508.29754666596943
267,508.3179866380192
268,508.38251059690305
269,508.48665686682244
270,508.62387073727
271,508.78593124582943
272,508.96348740533136
273,509.1466669232377
274,509.32570837649206
275,509.49156914052026
276,509.63647205681184
277,509.7543679256031
278,509.8413012879454
279,509.89566296764934
280,509.9182922954158
281,509.91237859345193
282,509.8831339037302
283,509.83726099833706
284,509.782290102525
285,509.7258828132719
286,509.67519677072727
287,509.6363709989747
288,509.61414671498807
289,509.6116115017173
290,509.6300566500581
291,509.6689497665431
292,509.7260283754642
293,509.79751413868223
294,509.8784380369644
295,509.963056699109
296,510.0453289872185
297,510.1194147010863
298,510.18015823044084
299,510.22351932864643
300,510.2468980554427
301,510.2492875829427
302,510.23121479924185
303,510.1944975745802
304,510.1419066253603
305,510.07682107258364
306,510.0029255167485
307,509.92396446572496
308,509.8435666264115
309,509.76515007306455
310,509.69189575767126
311,509.62674730049065
312,509.5723901627253
313,509.5311845435994
314,509.50505167912837
315,509.4953330772218
316,509.5026592042457
317,509.5268676367573
318,509.56698692950255
319,509.6212687435779
320,509.6872445659505
321,509.761811238011
322,509.8413775499083
323,509.9221002311914
324,510.00019996379723
325,510.0723004111312
326,510.1357091366239
327,510.18857803003567
328,510.229930220577
329,510.2595863528028
330,510.2780375580149
331,510.2862960926091
332,510.2857329818449
333,510.27790380958953
334,510.2643631601227
335,510.2464688518882
336,510.22519087110305
337,510.2009709372267
338,510.1737000182281
339,510.14286098659863
340,510.10782254968154
341,510.0682007424154
342,510.0241650407201
343,509.97658293547795
344,509.9269624135017
345,509.8772253089641
346,509.829384337316
347,509.7851978824572
348,509.74586695933266
349,509.7118374956179
350,509.6827640808796
351,509.65765482361866
352,509.63515727050776
353,509.61389924685164
354,509.5927926994791
355,509.5712362865194
356,509.54919236056696
357,509.52715078895903
358,509.50601250603876
359,509.48691978062425
360,509.47103838261336
361,509.45928998243437
362,509.4520598741963
363,509.44894665971157
364,509.44864008242456
365,509.44899410391173
366,509.4473136458219
367,509.4408103435875
368,509.4271252921333
369,509.40479547940436
370,509.37357020817467
371,509.3345401220149
372,509.29008665326165
373,509.2436783039803
374,509.199539153789
375,509.162211634576
376,509.1360491813273
377,509.12470463649566
378,509.1306983967326
379,509.1551321717696
380,509.1975735605896
381,509.25610763999765
382,509.3275447676728
383,509.40776620092345
384,509.4921658913727
385,509.5761266438617
386,509.65547339923245
387,509.72686639902037
388,509.7881060662017
389,509.83831127571653
390,509.8779242753132
391,509.90851459038697
392,509.93240044285017
393,509.95215689582136
394,509.97011602236154
395,509.9879755258163
396,510.00660792525696
397,510.02610119540276
398,510.045988607393
399,510.0655809007284
400,510.08431515637136
401,510.1020598367538
402,510.119333140948
403,510.1373961620387
404,510.1581918369349
405,510.1841303978179
406,510.2177615616559
407,510.2613977672638
408,510.316752176081
409,510.38464376487013
410,510.46481102236174
411,510.55585837620424
412,510.6553290156968
413,510.75986876005436
414,510.8654382157612
415,510.96754621522086
416,511.061502531212
417,511.1427052060943
418,511.20697348060804
419,511.2509110989858
420,511.2722542447554
421,511.2701425427886
422,511.2452577765257
423,511.19979991870935
424,511.13730268226317
425,511.0623179926064
426,510.9800140540329
427,510.8957361418257
428,510.81457889198725
429,510.74102059785446
430,510.6786711619952
431,510.63017147559265
432,510.597246448735
433,510.5808715467707
434,510.5814836191383
435,510.59915772183143
436,510.6336827568601
437,510.6845024983337
438,510.75053828164766
439,510.8299553293513
440,510.919959696257
441,511.01671347758156
442,511.11543500066097
443,511.21071178252834
444,511.297004583172
445,511.36927494720146
446,511.4236363601737
447,511.45790837623997
448,511.4719457406252
449,511.46764133637157
450,511.44857856910164
451,511.41941235076706
452,511.3851337552129
453,511.3503820220943
454,511.318914185318
455,511.2932656042101
456,511.2745782258988
457,511.2625646259417
458,511.2556033741767
459,511.25098014057215
460,511.2452700731052
461,511.2348196402761
462,511.2162627142025
463,511.18699991162
464,511.1455724518493
465,511.0918740561797
466,511.027168732948
467,510.95391131064486
468,510.8753983609539
469,510.7953119837709
470,510.7172484230492
471,510.6443263094611
472,510.57893567089747
473,510.52263790404766
474,510.4761909976481
475,510.43966439695134
476,510.41260891165103
477,510.3942482800814
478,510.38366419372005
479,510.3799536535674
480,510.38233932956024
481,510.3902170723261
482,510.40314052144697
483,510.4207611118506
484,510.44274247118227
485,510.46865248312434
486,510.49782906600615
487,510.52923087285154
488,510.5613085578305
489,510.5919508982815
490,510.6185680745173
491,510.63835946904123
492,510.64876116918344
493,510.64799259235025
494,510.6355614613425
495,510.6125735472253
496,510.58173630528086
497,510.5470301266179
498,510.5131126067692
499,510.4845789884585
500,510.465212803348
501,510.4573475516167
502,510.46144360984624
503,510.4759552555156
504,510.4975072838165
505,510.52133659035485
506,510.5419155044815
507,510.55366962223553
508,510.5517119136745
509,510.5325155321822
510,510.4944369448832
511,510.4379940737354
512,510.36582708621484
513,510.2823343361643
514,510.19306059353625
515,510.1039780910989
516,510.02081482768745
517,509.94854757085204
518,509.8911092324607
519,509.8512935484091
520,509.83080264420204
521,509.83037811886356
522,509.84996109275687
523,509.8888270340474
524,509.94565091449954
525,510.0184921569895
526,510.104733519645
527,510.20103417355705
528,510.303352324896
529,510.40707046827026
530,510.50723261434064
531,510.5988750457363
532,510.6773957550165
533,510.7388814422563
534,510.78032273704133
535,510.7996994979438
536,510.7959768039646
537,510.76908126190347
538,510.7199126244058
539,510.65040116174066
540,510.5635714668206
541,510.46354120478225
542,510.35538496163974
543,510.2448290567896
544,510.1377950983375
545,510.03985818841767
546,509.9557165116507
547,509.88876975672673
548,509.8408707141472
549,509.81226635608806
550,509.80170784118155
551,509.8066920152594
552,509.82379489152413
553,509.8490636065945
554,509.87843717335704
555,509.90815822159965
556,509.93512473741333
557,509.9571321149094
558,509.9729774684274
559,509.98242354665814
560,509.9860336290586
561,509.9848984397705
562,509.98029615553736
563,509.97335211208184
564,509.9647722710451
565,509.9547017398897
566,509.9427222746916
567,509.9279724067091
568,509.909354359846
569,509.8857789776307
570,509.8563971404174
571,509.8207759052671
572,509.77899117217305
573,509.73162039570695
574,509.67963587398054
575,509.62422657040855
576,509.56660490119094
577,509.5078672907845
578,509.44895931829114
579,509.3907490528705
580,509.334160644154
581,509.28029593393387
582,509.2304844947063
583,509.18623725863443
584,509.1491147976665
585,509.12054312829144
586,509.101613728043
587,509.0929030175932
588,509.094354761951
589,509.10527517990715
590,509.1244672142929
591,509.1504780517807
592,509.1818865846653
593,509.21754112776296
594,509.2566712143113
595,509.2988303338752
596,509.3436748751673
597,509.3906425042011
598,509.43863814727433
599,509.4858405255393
600,509.52970622009036
601,509.56719372587696
602,509.5951720039751
603,509.6109245982665
604,509.6126285835995
605,509.59969413461926
606,509.5728926666164
607,509.5342594956742
608,509.48680853973923
609,509.4341286458478
610,509.37994326266414
611,509.3277100915608
612,509.28031346339213
613,509.239867776643
614,509.20762930861525
615,509.1840155409941
616,509.1687338221212
617,509.161004579829
618,509.15983943897766
619,509.16432181098344
620,509.1738347728834
621,509.1881769258203
622,509.2075135928867
623,509.2321521602751
624,509.2621955781231
625,509.29716980511165
626,509.3357139144071
627,509.3753918305141
628,509.4126668343656
629,509.4430720929937
630,509.4615892337974
631,509.4632073484112
632,509.44359660282265
633,509.3998103937729
634,509.33091961359344
635,509.23846722466607
636,509.1266224369587
637,509.0019444524207
638,508.87274957820347
639,508.7481810065774
640,508.637152600019
641,508.5473459193351
642,508.484399143261
643,508.4513728230028
644,508.4485322442203
645,508.4734520529569
646,508.52141846372774
647,508.5860718268631
648,508.6602019841321
649,508.73659194075736
650,508.80880726229185
651,508.87184513904447
652,508.9225817842382
653,508.959981967375
654,508.98505091007377
655,509.00052000929645
656,509.0102841071726
657,509.0186599193154
658,509.02959343573286
659,509.04597546970524
660,509.06920982355166
661,509.09912170190023
662,509.1342146828004
663,509.17220551274653
664,509.2107039020372
665,509.2478711083649
666,509.2828977462451
667,509.3161925385818
668,509.3492547011491
669,509.3842805327781
670,509.42360090540296
671,509.4690570510078
672,509.5214160861652
673,509.57992218480564
674,509.6420704733736
675,509.70366294719753
676,509.75915458953756
677,509.8022378936673
678,509.82656763668234
679,509.82651070831656
680,509.7978187877041
681,509.7381527454705
682,509.6474208461619
683,509.5279170449669
684,509.38425957081887
685,509.2231396514905
686,509.0529017196438
687,508.88298966326823
688,508.72330339215
689,508.58351321306554
690,508.472380760149
691,508.39714079038197
692,508.36300424066815
693,508.3728360618605
694,508.4270356105079
695,508.52361365668526
696,508.6584311807939
697,508.82554380925797
698,509.01758502783963
699,509.2261305339694
700,509.44201773736825
701,509.65563800317807
702,509.8572592084497
703,510.0374555019971
704,510.18770051872593
705,510.30110989404744
706,510.37322145776386
707,510.4026324293753
708,510.39131938823124
709,510.3445454490082
710,510.270360965693
711,510.17877942034005
712,510.08074531312775
713,509.9870227055037
714,509.9071363166974
715,509.84848826781916
716,509.81574670007325
717,509.81056648562145
718,509.8316699532513
719,509.8752820223422
720,509.93586287153835
721,510.0070164209334
722,510.0824106238787
723,510.15655719242966
724,510.225352616582
725,510.28634342473316
726,510.3387277683492
727,510.38314251731083
728,510.4213082296116
729,510.4556104736394
730,510.48868888800405
731,510.5230897853102
732,510.56101392828253
733,510.60416055659334
734,510.6536420622923
735,510.70993219660767
736,510.7728184869788
737,510.8413520688103
738,510.9138125726493
739,510.98771790608316
740,511.0599065084248
741,511.12671229689397
742,511.1842435144793
743,511.22875805329045
744,511.2570972824614
745,511.26711299388273
746,511.2580169095867
747,511.2305980361636
748,511.18726739161093
749,511.1318927383647
750,511.06940034817325
751,511.00516798677774
752,510.9443000299279
753,510.890926088545
754,510.8476723370999
755,510.81541729236307
756,510.7933762605869
757,510.77948251644835
758,510.7709693689362
759,510.7650226316855
760,510.75937351471555
761,510.75272649702174
762,510.7449495716208
763,510.7369930879062
764,510.73055302050597
765,510.7275475862887
766,510.729515761218
767,510.73706197783605
768,510.7494631778302
769,510.7645270609411
770,510.77874764865334
771,510.7877488883909
772,510.7869472880002
773,510.77231604342165
774,510.7411088026636
775,510.69240676976153
776,510.62738887133924
777,510.54928256881647
778,510.4630129092434
779,510.37461108772544
780,510.29046748339107
781,510.2165269064967
782,510.15753162595155
783,510.116414574753
784,510.09392394766684
785,510.08852582360373
786,510.09659483043123
787,510.11287086476545
788,510.13113119756224
789,510.1449986584754
790,510.1487817734316
791,510.13823242475644
792,510.1111160256736
793,510.0675128025915
794,510.00980163318286
795,509.94232273502234
796,509.8707723469216
797,509.8014380464088
798,509.7404156944193
799,509.6929417764969
800,509.6629276996719
801,509.6527152768415
802,509.6630182492215
803,509.692995285507
804,509.7404082781109
805,509.80183496349025
806,509.8729174957793
807,509.94864069991354
808,510.0236445922531
809,510.09257855150247
810,510.1504949187147
811,510.19326005282727
812,510.2179353402933
813,510.2230581486749
814,510.20875058192007
815,510.1766148681636
816,510.12943089090743
817,510.07072963738165
818,510.0043479221089
819,509.9340567351213
820,509.8633076431493
821,509.7950948465646
822,509.73191379287545
823,509.67580477491
824,509.6284758034989
825,509.5914877751812
826,509.566458148706
827,509.5552100150419
828,509.5597825890223
829,509.58224352067714
830,509.6243017174512
831,509.68679271816205
832,509.76916766878355
833,509.86913249136774
834,509.9825487378678
835,510.1036448121526
836,510.2255214263121
837,510.3408744895718
838,510.4428069088603
839,510.5255779380371
840,510.58515879932185
841,510.6195165744413
842,510.628615643556
843,510.61418838491346
844,510.57936153962316
845,510.5282220921054
846,510.46538413384553
847,510.39559169423444
848,510.3233639910594
849,510.25267538138405
850,510.186680978994
851,510.127530236457
852,510.076317999902
853,510.03320028604276
854,509.9976686776112
855,509.96894633485226
856,509.94644473953946
857,509.9302006270232
858,509.9211938748059
859,509.9214428198374
860,509.9338069317899
861,509.96149872549597
862,510.0073872091782
863,510.0732314674341
864,510.1590016736252
865,510.26242559785385
866,510.3788477371398
867,510.501426039742
868,510.6216458333976
869,510.7301060044108
870,510.8175018650632
871,510.87567803759146
872,510.8985838996619
873,510.8829774329833
874,510.8287935599207
875,510.7391789997529
876,510.62025175902664
877,510.4806499839373
878,510.3309038470553
879,510.1826291690574
880,510.0475377656017
881,509.9363018308754
882,509.85738332298814
883,509.81600609593295
884,509.8134658313652
885,509.84692243725704
886,509.90972432911684
887,509.9922185669119
888,510.0829323569659
889,510.1699665363068
890,510.24241263592404
891,510.29160112227635
892,510.3120204936986
893,510.3018075359994
894,510.2627762887753
895,510.20000905175016
896,510.12107494599684
897,510.03497756634357
898,509.9509635647202
