acceleration,velocity,displacement
-0.022018302131631966,0.0,0.0
-0.021788462827549218,-1.0951691239795296e-05,-2.737922809948824e-09
-0.021561187579656627,-2.1789103841596757e-05,-1.0923121580296838e-08
-0.021335225977433838,-3.251320723086937e-05,-2.449869934841337e-08
-0.021109309914316452,-4.3124341203806944e-05,-4.340808645708245e-08
-0.02088216320306589,-5.362220948315253e-05,-6.759472412882232e-08
-0.02065251179929482,-6.400587823374271e-05,-9.700174605804614e-08
-0.020419094600283957,-7.42737798336374e-05,-1.3157166057489115e-07
-0.020180674765319002,-8.442372217503814e-05,-1.7124603607706004e-07
-0.0199360514661384,-9.445290373290249e-05,-2.1596519255404517e-07
-0.019684071931283915,-0.00010435793458225806,-2.656679021328353e-07
-0.019423643609494865,-0.00011413486346745276,-3.20291101645263e-07
-0.019153746248230942,-0.0001237792109318842,-3.7976962024509726e-07
-0.01887344366024637,-0.00013328600840900354,-4.440359250803192e-07
-0.01858189493494588,-0.0001426498430578016,-5.130198879470205e-07
-0.018278364848954558,-0.00015186490800377672,-5.86648575712415e-07
-0.01796223324435679,-0.00016092505752710455,-6.648460670951354e-07
-0.01763300316693078,-0.00016982386662992645,-7.475332981343931e-07
-0.017290307584466594,-0.00017855469431777578,-8.346279383713186e-07
-0.01693391454097421,-0.00018711074984913598,-9.260442994130466e-07
-0.016563730656174367,-0.00019548516114842313,-1.0216932771624363e-06
-0.016179802951092954,-0.00020367104455023996,-1.121482328587102e-06
-0.015782319052236978,-0.00021166157505107244,-1.22531548348743e-06
-0.015371605877101353,-0.00021945005628340702,-1.3330933913210499e-06
-0.014948126923941442,-0.00022702998948366773,-1.4447134027628186e-06
-0.0145124782861312,-0.00023439514078618589,-1.560069685330282e-06
-0.014065383502454424,-0.00024153960623333228,-1.6790533720851615e-06
-0.013607687353186926,-0.00024845787394724264,-1.8015527421303054e-06
-0.01314034871628037,-0.0002551448829646095,-1.9274534313582686e-06
-0.012664432594490333,-0.0002615960782923022,-2.0566386716724964e-06
-0.012181101407045137,-0.000267807461792686,-2.1889895566937436e-06
-0.011691605620374827,-0.000273775638549541,-2.3243853317793004e-06
-0.011197273785868222,-0.0002794978584011018,-2.4627037060169612e-06
-0.010699502057900007,-0.0002849720523620439,-2.6038211837077475e-06
-0.01019974326718957,-0.0002901968636933163,-2.7476134127215875e-06
-0.00969949561087162,-0.00029517167341283157,-2.8939555469981246e-06
-0.009200290998453877,-0.00029989662006516297,-3.0427226203676233e-06
-0.008703683082452148,-0.0003043726135853895,-3.1937899287802615e-06
-0.008211235016273535,-0.00030860134311007094,-3.3470334179541266e-06
-0.007724507014098579,-0.000312585278617664,-3.5023300733860603e-06
-0.007245043823964565,-0.0003163276663271798,-3.6595583096222714e-06
-0.006774362258690529,-0.00031983251784784353,-3.818598355666027e-06
-0.006313938960654583,-0.0003231045931526798,-3.979332633416158e-06
-0.0058651986022919995,-0.0003261493775434165,-4.141646126090182e-06
-0.005429502732226975,-0.0003289730528770462,-4.305426733695298e-06
-0.005008139457274869,-0.00033158246342442164,-4.470565612770665e-06
-0.0046023141066185306,-0.000333985076815395,-4.636957497830618e-06
-0.0042131409694727145,-0.0003361889405844178,-4.804501002180572e-06
-0.0038416361440958384,-0.00033820263486280996,-4.973098896042379e-06
-0.0034887114889270384,-0.0003400352217710657,-5.142658360200848e-06
-0.003155169626444985,-0.0003416961920499087,-5.313091213656092e-06
-0.002841699920329295,-0.00034319540943660227,-5.4843141140277195e-06
-0.002548875332803374,-0.00034454305324988546,-5.656248729699341e-06
-0.002277150075457424,-0.0003457495596019507,-5.8288218829123e-06
-0.002026857992836341,-0.0003468255616190241,-6.001965663217543e-06
-0.001798211657758449,-0.0003477818290316728,-6.175617510880218e-06
-0.0015913021994150124,-0.0003486292074959662,-6.349720270012127e-06
-0.0014060999169326653,-0.0003493785580250531,-6.5242222113923824e-06
-0.0012424557425469228,-0.000350040696939923,-6.699077025133626e-06
-0.001100103608212452,-0.00035062633677761284,-6.87424378356301e-06
-0.0009786637459788124,-0.00035114602861616064,-7.049686874911454e-06
-0.0008776469265572003,-0.00035161010628429466,-7.225375908636568e-06
-0.0007964596169386917,-0.00035202863292016864,-7.4012855934376834e-06
-0.000734410014939137,-0.0003524113503281381,-7.57739558924976e-06
-0.000690714893643291,-0.0003527676315552837,-7.753690334720615e-06
-0.0006645071625895607,-0.0003531064370693419,-7.93015885187677e-06
-0.0006548440304033992,-0.0003534362748675901,-8.106794529861003e-06
-0.0006607156412659866,-0.0003537651647855075,-8.283594889774277e-06
-0.0006810540562661659,-0.00035410060720989054,-8.460561332773127e-06
-0.0007147424532577046,-0.0003544495563372715,-8.637698873659917e-06
-0.0007606244165217023,-0.0003548183980547164,-8.815015862257914e-06
-0.0008175131835610835,-0.00035521293245473705,-8.992523694885278e-06
-0.000884200724538119,-0.0003556383609317619,-9.170236518231902e-06
-0.0009594665544519853,-0.0003560992777515094,-9.34817092790272e-06
-0.0010420862079829106,-0.00035659966594211816,-9.526345663826126e-06
-0.0011308393314826209,-0.00035714289732698454,-9.704781304643403e-06
-0.0012245173649929036,-0.0003577317365011034,-9.883499963100425e-06
-0.0013219308007286663,-0.0003583683485425338,-1.0062524984361335e-05
-0.0014219160107683292,-0.000359054310245408,-1.024188064905832e-05
-0.0015233416364119259,-0.0003597906246572031,-1.0421591882783972e-05
-0.0016251145333519455,-0.00036057773869964404,-1.0601683973623184e-05
-0.001726185274947401,-0.00036141556365171885,-1.0782182299211025e-05
-0.0018255532201605813,-0.00036230349827549586,-1.0963112064692829e-05
-0.0019222711396911858,-0.0003632404543654588,-1.1144498052853068e-05
-0.002015449364043632,-0.0003642248844913925,-1.1326364387567281e-05
-0.0021042593847190117,-0.0003652548116785832,-1.1508734311609776e-05
-0.0021879368194435258,-0.0003663278607296238,-1.1691629979711827e-05
-0.0022657836518835068,-0.0003674412908474556,-1.1875072267606096e-05
-0.0023371696723826765,-0.0003685920291785221,-1.2059080597612591e-05
-0.0024015330673571303,-0.0003697767048634571,-1.2243672781123085e-05
-0.0024583801204927955,-0.00037099168316041955,-1.2428864878129055e-05
-0.002507284000570505,-0.00037223309919068537,-1.2614671073716832e-05
-0.0025478826308011336,-0.00037349689084852826,-1.2801103571226636e-05
-0.0025798756718634283,-0.0003747788304241944,-1.2988172501544817e-05
-0.0026030207002543187,-0.0003760745545172238,-1.3175885847780172e-05
-0.0026171287099144877,-0.000377379591869766,-1.336424938437692e-05
-0.0026220590946016103,-0.000378689388820895,-1.3553266629549586e-05
-0.002617714277655776,-0.0003799993321639594,-1.3742938809795799e-05
-0.002604034148587594,-0.00038130476927052023,-1.3933264835154419e-05
-0.0025809904480664212,-0.0003826010254196837,-1.412424128382697e-05
-0.0025485812226383013,-0.0003838834183373599,-1.431586239476623e-05
-0.002506825456853342,-0.0003851472700072328,-1.4508120066852378e-05
-0.0024557579840317084,-0.00038638791586745406,-1.4701003863321049e-05
-0.0023954247690287827,-0.0003876007115557192,-1.4894501020176842e-05
-0.002325878637989704,-0.0003887810374074738,-1.508859645741764e-05
-0.002247175499473436,-0.0003899243009418396,-1.5283272792004967e-05
-0.0021593710624632488,-0.00039102593758232377,-1.547851035163601e-05
-0.0020625180152512657,-0.0003920814098517524,-1.567428718849453e-05
-0.0019566635926051043,-0.0003930862052537165,-1.5870579092270896e-05
-0.0018418474372604776,-0.00039403583301118286,-1.6067359601837122e-05
-0.0017180996641932077,-0.0003949258197865463,-1.6264600015036553e-05
-0.0015854390631322415,-0.00039575170446837763,-1.6462269396100282e-05
-0.001443871418009607,-0.0003965090320886631,-1.666033458023954e-05
-0.0012933879660841955,-0.00039719334693468655,-1.685876017499538e-05
-0.0011339640489223595,-0.0003978001849384382,-1.705750855796366e-05
-0.0009655580155626042,-0.0003983250654545594,-1.725653987056191e-05
-0.000788110427940666,-0.0003987634825654352,-1.7455812007566907e-05
-0.0006015435987062875,-0.00039911089607209694,-1.765528060222629e-05
-0.0004057614743668233,-0.0003993627223403652,-1.7854899006829404e-05
-0.00020064987214248747,-0.00039951432517699255,-1.8054618268708745e-05
1.3922912334114021e-05,-0.00039956100691694466,-1.825438710173223e-05
0.00023810509496221283,-0.00039949799991512055,-1.8454151853440246e-05
0.0004720599466552574,-0.0003993204586547162,-1.8653856468082706e-05
0.000715963836591345,-0.0003990234527089045,-1.8853442445923612e-05
0.0009700037132481062,-0.00039860196082144465,-1.9052848799306198e-05
0.0012343739580483334,-0.00039805086640362056,-1.9252012006112465e-05
0.0015092725574004154,-0.00039736495477475837,-1.945086596140706e-05
0.0017948965692372685,-0.000396538912493099,-1.9649341928224024e-05
0.0020914369035222673,-0.00039556732912490906,-1.9847368488628525e-05
0.002399072481805128,-0.00039444470177857723,-2.0044871496354398e-05
0.0027179638843220126,-0.00039316544268704545,-2.0241774032470804e-05
0.0030482466319520264,-0.00039172389005797694,-2.0437996365657058e-05
0.0033900242742601143,-0.0003901143223314239,-2.0633455918754407e-05
0.003743361454415093,-0.0003883309758992551,-2.0828067243312075e-05
0.004108277099532661,-0.0003863680662607682,-2.1021742003852083e-05
0.004484737851370075,-0.0003842198125230425,-2.1214388973548036e-05
0.004872651816801833,-0.00038188046510599953,-2.1405914042955297e-05
0.0052718626897897,-0.00037934433647935164,-2.1596220243351634e-05
0.0056821442854176904,-0.0003766058347355498,-2.178520778615536e-05
0.006103195532405125,-0.0003736594997810941,-2.197277411978452e-05
0.006534635982321755,-0.0003705000419024124,-2.2158814005205397e-05
0.006976001897761956,-0.00036712238243239147,-2.2343219611289097e-05
0.007426742973071117,-0.0003635216962146832,-2.2525880630950867e-05
0.007886219728006528,-0.00035969345553941377,-2.270668441888939e-05
0.008353701610145472,-0.0003556334752048758,-2.2885516151575462e-05
0.008828365849110358,-0.00035133795834006184,-2.3062259009961696e-05
0.00930929711515805,-0.0003468035425989947,-2.323679438519646e-05
0.009795488038634146,-0.00034202734631054666,-2.3409002107423847e-05
0.010285840647481545,-0.0003370070141390177,-2.357876069753624e-05
0.010779168781266696,-0.00033174076178183067,-2.374594764151645e-05
0.011274201539444941,-0.0003262274192016528,-2.391043968676232e-05
0.011769587814554986,-0.0003204664718631528,-2.407211315952852e-05
0.01226390194658515,-0.00031445809942286777,-2.4230844302350025e-05
0.012755650513234466,-0.00030820321130791285,-2.438650963003272e-05
0.013243280244623004,-0.0003017034786184485,-2.4538986302514312e-05
0.013725187026490157,-0.0002949613618006702,-2.4688152512619092e-05
0.014199725939805627,-0.00028798013355909625,-2.4833887886459035e-05
0.014665222278270799,-0.0002807638965045771,-2.4976073893974953e-05
0.015119983480322409,-0.00027331759506492884,-2.511459426686733e-05
0.015562311896398612,-0.00026564702122074856,-2.524933542093875e-05
0.015990518279603835,-0.00025775881367674796,-2.5380186879663126e-05
0.016402935844329548,-0.0002496604501457646,-2.5507041695618754e-05
0.01679793469341977,-0.00024136023251132726,-2.5629796866283027e-05
0.01717393637672655,-0.00023286726474379068,-2.5748353740596807e-05
0.017529428312042752,-0.00022419142357159836,-2.5862618412675653e-05
0.017862977775809384,-0.00021534332204963533,-2.5972502099080962e-05
0.01817324516565034,-0.0002063342663142704,-2.6077921496171938e-05
0.018458996254905907,-0.00019717620595913134,-2.6178799114240287e-05
0.018719113194938,-0.00018788167859667035,-2.6275063585379236e-05
0.018952604067731357,-0.000178463749281003,-2.6366649942348653e-05
0.019158610847358485,-0.00016893594555223056,-2.6453499866056962e-05
0.019336415689801177,-0.00015931218891794064,-2.6535561899674504e-05
0.019485445528055978,-0.00014960672361347634,-2.661279162780736e-05
0.019605274996621833,-0.0001398340434823069,-2.6685151819581303e-05
0.01969562774284286,-0.00013000881779744072,-2.675261253490124e-05
0.019756376200874743,-0.00012014581681151131,-2.681515119355348e-05
0.019787539911616834,-0.00011025983778338842,-2.6872752607202206e-05
0.01978928247907197,-0.00010036563218571622,-2.692540897469448e-05
0.019761907266303128,-9.047783474937244e-05,-2.6973119841428252e-05
0.019705851948179066,-8.06108949457519e-05,-2.7015892023852033e-05
0.019621682045477516,-7.077901144733774e-05,-2.7053739500450306e-05
0.019510083564130337,-6.099607004493578e-05,-2.7086683270823375e-05
0.019371854861164974,-5.127558543861195e-05,-2.7114751184694263e-05
0.01920789786302009,-4.163064725756568e-05,-2.713797774286831e-05
0.019019208773987488,-3.207387059831378e-05,-2.7156403872332278e-05
0.01880686842525303,-2.261735129850365e-05,-2.717007667780648e-05
0.01857203241929313,-1.327262608736711e-05,-2.717904917215295e-05
0.018315921220214085,-4.050637677490307e-06,-2.7183379988094166e-05
0.018039810336065686,5.038295211579637e-06,-2.7183133073710644e-05
0.01774502073472239,1.3984502979276656e-05,-2.717837737416293e-05
0.017432909618287383,2.27789855675291e-05,-2.716918650202623e-05
0.01710486164582581,3.14134283835574e-05,-2.7155638398538457e-05
0.016762280650714386,3.988021395769245e-05,-2.7137814987953146e-05
0.016406581860398842,4.817242958547076e-05,-2.7115801827067356e-05
0.016039184597196162,5.6283871199869505e-05,-2.7089687751871022e-05
0.015661505419293023,6.420904370399181e-05,-2.7059564523145057e-05
0.015274951652786514,7.194315797201169e-05,-2.7025526472726057e-05
0.014880915267690307,7.94821247021309e-05,-2.6987670152057522e-05
0.01448076705734589,8.682254528338995e-05,-2.694609398456114e-05
0.01407585108467629,9.396169981889549e-05,-2.6900897923285567e-05
0.013667479359153056,0.00010089753242985283,-2.685218311522338e-05
0.01325692671143985,0.00010762863394750105,-2.6800051573629042e-05
0.012845425845672366,0.00011415422208677911,-2.6744605859620472e-05
0.012434162573397382,0.00012047411919154655,-2.668594877430089e-05
0.012024271261121927,0.00012658872765017638,-2.662418306259046e-05
0.011616830544625529,0.00013249900310161324,-2.6559411129902513e-05
0.011212859374167787,0.00013820642558131158,-2.6491734772731782e-05
0.010813313458541042,0.00014371296878948879,-2.6421254924139083e-05
0.010419082170635781,0.000149021067696783,-2.6348071415017514e-05
0.010030985955353787,0.00015413358472828037,-2.627228275191125e-05
0.009649774245958767,0.00015905377477860852,-2.6193985912034526e-05
0.009276123867617189,0.0001637852493070025,-2.6113276156013122e-05
0.008910637904142192,0.00016833193974994236,-2.6030246858748886e-05
0.008553845019385654,0.00017269806048082433,-2.5944989358691195e-05
0.008206199236196192,0.0001768880715447198,-2.585759282568481e-05
0.007868080172004964,0.00018090664139677008,-2.5768144147449437e-05
0.007539793720588545,0.00018475860986991846,-2.5676727834632766e-05
0.007221573171042127,0.00018844895159282613,-2.558342594426708e-05
0.0069135807694663065,0.00019198274007795323,-2.5488318021349385e-05
0.006615909741530197,0.00019536511270570235,-2.539148105815347e-05
0.00632858679096064,0.00019860123683882507,-2.529298947076734e-05
0.0060515750695342456,0.0002016962773039488,-2.5192915092231644e-05
0.005784777586290016,0.00020465536546790487,-2.509132718153868e-05
0.00552804099723712,0.00020748357011378664,-2.498829244764326e-05
0.005281159700448498,0.00021018587028820806,-2.488387508754276e-05
0.005043880155708742,0.00021276713025224737,-2.477813683740765e-05
0.00481590534516085,0.00021523207662746478,-2.467113703568772e-05
0.0045968992895041964,0.00021758527778613105,-2.456293269708432e-05
0.004386491540357434,0.00021983112549359645,-2.4453578596264387e-05
0.004184281587500463,0.00022197381877556093,-2.4343127360197096e-05
0.003989843144126549,0.0002240173499584677,-2.423162956801359e-05
0.003802728298760003,0.00022596549281918933,-2.4119133857319174e-05
0.003622471550717917,0.0002278217927815588,-2.400568703591899e-05
0.0034485937764502763,0.00022958955911335085,-2.389133419794526e-05
0.0032806061952901444,0.00023127185910628596,-2.377611884339035e-05
0.003118014403288588,0.00023287151425593065,-2.3660083000049796e-05
0.0029603225262747504,0.00023439109848832147,-2.3543267346863734e-05
0.0028070375221226408,0.00023583293850042082,-2.342571133761655e-05
0.002657673645080357,0.00023719911629222157,-2.330745332391839e-05
0.002511757071044296,0.00023849147397125273,-2.318853067635252e-05
0.0023688306714569705,0.00023971162090687803,-2.3068979902632988e-05
0.0022284589140490136,0.00024086094330325454,-2.2948836761580453e-05
0.0020902328546172303,0.0002419406162454211,-2.2828136371693285e-05
0.001953775159026981,0.00024295161824883216,-2.270691331306972e-05
0.001818745062473143,0.00024389474830420718,-2.258520172143146e-05
0.0016848431454086121,0.0002447706453561776,-2.2463035373016363e-05
0.0015518157915693188,0.0002455798100904221,-2.2340447759154715e-05
0.001419459194009161,0.0002463226288368167,-2.2217472149422906e-05
0.0012876227838730205,0.00024699939933128725,-2.209414164238088e-05
0.0011562119657559688,0.0002476103580186945,-2.1970489203043385e-05
0.001025190049981354,0.0002481557085226288,-2.1846547686408053e-05
0.0008945792809928818,0.0002486356508553724,-2.1722349846563553e-05
0.0007644608782667178,0.0002490504108951873,-2.1597928331125913e-05
0.0006349740321946265,0.00024940026962280264,-2.1473315660996415e-05
0.0005063138290349738,0.00024968559158811,-2.1348544195693685e-05
0.00037872811450078136,0.000249906852073994,-2.122364608477816e-05
0.00025251334157885954,0.0002500646624380139,-2.1098653206150157e-05
0.00012800947781073374,0.0002501597931428613,-2.097359709225494e-05
5.594067448155999e-06,0.00025019319402917604,-2.084850884546193e-05
-0.00011432443912791495,0.0002501660114362561,-2.072341904409557e-05
-0.00023131395653394957,0.00025007960183734065,-2.059835764077717e-05
-0.0003449264847597074,0.00024993554172701726,-2.0473353854886082e-05
-0.0004547061146173827,0.000249735633577173,-2.0348436061060035e-05
-0.0005601971479325068,0.0002494819077615355,-2.0223631675725357e-05
-0.0006609521661122906,0.0002491766204330243,-2.0098967043676717e-05
-0.0007565399005257244,0.0002488222474163648,-1.997446732671437e-05
-0.0008465527873455471,0.000248421474244397,-1.985015639629918e-05
-0.0009306141112623205,0.000247977182519745,-1.9726056732108144e-05
-0.0010083846505933734,0.0002474924328292811,-1.9602189328270888e-05
-0.0010795687401234486,0.00024697044448160186,-1.9478573608943166e-05
-0.001143919676828651,0.00024641457237736385,-1.9355227354728424e-05
-0.0012012444069981277,0.00024582828135640716,-1.9232166641294982e-05
-0.0012514074455484538,0.0002452151183932705,-1.9109405791357564e-05
-0.001294333984979332,0.0002445786830356386,-1.8986957341000335e-05
-0.0013300121530755084,0.00024392259650112488,-1.8864832021116145e-05
-0.0013584943794717676,0.00024325046986798805,-1.874303875452387e-05
-0.0013798978355734762,0.00024256587181422675,-1.8621584669103313e-05
-0.0013944039222403457,0.0002418722963747733,-1.8500475127056062e-05
-0.001402256793607451,0.00024117313119581134,-1.8379713770163415e-05
-0.0014037609171285866,0.00024047162676812733,-1.825930258067243e-05
-0.0013992776717410514,0.00023977086712090992,-1.8139241957200173e-05
-0.0013892209784942993,0.00023907374245835109,-1.8019530804805358e-05
-0.0013740519545281885,0.00023838292422509547,-1.7900166638134496e-05
-0.001354272596501965,0.00023770084308733793,-1.7781145696306387e-05
-0.0013304185313457264,0.000237029670305376,-1.7662463067958207e-05
-0.0013030509057328683,0.00023637130294610636,-1.7544112824645338e-05
-0.0012727475115320718,0.00023572735334179013,-1.7426088160573364e-05
-0.0012400932645966628,0.00023509914314775795,-1.7308381536450977e-05
-0.001205670174844188,0.00023448770228789772,-1.719098482509206e-05
-0.001170046972512322,0.0002338937730010586,-1.707388945626982e-05
-0.001133768590001165,0.00023331781911043023,-1.695708655824195e-05
-0.001097345730329443,0.00023276004053034757,-1.6840567093331754e-05
