frame_number,force
0,490.4371758398
1,490.4486921812349
2,490.46008004792236
3,490.4714020930041
4,490.48272185630077
5,490.49410328252384
6,490.5056102090149
7,490.51730582465956
8,490.52925210267006
9,490.54150921181656
10,490.5541349129323
11,490.56718394945375
12,490.5807074422136
13,490.59475229986407
14,490.6093606571199
15,490.624569353126
16,490.64040946155063
17,490.65690588281075
18,490.67407700744343
19,490.6919344578489
20,490.7104829129448
21,490.72972001669297
22,490.74963636786873
23,490.77021558592526
24,490.7914344467922
25,490.8132630825806
26,490.83566523961434
27,490.8585985892842
28,490.8820150859962
29,490.9058613666608
30,490.9300791870331
31,490.9546058911699
32,490.97937491059866
33,491.00431628952776
34,491.0293572323373
35,491.0544226702752
36,491.0794358453952
37,491.10431891029475
38,491.128993541519
39,491.1533815628861
40,491.1774055731619
41,491.2009895708356
42,491.22405956717904
43,491.24654417747297
44,491.26837517988344
45,491.289488032456
46,491.3098223408971
47,491.32932227256697
48,491.3479369147877
49,491.36562057792764
50,491.3823330457386
51,491.3980397769243
52,491.41271206260643
53,491.4263271440329
54,491.4388682935696
55,491.4503248600307
56,491.4606922772917
57,491.4699720335462
58,491.47817159799223
59,491.48530430225065
60,491.4913891749963
61,491.49645072958015
62,491.5005187056014
63,491.5036277665402
64,491.5058171568096
65,491.5071303228943
66,491.5076145043533
67,491.50732030108054
68,491.50630122328477
69,491.5046132305209
70,491.5023142662216
71,491.49946379437716
72,491.4961223446003
73,491.49235107058286
74,491.48821132545487
75,491.48376425632665
76,491.4790704193732
77,491.4741894161403
78,491.4691795514357
79,491.4640975131837
80,491.45899807453605
81,491.45393381812465
82,491.44895488212705
83,491.44410872846925
84,491.4394399349823
85,491.43499001496093
86,491.4307972685874
87,491.42689667070846
88,491.4233197986455
89,491.42009480266233
90,491.41724642093715
91,491.4147960402996
92,491.41276180299025
93,491.4111587578284
94,491.4099990517001
95,491.40929215495385
96,491.40904511281417
97,491.4092628144628
98,491.4099482717994
99,491.4111029007876
100,491.41272679930734
101,491.4148190161176
102,491.417377805858
103,491.4204008654109
104,491.4238855478664
105,491.42782905186704
106,491.43222858605526
107,491.43708151042847
108,491.4423854582387
109,491.44813844314467
110,491.45433895620374
111,491.46098605593664
112,491.46807945253335
113,491.47561958506026
114,491.4836076890543
115,491.4920458514809
116,491.5009370505472
117,491.51028517886
118,491.52009504928117
119,491.53037238305967
120,491.54112377938213
121,491.55235666476295
122,491.56407922006395
123,491.5763002824493
124,491.5890292191703
125,491.60227576991366
126,491.6160498549978
127,491.6303613482189
128,491.6452198153226
129,491.6606342213624
130,491.67661261238084
131,491.69316177879494
132,491.7102869090652
133,491.7279912422059
134,491.7462757265803
135,491.76513869073824
136,491.78457553027755
137,491.80457841331884
138,491.82513600662764
139,491.846233224709
140,491.86785100479193
141,491.8899661108232
142,491.9125509691559
143,491.93557353795615
144,491.95899721212203
145,491.98278076587354
146,492.00687833564575
147,492.0312394461166
148,492.0558090822349
149,492.0805278101774
150,492.1053319501281
151,492.13015380341864
152,492.1549219358461
153,492.17956151790656
154,492.2039947213697
155,492.2281411703939
156,492.2519184445712
157,492.27524263097115
158,492.29802892200644
159,492.3201922551501
160,492.34164798889975
161,492.36231260719944
162,492.3821044423282
163,492.4009444043719
164,492.4187567037991
165,492.43546955248047
166,492.45101582822207
167,492.46533368879165
168,492.4783671232008
169,492.4900664303483
170,492.5003886179374
171,492.50929771763435
172,492.5167650153108
173,492.5227691975784
174,492.527296417495
175,492.53034028323907
176,492.53190177392804
177,492.5319890871135
178,492.53061742312264
179,492.52780871211763
180,492.52359129011523
181,492.51799953016825
182,492.5110734348
183,492.5028581959886
184,492.49340372960387
185,492.48276419183554
186,492.470997485368
187,492.4581647628462
188,492.4443299349501
189,492.4295591901722
190,492.4139205325595
191,492.3974833419189
192,492.38031795880676
193,492.36249529469103
194,492.3440864662177
195,492.32516245153295
196,492.3057937661995
197,492.28605015634713
198,492.26600030702616
199,492.24571156393097
200,492.22524966668385
201,492.2046784920236
202,492.18405980589483
203,492.1634530246393
204,492.1429149868907
205,492.1224997388356
206,492.10225833605455
207,492.08223866534746
208,492.0624852896837
209,492.0430393183229
210,492.02393830241135
211,492.00521615498997
212,491.9869030942111
213,491.96902560933614
214,491.95160644966023
215,491.93466463631626
216,491.91821549643544
217,491.90227071921464
218,491.88683843416635
219,491.8719233124613
220,491.85752669211803
221,491.84364672681727
222,491.83027855672435
223,491.8174144983764
224,491.80504424987146
225,491.7931551073088
226,491.78173218829454
227,491.7707586582305
228,491.7602159554086
229,491.7500840118408
230,491.7403414679756
231,491.73096588073486
232,491.72193392571444
233,491.7132215959221
234,491.70480440048556
235,491.696657566772
236,491.6887562484816
237,491.6810757412171
238,491.6735917061739
239,491.6662804018941
240,491.65911892346776
241,491.6520854480899
242,491.6451594851787
243,491.63832212800816
244,491.63155630219734
245,491.6248470050131
246,491.61818152874434
247,491.6115496614284
248,491.60494385865354
249,491.59835938061696
250,491.5917943889436
251,491.5852499982148
252,491.5787302780184
253,491.5722422026361
254,491.56579554707133
255,491.5594027298956
256,491.55307860519946
257,491.5468402074161
258,491.5407064537996
259,491.53469781018833
260,491.52883592667746
261,491.52314325078135
262,491.51764262631207
263,491.51235688650866
264,491.50730844975294
265,491.50251892521584
266,491.498008734314
267,491.49379675276646
268,491.4898999776344
269,491.48633322353623
270,491.48310885178785
271,491.48023653554964
272,491.477723063445
273,491.4755721837829
274,491.4737844914332
275,491.4723573593536
276,491.47128491654695
277,491.47055807373124
278,491.4701645973053
279,491.47008923160536
280,491.4703138693575
281,491.4708177706097
282,491.4715778306
283,491.47256889625476
284,491.47376412942015
285,491.47513541324855
286,491.47665379686725
287,491.47828997244875
288,491.4800147777705
289,491.48179971600246
290,491.48361748273027
291,491.485442488639
292,491.48725136570454
293,491.4890234453495
294,491.4907411979947
295,491.4923906240226
296,491.4939615866725
297,491.4954480785989
298,491.4968484159245
299,491.498165356117
300,491.49940613852675
301,491.5005824486884
302,491.501710309004
303,491.5028098989488
304,491.5039053082529
305,491.5050242276469
306,491.5061975837347
307,491.50745912649217
308,491.5088449791969
309,491.51039316118596
310,491.512143093625
311,491.51413509755423
312,491.5164098923302
313,491.51900810156087
314,491.5219697726318
315,491.52533391493256
316,491.5291380612271
317,491.5334178563482
318,491.53820667713296
319,491.54353528686687
320,491.54943152651674
321,491.55592004394686
322,491.5630220611813
323,491.5707551784615
324,491.57913321241705
325,491.5881660646622
326,491.59785961706564
327,491.6082156506875
328,491.6192317866013
329,491.63090144849144
330,491.6432138488454
331,491.656154002048
332,491.6697027682266
333,491.68383693145097
334,491.69852931525736
335,491.71374893749396
336,491.72946120507714
337,491.745628147479
338,491.76220868575274
339,491.77915893182654
340,491.7964325112172
341,491.81398090195137
342,491.83175378337233
343,491.8496993898422
344,491.8677648652415
345,491.88589661428904
346,491.9040406462333
347,491.92214290591744
348,491.9401495873054
349,491.9580074255475
350,491.97566396497723
351,491.99306780125676
352,492.0101687961251
353,492.02691826347433
354,492.04326912630904
355,492.0591760452987
356,492.0745955204259
357,492.089485967405
358,492.1038077706965
359,492.1175233157135
360,492.13059700393336
361,492.14299525500235
362,492.154686499048
363,492.16564116098675
364,492.17583163765624
365,492.1852322684228
366,492.1938193002354
367,492.2015708486448
368,492.2084668568831
369,492.2144890554667
370,492.21962092485995
371,492.2238476637007
372,492.22715616500443
373,492.22953500229534
374,492.23097442651556
375,492.2314663732102
376,492.23100447849043
377,492.229584101706
378,492.2272023522424
379,492.2238581173306
380,492.2195520876189
381,492.214286777748
382,492.2080665400448
383,492.20089757028256
384,492.19278790500505
385,492.1837474101507
386,492.1737877607775
387,492.1629224118602
388,492.1511665605389
389,492.1385371007102
390,492.12505257136934
391,492.110733100605
392,492.0956003474328
393,492.07967744333126
394,492.06298893444216
395,492.04556072465203
396,492.0274200197902
397,492.0085952735423
398,491.9891161354665
399,491.9690134005124
400,491.9483189583298
401,491.92706573996696
402,491.9052876593164
403,491.88301954662853
404,491.86029707144303
405,491.83715665248724
406,491.8136353527147
407,491.78977075876026
408,491.7656008453324
409,491.741163826105
410,491.7164979934704
411,491.6916415501049
412,491.6666324355791
413,491.64150815119575
414,491.6163055859602
415,491.5910608461227
416,491.5658090901273
417,491.540584370502
418,491.5154194846756
419,491.4903458376061
420,491.46539331960963
421,491.4405902025156
422,491.4159630565017
423,491.39153668888724
424,491.36733410486306
425,491.34337648889834
426,491.3196832047565
427,491.29627181181155
428,491.27315809562236
429,491.25035611138173
430,491.22787823959675
431,491.20573525367274
432,491.18393639868975
433,491.16248947958945
434,491.14140095548186
435,491.12067603530625
436,491.10031876912603
437,491.08033212918446
438,491.0607180755566
439,491.0414776027055
440,491.02261076522854
441,491.00411668332765
442,490.9859935308396
443,490.968238510599
444,490.9508478230364
445,490.93381663420627
446,490.9171390491328
447,490.9008080954124
448,490.8848157203212
449,490.8691528027106
450,490.8538091796504
451,490.83877368745425
452,490.8240342168357
453,490.80957778198757
454,490.79539060348145
455,490.78145820520535
456,490.76776552571744
457,490.75429704406935
458,490.74103691956714
459,490.72796914453875
460,490.7150777091903
461,490.70234677806644
462,490.6897608782135
463,490.67730509947506
464,490.6649653072919
465,490.6527283680322
466,490.64058238605986
467,490.6285169502748
468,490.61652338622076
469,490.6045950089592
470,490.59272737209557
471,490.58091850924103
472,490.56916916530065
473,490.5574830160703
474,490.54586687548857
475,490.53433089004903
476,490.5228887189086
477,490.5115576961727
478,490.50035896928904
479,490.4893176052692
480,490.4784626551414
481,490.4678271665584
482,490.4574481348306
483,490.44736638432
484,490.4376263753364
485,490.42827593551726
486,490.4193659178133
487,490.4109497890725
488,490.40308315411346
489,490.395823220716
490,490.3892282117285
491,490.3833567318343
492,490.378267098365
493,490.37401664748535
494,490.370661028678
495,490.3682535013722
496,490.36684424740827
497,490.3664797115677
498,490.36720197999
499,490.3690482038796
500,490.3720500742503
501,490.3762333526577
502,490.381617462621
503,490.3882151465083
504,490.3960321928843
505,490.4050672393415
506,490.41531165521076
507,490.4267495072179
508,490.4393576094921
509,490.4531056575441
510,490.46795644372696
511,490.48386614919394
512,490.50078470493526
513,490.51865621282553
514,490.5374194171773
515,490.557008218
516,490.57735221865045
517,490.59837730234966
518,490.6200062334859
519,490.6421592800268
520,490.664754852336
521,490.68771015165674
522,490.7109418196817
523,490.7343665800158
524,490.7579018630552
525,490.7814664073191
526,490.80498083203275
527,490.828368177507
528,490.8515544115992
529,490.8744689023301
530,490.89704485817873
531,490.91921973796826
532,490.9409356314137
533,490.9621396101768
534,490.9827840486079
535,491.0028269132049
536,491.02223201957656
537,491.0409692553091
538,491.05901476690934
539,491.0763511087609
540,491.092967351285
541,491.1088591443607
542,491.1240287313147
543,491.138484908996
544,491.1522429304739
545,491.1653243483321
546,491.1777567980857
547,491.18957372251737
548,491.20081403812657
549,491.211521744242
550,491.2217454744862
551,491.231537990277
552,491.24095561706497
553,491.250057625441
554,491.25890556079867
555,491.2675625270388
556,491.276092431882
557,491.2845592034788
558,491.29302598980536
559,491.3015543533928
560,491.3102034740325
561,491.3190293713674
562,491.3280841583004
563,491.3374153356527
564,491.3470651388035
565,491.3570699476595
566,491.3674597713594
567,491.3782578180477
568,491.38948015797376
569,491.40113548566814
570,491.41322498449233
571,491.4257422944917
572,491.43867358220876
573,491.45199770910875
574,491.4656864934463
575,491.47970505841863
576,491.4940122574745
577,491.50856116650664
578,491.523299632787
579,491.5381708711391
580,491.55311409792114
581,491.56806519291524
582,491.58295737909367
583,491.5977219109756
584,491.6122887635657
585,491.6265873149991
586,491.64054701644966
587,491.65409804254995
588,491.6671719151453
589,491.67970209332094
590,491.69162452339225
591,491.70287814366696
592,491.7134053400163
593,491.72315234949514
594,491.7320696105655
595,491.7401120600515
596,491.74723937836575
597,491.7534161851294
598,491.75861218697844
599,491.7628022786449
600,491.76596659801686
601,491.7680905362528
602,491.7691647050996
603,491.7691848647394
604,491.7681518161865
605,491.76607126234364
606,491.76295364166305
607,491.75881393839
608,491.7536714736139
609,491.74754968142355
610,491.7404758741206
611,491.73248099985176
612,491.72359939525296
613,491.71386853463736
614,491.703328776209
615,491.6920231052917
616,491.67999687455875
617,491.6672975410996
618,491.65397439965795
619,491.64007831100184
620,491.6256614246563
621,491.6107768961396
622,491.59547859979943
623,491.5798208386866
624,491.5638580525143
625,491.5476445241667
626,491.53123408506934
627,491.51467982018585
628,491.4980337739926
629,491.4813466588759
630,491.46466756701403
631,491.4480436867027
632,491.43152002471845
633,491.4151391372279
634,491.39894087232295
635,491.38296212744564
636,491.3672366252313
637,491.35179471192396
638,491.3366631832716
639,491.3218651432056
640,491.3074199002694
641,491.29334290551066
642,491.27964573361976
643,491.26633610725344
644,491.25341796332617
645,491.2408915592869
646,491.2287536164544
647,491.2169974966036
648,491.2056134078864
649,491.1945886368503
650,491.18390780402905
651,491.1735531406431
652,491.163504783229
653,491.15374108181175
654,491.1442389160185
655,491.1349740125123
656,491.1259212562451
657,491.11705498758266
658,491.1083492781217
659,491.09977818027295
660,491.09131594874066
661,491.08293723487196
662,491.07461725687426
663,491.06633194982834
664,491.05805809925874
665,491.04977346122456
666,491.04145687137236
667,491.0330883458126
668,491.0246491778551
669,491.01612203582226
670,491.0074910676105
671,490.99874201686436
672,490.989862353504
673,490.98084141857663
674,490.97167058091736
675,490.9623434014264
676,490.9528557999671
677,490.9432062198557
678,490.93339578536995
679,490.92342844822423
680,490.913311119198
681,490.9030537810668
682,490.8926695790074
683,490.8821748851601
684,490.87158933515155
685,490.86093583572205
686,490.8502405435664
687,490.83953281597707
688,490.8288451342632
689,490.81821300148385
690,490.80767481645387
691,490.7972717257329
692,490.78704745441013
693,490.7770481155534
694,490.7673219979475
695,490.75791933251486
696,490.7488920391302
697,490.740293456436
698,490.73217805714484
699,490.7246011503577
700,490.7176185712419
701,490.7112863576193
702,490.70566041301885
703,490.70079615654413
704,490.696748161094
705,490.69356978249385
706,490.69131278252956
707,490.69002694855294
708,490.68975971141356
709,490.69055576247194
710,490.692456669987
711,490.6955004955891
712,490.6997214128669
713,490.70514933209347
714,490.7118095373422
715,490.7197223440811
716,490.72890278633855
717,490.73936034263
718,490.7510987092051
719,490.7641156280741
720,490.7784027758514
721,490.7939457177139
722,490.81072392867645
723,490.82871088214944
724,490.8478742038575
725,490.86817588798004
726,490.8895725714765
727,490.9120158614138
728,490.9354527086433
729,490.95982581963284
730,490.98507409679075
731,491.0111330965235
732,491.03793549432544
733,491.0654115478794
734,491.0934895517746
735,491.12209627966837
736,491.15115741062425
737,491.1805979360617
738,491.210342543174
739,491.2403159707213
740,491.2704433338912
741,491.30065041586084
742,491.3308639242921
743,491.36101171121516
744,491.39102295492677
745,491.4208283030095
746,491.450359976444
747,491.47955183571173
748,491.50833941048825
749,491.53665989502196
750,491.5644521118558
751,491.59165644761015
752,491.6182147663783
753,491.64407030846746
754,491.66916758371786
755,491.69345226878534
756,491.7168711169107
757,491.7393718875923
758,491.7609033025635
759,491.7814150335433
760,491.8008577264627
761,491.81918306633764
762,491.836343886467
763,491.85229432489547
764,491.8669900299121
765,491.88038841459513
766,491.89244895788977
767,491.9031335466705
768,491.91240685059245
769,491.9202367199796
770,491.92659459637895
771,491.93145592513906
772,491.934800559267
773,491.9366131441205
774,491.9368834733737
775,491.93560680800095
776,491.93278415151525
777,491.92842247621167
778,491.92253489647635
779,491.91514078594145
780,491.906265835272
781,491.8959420472432
782,491.8842076662824
783,491.8711070410232
784,491.8566904204606
785,491.8410136867746
786,491.82413803028624
787,491.8061295737267
788,491.7870589539479
789,491.7670008697036
790,491.74603360434884
791,491.7242385321059
792,491.70169961564295
793,491.67850290108004
794,491.6547360147829
795,491.6304876652195
796,491.6058471529316
797,491.58090389190545
798,491.5557469459896
799,491.5304645843701
800,491.5051438601063
801,491.4798702149213
802,491.45472711210397
803,491.4297956982629
804,491.4051544940984
805,491.3808791140245
806,491.35704201421134
807,491.33371226863994
808,491.31095537309506
809,491.2888330771609
810,491.2674032436979
811,491.2467197341151
812,491.2268323167668
813,491.2077865956471
814,491.1896239571682
815,491.1723815334977
816,491.15609218114525
817,491.14078447333986
818,491.1264827046485
819,491.11320690633596
820,491.10097287113103
821,491.08979218653997
822,491.07967227662556
823,491.07061645271125
824,491.0626239734751
825,491.05569011486426
826,491.04980625080765
827,491.04495994673465
828,491.041135068713
829,491.03831191105354
830,491.03646734434994
831,491.03557498435106
832,491.03560538042876
833,491.0365262215197
834,491.0383025574952
835,491.0408970342776
836,491.0442701410448
837,491.0483804678151
838,491.0531849720979
839,491.05863925380686
840,491.06469783750316
841,491.07131446016996
842,491.078442361739
843,491.0860345752857
844,491.09404421456884
845,491.1024247579004
846,491.1111303280583
847,491.12011596756685
848,491.12933790773985
849,491.13875382925113
850,491.148323111884
851,491.158007071349
852,491.16776918142733
853,491.17757527992705
854,491.1873937567934
855,491.1971957221434
856,491.2069551510974
857,491.2166490012951
858,491.2262572982221
859,491.2357631832103
860,491.24515291941367
861,491.2544158523512
862,491.2635443237235
863,491.27253353984185
864,491.2813813985273
865,491.2900882800292
866,491.29865680808666
867,491.3070915870428
868,491.31539892040206
869,491.3235865155207
870,491.3316631782188
871,491.3396385003034
872,491.3475225428355
873,491.35532551880107
874,491.3630574804451
875,491.37072801808927
876,491.37834597777197
877,491.3859192041563
878,491.39345431358356
879,491.4009565011112
880,491.40842938524827
881,491.4158748941068
882,491.4232931958393
883,491.43068267433955
884,491.4380399489343
885,491.4453599352494
886,491.45263594428417
887,491.45985981751
888,491.46702209615813
889,491.47411222189857
890,491.48111876431227
891,491.48802966886916
892,491.49483251781567
893,491.5015147952963
894,491.5080641473926
895,491.51446862793495
896,491.5207169218629
897,491.5267985392074
