frame_number,force
0,490.60813851526814
1,490.6162643383361
2,490.62018886538567
3,490.61996660202215
4,490.61576293982966
5,490.6078546330357
6,490.59662694511377
7,490.58256712829456
8,490.56625401318166
9,490.5483437371193
10,490.52955195570354
11,490.5106331593302
12,490.4923579296104
13,490.47548914879445
14,490.4607583109974
15,490.44884312306846
16,490.4403475068316
17,490.43578497268936
18,490.43556617362356
19,490.4399912356578
20,490.44924711745546
21,490.46340977756375
22,490.4824504579591
23,490.5062450944812
24,490.53458580440235
25,490.56719352039187
26,490.60373100929445
27,490.64381562372915
28,490.68703119509394
29,490.7329385953124
30,490.78108471498814
31,490.8310098342211
32,490.8822534860261
33,490.9343589357524
34,490.98687644114915
35,491.039365610489
36,491.09139738547213
37,491.14255628283354
38,491.19244343707254
39,491.24068074206497
40,491.2869161012761
41,491.33082952160623
42,491.3721395183085
43,491.41060906460206
44,491.44605021668747
45,491.4783266497815
46,491.50735362800447
47,491.53309529819427
48,491.55555954832846
49,491.5747909675263
50,491.5908626840317
51,491.60386801542563
52,491.61391289481827
53,491.6211099087374
54,491.6255745020732
55,491.6274235197817
56,491.6267758520215
57,491.6237546301359
58,491.61849026213656
59,491.61112361017695
60,491.6018087337531
61,491.5907147663499
62,491.5780266244125
63,491.56394437938366
64,491.54868127643886
65,491.53246055145166
66,491.5155113413018
67,491.4980640558394
68,491.4803455741848
69,491.46257459845395
70,491.4449575129337
71,491.4276851309513
72,491.4109306576181
73,491.39484902062014
74,491.3795775101312
75,491.365237504502
76,491.3519369465976
77,491.33977316639425
78,491.3288356369185
79,491.3192082968525
80,491.31097110741854
81,491.304200498001
82,491.298968373934
83,491.29533951550826
84,491.29336748441347
85,491.2930894633196
86,491.2945206680775
87,491.29764903133287
88,491.3024307853291
89,491.3087874604201
90,491.31660474569384
91,491.32573361558144
92,491.33599401486066
93,491.34718114568363
94,491.35907405278846
95,491.37144587548624
96,491.38407493381055
97,491.3967557687472
98,491.40930933191044
99,491.42159167348956
100,491.43350064420304
101,491.4449802387042
102,491.4560222583593
103,491.46666502904793
104,491.4769890451486
105,491.4871096382607
106,491.49716705777485
107,491.5073146566223
108,491.5177061407298
109,491.5284829848056
110,491.5397630741429
111,491.551631395406
112,491.56413323412
113,491.57726996334316
114,491.59099724651844
115,491.6052253797874
116,491.6198215426732
117,491.63461384281044
118,491.64939713420256
119,491.66394058109375
120,491.67799682668294
121,491.69131246740517
122,491.70363938685983
123,491.7147463783047
124,491.72443036949323
125,491.7325264869814
126,491.73891623047984
127,491.74353321241483
128,491.74636620558806
129,491.74745954858196
130,491.7469112514795
131,491.744869404818
132,491.7415276439686
133,491.7371203855696
134,491.731918353932
135,491.72622463442104
136,491.72037120342236
137,491.71471566558216
138,491.7096378480367
139,491.70553596185016
140,491.70282215717424
141,491.70191736387784
142,491.7032452852465
143,491.7072253622164
144,491.71426455170325
145,491.7247478891105
146,491.73902795725934
147,491.75741349959577
148,491.7801575120254
149,491.80744525361706
150,491.83938270998317
151,491.8759860901209
152,491.9171729272366
153,491.962755287502
154,492.01243548545887
155,492.0658046078502
156,492.12234411005693
157,492.1814307792046
158,492.242345390781
159,492.30428532189774
160,492.3663811782916
161,492.42771718671673
162,492.4873547826469
163,492.54435853483216
164,492.5978232907009
165,492.6469012187273
166,492.6908273430894
167,492.72894225385727
168,492.7607108872224
169,492.78573655613746
170,492.803769759516
171,492.8147116753363
172,492.8186125858024
173,492.81566574090965
174,492.80619731453976
175,492.79065313653626
176,492.76958283176754
177,492.7436219438693
178,492.71347261706865
179,492.679883422264
180,492.6436288824513
181,492.6054891679863
182,492.566230346501
183,492.5265855476807
184,492.4872374519998
185,492.44880257872524
186,492.41181786065135
187,492.37672995089264
188,492.34388767343904
189,492.31353800615096
190,492.2858258767143
191,492.2607978075934
192,492.2384091438318
193,492.21853434000076
194,492.20097960246324
195,492.1854970817286
196,492.1717997972126
197,492.1595765460022
198,492.14850615101756
199,492.13827048680895
200,492.12856577448633
201,492.11911170847725
202,492.10965812267574
203,492.09998913149815
204,492.0899249349483
205,492.0793216741927
206,492.06806983780695
207,492.0560917727434
208,492.0433388329636
209,492.0297885453514
210,492.01544191507855
211,492.00032078989386
212,491.98446518923373
213,491.9679306294314
214,491.95078556957105
215,491.93310907451024
216,491.91498871907686
217,491.89651876957015
218,491.8777987922753
219,491.85893293820186
220,491.8400301304358
221,491.82120523150576
222,491.8025810546539
223,491.78429088195804
224,491.7664810317121
225,491.7493129812021
226,491.73296454049785
227,491.71762957039266
228,491.7035157995388
229,491.69084045301514
230,491.6798236130248
231,491.6706794507878
232,491.663605709667
233,491.6587720785063
234,491.6563082815702
235,491.6562927344587
236,491.65874250030413
237,491.6636051354673
238,491.6707528978295
239,491.6799796966351
240,491.69100108572457
241,491.7034575344624
242,491.71692110152685
243,491.73090543635954
244,491.74487877010375
245,491.7582793229272
246,491.77053241862905
247,491.7810685664066
248,491.78934179578624
249,491.7948475518598
250,491.7971394518494
251,491.79584420981007
252,491.79067410231977
253,491.78143647756315
254,491.7680399809006
255,491.75049736843124
256,491.72892498213025
257,491.7035391138881
258,491.67464956827416
259,491.64265079552064
260,491.60801105574984
261,491.5712601664617
262,491.5329764365551
263,491.4937733982609
264,491.45428688850313
265,491.4151628596105
266,491.37704606642103
267,491.3405696143761
268,491.3063453101273
269,491.2749547589293
270,491.2469411298001
271,491.2228014620862
272,491.20297935974367
273,491.1878579464102
274,491.17775302893375
275,491.17290650483517
276,491.173480116958
277,491.17954968794004
278,491.19109996809186
279,491.20802025015035
280,491.2301010002153
281,491.2570319210408
282,491.2884019938819
283,491.3237020235575
284,491.36233005287136
285,491.4035998302941
286,491.44675238082743
287,491.49097062874387
288,491.53539690143685
289,491.5791529598701
290,491.62136194353445
291,491.6611713666287
292,491.69777619169145
293,491.73044106596194
294,491.75852090582794
295,491.7814790409348
296,491.7989021296173
297,491.8105111567429
298,491.8161680522662
299,491.8158777500213
300,491.8097857835994
301,491.7981717518977
302,491.7814391038259
303,491.7601016560104
304,491.7347671903467
305,491.7061185448926
306,491.67489281480465
307,491.6418594851572
308,491.6077984351703
309,491.57347877039376
310,491.5396393435647
311,491.50697163150465
312,491.4761054205369
313,491.4475975700224
314,491.4219239575953
315,491.39947455820277
316,491.3805515198351
317,491.36537008413967
318,491.3540621955943
319,491.34668258832124
320,491.3432170410868
321,491.34359238410354
322,491.3476877335083
323,491.3553462981774
324,491.3663869575282
325,491.3806147315958
326,491.39782933436345
327,491.4178311977026
328,491.44042462274035
329,491.4654180527239
330,491.492621835663
331,491.52184414776724
332,491.55288589917643
333,491.5855354674517
334,491.61956406165893
335,491.65472241905866
336,491.6907393613008
337,491.72732249849753
338,491.7641610863731
339,491.8009307408302
340,491.83729948347826
341,491.8729345421232
342,491.9075094679706
343,491.9407113304515
344,491.9722478740694
345,492.001854518988
346,492.0293009855288
347,492.05439720399596
348,492.0769981457899
349,492.09700732291225
350,492.1143788607877
351,492.1291181287343
352,492.1412808985753
353,492.15097099256695
354,492.15833645932406
355,492.1635644458915
356,492.1668750080954
357,492.1685140826451
358,492.16874582463635
359,492.16784459575103
360,492.1660870270029
361,492.1637446091568
362,492.161077103739
363,492.1583268270252
364,492.15571369690264
365,492.1534308966071
366,492.151641056889
367,492.15047294547924
368,492.15001874943806
369,492.15033210473655
370,492.1514270542982
371,492.153278128778
372,492.1558217526229
373,492.1589591287835
374,492.1625606098035
375,492.16647137885604
376,492.1705181356382
377,492.1745164194446
378,492.1782781468789
379,492.18161888385373
380,492.18436437214535
381,492.1863559279859
382,492.1874544842215
383,492.1875431925228
384,492.1865286011525
385,492.18434047096946
386,492.1809303104278
387,492.1762687420465
388,492.17034187824373
389,492.163146964461
390,492.1546876246896
391,492.1449691169388
392,492.13399404292306
393,492.12175889705543
394,492.108251688837
395,492.0934507440039
396,492.0773247783913
397,492.0598343794762
398,492.0409349805945
399,492.0205812418454
400,491.9987325597922
401,491.97535930254475
402,491.95044930979554
403,491.9240141724589
404,491.8960947926798
405,491.86676573798655
406,491.8361379837972
407,491.80435979482513
408,491.77161567629634
409,491.7381234770218
410,491.7041298423822
411,491.6699043015966
412,491.63573231553175
413,491.60190760442725
414,491.56872403679057
415,491.53646729620937
416,491.50540646054947
417,491.4757855956147
418,491.4478155534073
419,491.42166632492473
420,491.3974603977586
421,491.37526755210905
422,491.35510143325854
423,491.3369180967871
424,491.3206165457424
425,491.30604111008995
426,491.29298541589395
427,491.281197673875
428,491.2703870753411
429,491.2602312001654
430,491.25038446527606
431,491.24048769734407
432,491.23017885447274
433,491.21910475131983
434,491.2069333995048
435,491.19336633285974
436,491.178150121898
437,491.1610862371469
438,491.14203850725653
439,491.12093761983255
440,491.09778239204525
441,491.07263785793924
442,491.0456305474067
443,491.016941603972
444,490.9867985364215
445,490.95546642005183
446,490.92323929358844
447,490.8904323330495
448,490.8573751077273
449,490.8244059103384
450,490.7918669459715
451,490.76010011766726
452,490.7294431750417
453,490.7002260156867
454,490.67276696866304
455,490.64736896844596
456,490.6243155880618
457,490.6038668900777
458,490.58625500886177
459,490.5716793649597
460,490.5603014679449
461,490.5522393869209
462,490.5475621159395
463,490.5462841705542
464,490.54836080024074
465,490.55368420261044
466,490.56208105086887
467,490.57331146480993
468,490.5870693438213
469,490.6029838770101
470,490.62062210360017
471,490.63949255568537
472,490.6590501980337
473,490.6787030496175
474,490.6978209944142
475,490.7157472916892
476,490.7318131112957
477,490.7453550548611
478,490.75573517034104
479,490.7623625564151
480,490.7647153702836
481,490.7623618916747
482,490.75497925447604
483,490.7423686151917
484,490.7244659199182
485,490.70134791913915
486,490.6732334578801
487,490.640480250653
488,490.60357738393594
489,490.5631337718802
490,490.519862816793
491,490.4745636502361
492,490.4280995432445
493,490.3813743136288
494,490.33530775927494
495,490.2908112552463
496,490.2487646102934
497,490.2099950484833
498,490.17525882044464
499,490.14522560130376
500,490.1204656189325
501,490.1014393898898
502,490.0884899728684
503,490.0818377434355
504,490.0815778219506
505,490.08768039175476
506,490.0999941560967
507,490.11825308902075
508,490.14208649393436
509,490.17103222348953
510,490.20455270399333
511,490.242053134063
512,490.2829009594358
513,490.32644557442643
514,490.37203723085855
515,490.4190443348565
516,490.46686862465367
517,490.51495807235983
518,490.5628176393661
519,490.61001812980146
520,490.6562032685268
521,490.70109484569065
522,490.74449550554857
523,490.7862886744905
524,490.82643523870047
525,490.86496681239754
526,490.9019756998264
527,490.93760190644724
528,490.9720178003088
529,491.00541127153633
530,491.03796842708715
531,491.06985687768685
532,491.10121049796516
533,491.1321163011145
534,491.16260391300943
535,491.19263805055766
536,491.22211431129324
537,491.2508584563164
538,491.2786292660577
539,491.3051249399031
540,491.3299928196729
541,491.3528419613715
542,491.3732578811733
543,491.39081874771904
544,491.40511236301904
545,491.4157534060764
546,491.42240056144925
547,491.4247732585381
548,491.4226677147919
549,491.415971783001
550,491.4046778779904
551,491.3888931704911
552,491.36884631131085
553,491.34489009646677
554,491.31749965784223
555,491.28726598597706
556,491.25488486791096
557,491.22114161874794
558,491.18689224376516
559,491.1530418263059
560,491.1205209595359
561,491.09026095066105
562,491.06316841359785
563,491.0400998444165
564,491.02183689088076
565,491.0090632083522
566,491.0023439015605
567,491.00210849588257
568,491.0086381789163
569,491.02205779328256
570,491.04233281509016
571,491.0692713238729
572,491.1025307577214
573,491.14162907613667
574,491.185959807115
575,491.2348102788401
576,491.28738215364876
577,491.34281331990445
578,491.4002003212852
579,491.4586206931429
580,491.5171546644376
581,491.5749056714205
582,491.6310191558776
583,491.6846992660338
584,491.7352232908203
585,491.7819538323611
586,491.82434877129873
587,491.8619690002341
588,491.89448378920315
589,491.92167360805473
590,491.94343027990914
591,491.95975443713604
592,491.9707503582484
593,491.97661836180845
594,491.97764504471553
595,491.97419180154833
596,491.9666821860098
597,491.9555886721054
598,491.94141922977377
599,491.92470393383894
600,491.90598168315745
601,491.88578708971585
602,491.8646376954135
603,491.8430217969596
604,491.8213872146906
605,491.80013131034457
606,491.77959249745527
607,491.7600434643953
608,491.74168634838014
609,491.72465009623386
610,491.7089901872206
611,491.6946908001916
612,491.6816693912861
613,491.6697834913556
614,491.65883938000553
615,491.648602230251
616,491.6388073319241
617,491.62917199495433
618,491.6194076718246
619,491.60923179605896
620,491.59837889132467
621,491.5866106608394
622,491.57372492854773
623,491.55956336818974
624,491.54401790634836
625,491.5270356039535
626,491.5086218059171
627,491.48884142659125
628,491.4678183382948
629,491.4457328525803
630,491.4228172333657
631,491.3993491755899
632,491.375643292928
633,491.35204081451167
634,491.32889779501795
635,491.3065721899081
636,491.2854102094437
637,491.2657324862636
638,491.2478207345571
639,491.23190566890634
640,491.21815692874776
641,491.2066755914782
642,491.19748959009064
643,491.1905520979928
644,491.18574279649624
645,491.182871853626
646,491.1816863266532
647,491.1818785913512
648,491.1830964090616
649,491.1849543699024
650,491.187046578133
651,491.1889604687064
652,491.19029154045467
653,491.19065860807564
654,491.1897189848583
655,491.1871828442017
656,491.1828258614397
657,491.17649915528875
658,491.1681356503505
659,491.1577523142758
660,491.1454481769738
661,491.1313984600116
662,491.11584543712996
663,491.09908677045667
664,491.0814620212084
665,491.0633378919684
666,491.04509266153514
667,491.02710032650367
668,491.00971513766666
669,490.99325739806847
670,490.9780014585277
671,490.96416672283715
672,490.9519121501248
673,490.941334319471
674,490.9324687460578
675,490.925293889557
676,490.9197371844939
677,490.91568243106616
678,490.9129779702423
679,490.9114451608403
680,490.9108867254149
681,490.9110945358493
682,490.91185642019536
683,490.91296165563955
684,490.9142049877406
685,490.91538922050603
686,490.916326565081
687,490.9168389973312
688,490.91675791844085
689,490.91592348017116
690,490.9141839766817
691,490.91139563768604
692,490.90742298497753
693,490.90213973155556
694,490.89543012471665
695,490.88719071158937
696,490.87733266558513
697,490.86578490508407
698,490.85249816915984
699,490.8374500185638
700,490.8206504983447
701,490.80214802857216
702,490.7820350457501
703,490.76045299991733
704,490.7375964587039
705,490.71371619504737
706,490.68912117462787
707,490.66417928726446
708,490.63931650961706
709,490.61501402439313
710,490.59180275041206
711,490.570254813329
712,490.55097171046606
713,490.5345692622521
714,490.5216598263839
715,490.5128325831344
716,490.508632911986
717,490.50954195807003
718,490.5159574596268
719,490.5281768131952
720,490.5463832141259
721,490.57063552430924
722,490.600862280426
723,490.6368599950846
724,490.6782956960751
725,490.724713541793
726,490.77554528856683
727,490.8301242784989
728,490.88770245020635
729,490.94746968820056
730,491.00857464005793
731,491.07014599060767
732,491.1313132086873
733,491.19122604760844
734,491.2490724802434
735,491.3040950729395
736,491.3556059087833
737,491.40300007818297
738,491.4457676073837
739,491.48350363627173
740,491.51591670362336
741,491.5428350622565
742,491.5642109526106
743,491.5801227087797
744,491.59077450681787
745,491.59649355096366
746,491.59772454165994
747,491.59502133277107
748,491.58903572096403
749,491.5805033226328
750,491.5702265268466
751,491.5590546353932
752,491.547861556291
753,491.53752174000635
754,491.5288852789549
755,491.5227531263996
756,491.51985328289237
757,491.52081866559615
758,491.52616726961173
759,491.53628514829063
760,491.55141269287884
761,491.5716346893391
762,491.5968746403515
763,491.6268938154347
764,491.6612954021412
765,491.6995339489365
766,491.7409299854918
767,491.78468931774233
768,491.8299261587809
769,491.87568908143504
770,491.9209887376798
771,491.96482629172624
772,492.00622152744864
773,492.0442396546137
774,492.0780159772201
775,492.10677777825583
776,492.12986298083524
777,492.14673534135335
778,492.15699608213737
779,492.16039191998505
780,492.1568193753656
781,492.1463251468284
782,492.129102329091
783,492.10548237615166
784,492.07592293597486
785,492.0409919760544
786,492.00134890140293
787,491.9577235465315
788,491.91089398958337
789,491.86166414034307
790,491.81084202206927
791,491.7592195799967
792,491.70755466282327
793,491.65655553463876
794,491.6068679774001
795,491.5590648621114
796,491.5136380295442
797,491.47099236491033
798,491.4314420243885
799,491.39520885410974
800,491.3624230741352
801,491.33312621480496
802,491.3072761302174
803,491.2847537900776
804,491.26537151399214
805,491.2488823146174
806,491.2349900297184
807,491.2233599801982
808,491.2136299948349
809,491.20542171276895
810,491.1983520291756
811,491.1920444096408
812,491.1861396818086
813,491.1803059201538
814,491.1742471608229
815,491.1677108115105
816,491.1604936700451
817,491.1524464535353
818,491.1434767316384
819,491.1335501677024
820,491.12268999625144
821,491.11097473577246
822,491.098534250439
823,491.0855443519669
824,491.0722201262585
825,491.0588081563982
826,491.04557789264976
827,491.03281257457866
828,491.0208002328471
829,491.0098253025949
830,491.00016124541963
831,490.9920643373583
832,490.9857685341324
833,490.9814811977994
834,490.9793794942003
835,490.97960734349004
836,490.9822728277236
837,490.9874459722245
838,490.99515690022974
839,491.0053944619478
840,491.0181054422724
841,491.03319433875333
842,491.05052357001915
843,491.06991394716374
844,491.09114537555917
845,491.1139579715474
846,491.1380539018978
847,491.1631001986079
848,491.18873265815307
849,491.21456083136025
850,491.2401740823505
851,491.2651487153509
852,491.28905620320097
853,491.3114725586172
854,491.3319888322935
855,491.35022259314906
856,491.36583006153035
857,491.3785183630608
858,491.388057199102
859,491.39428913210014
860,491.39713769350556
861,491.3966126624819
862,491.39281213282203
863,491.38592133596603
864,491.37620852346294
865,491.36401842300575
866,491.34976382354785
867,491.3339157701572
868,491.31699273376074
869,491.2995489847563
870,491.2821622407954
871,491.26542052488645
872,491.24990814533675
873,491.2361908466294
874,491.22480044713717
875,491.2162195497171
876,491.2108670282025
877,491.209084897611
878,491.2111269832834
879,491.2171496997355
880,491.2272052921962
881,491.24123795979216
882,491.2590832147652
883,491.2804706055759
884,491.30502964868737
885,491.33229863851045
886,491.3617360419752
887,491.39273436133686
888,491.42463645209824
889,491.4567541750285
890,491.48838901515705
891,491.518854062956
892,491.5474965652989
893,491.57372009261263
894,491.59700526673197
895,491.61692800992813
