acceleration,velocity,displacement
-0.021991282013008363,0.0,0.0
-0.021715130981235856,-1.0926603248561054e-05,-2.7316508121402635e-09
-0.021441815991593956,-2.171583999176851e-05,-1.0892261622222654e-08
-0.02117037832184735,-3.236888857012884e-05,-2.441344376269699e-08
-0.020899847890840567,-4.288644512330082e-05,-4.3227277186054406e-08
-0.020629250812631436,-5.3268719799168815e-05,-6.726606841667181e-08
-0.020357617282867186,-6.351543682304347e-05,-9.646210757222488e-08
-0.020083989767160765,-7.362583858555046e-05,-1.3074742642437336e-07
-0.01980743144896707,-8.359869388958242e-05,-1.7005355954315658e-07
-0.01952703487233678,-9.343231046990839e-05,-2.1431131063302928e-07
-0.01924193068844276,-0.00010312455186010328,-2.634505262155322e-07
-0.01895129639213447,-0.00011267285863024759,-3.173998788381199e-07
-0.018654364917893112,-0.0001220742739577545,-3.760866619851204e-07
-0.018350432951274174,-0.00013132547342504632,-4.394365988308206e-07
-0.018038868802878246,-0.00014042279886358443,-5.073736669029783e-07
-0.01771911969119182,-0.00014936229598710196,-5.798199406156499e-07
-0.017390718289829157,-0.0001581397554823572,-6.566954534830146e-07
-0.017053288409779727,-0.00016675075715725943,-7.379180816429188e-07
-0.01670654970467525,-0.00017519071668587317,-8.234034501037019e-07
-0.01635032130939607,-0.000183454934439391,-9.130648628850179e-07
-0.015984524355302933,-0.00019153864585556577,-1.0068132579587572e-06
-0.01560918334904788,-0.0001994370727816535,-1.104557187618062e-06
-0.015224426445785226,-0.00020714547523036176,-1.2062028246210658e-06
-0.01483048467856996,-0.00021465920301145055,-1.3116539941815188e-06
-0.014427690218749829,-0.0002219737467357805,-1.4208122316183264e-06
-0.01401647374140987,-0.00022908478772582042,-1.5335768652337267e-06
-0.013597360965334662,-0.00023598824640250654,-1.6498451237658086e-06
-0.013170968436883227,-0.00024268032875306102,-1.7695122675547006e-06
-0.012737998630654388,-0.00024915757051994543,-1.8924717423729523e-06
-0.012299234438401042,-0.0002554168787872093,-2.0186153546997407e-06
-0.011855533108041931,-0.00026145557067382006,-2.1478334670649983e-06
-0.011407819683838617,-0.0002672714088717902,-2.280015211951401e-06
-0.010957079995450827,-0.0002728626337916125,-2.4150487226172516e-06
-0.01050435324729637,-0.0002782279921022993,-2.5528213790907296e-06
-0.010050724261217656,-0.0002833667614794278,-2.6932200674861613e-06
-0.00959731541769367,-0.00028827877139915565,-2.8361314507058073e-06
-0.009145278327890987,-0.0002929644198355518,-2.9814422485144843e-06
-0.008695785262907312,-0.00029742468573325134,-3.129039524906685e-06
-0.008250020375035512,-0.00030166113714273705,-3.2788109806256824e-06
-0.0078091707653899205,-0.0003056759349278434,-3.4306452486433275e-06
-0.00737441747414542,-0.00030947183198772727,-3.58443219037222e-06
-0.00694692648979234,-0.0003130521679787117,-3.74006319036383e-06
-0.006527839892498222,-0.00031642085957428435,-3.897431447252079e-06
-0.006118267262161908,-0.0003195823863629494,-4.056432258736387e-06
-0.005719277486342291,-0.0003225417725500754,-4.216963298464643e-06
-0.00533189109120855,-0.0003253045646944631,-4.378924882775778e-06
-0.004957073192074877,-0.000327876805765284,-4.542220225390715e-06
-0.004595727126721632,-0.00033026500584498313,-4.706755678293282e-06
-0.00424868880224795,-0.00033247610982722555,-4.872440957211334e-06
-0.003916721757510286,-0.0003345174624671651,-5.039189350284932e-06
-0.0036005129186324264,-0.0003363967711362008,-5.206917908685773e-06
-0.0033006690065228595,-0.0003381220666174896,-5.3755476181241955e-06
-0.0030177135465558834,-0.00033970166225575927,-5.545003550342508e-06
-0.002752084433811648,-0.0003411441117508512,-5.71521499384416e-06
-0.0025041320222554675,-0.000342458165864868,-5.88611556324809e-06
-0.002274117729372891,-0.0003436527283027751,-6.057643286790001e-06
-0.0020622131723403905,-0.0003447368110282034,-6.229740671622746e-06
-0.001868499870170471,-0.00034571948928883116,-6.402354746702005e-06
-0.0016929695524256162,-0.0003466098566444802,-6.575437083185332e-06
-0.001535525108259203,-0.0003474169803096514,-6.748943792423865e-06
-0.0013959821947651882,-0.0003481498571354075,-6.92283550178513e-06
-0.0012740715074715748,-0.0003488173705609667,-7.097077308709224e-06
-0.0011694417010351993,-0.00034942824886309337,-7.271638713565239e-06
-0.0010816629337797798,-0.0003499910250217971,-7.446493532036461e-06
-0.00101023099421563,-0.00035051399850379597,-7.621619787917859e-06
-0.0009545719514487205,-0.00035100519924021205,-7.796999587353861e-06
-0.0009140472575962607,-0.0003514723540424733,-7.972618975674533e-06
-0.0008879592224698386,-0.0003519228556624898,-8.148467778100774e-06
-0.0008755567794893332,-0.0003523637346629796,-8.324539425682142e-06
-0.0008760414629808614,-0.00035280163422359717,-8.500830767903785e-06
-0.0008885735152558777,-0.00035324278796815636,-8.677341873451723e-06
-0.0009122780391583185,-0.0003536930008567599,-8.854075820657953e-06
-0.0009462511164043576,-0.00035415763314565056,-9.031038479158555e-06
-0.0009895658266046773,-0.00035464158738140284,-9.208238284290319e-06
-0.0010412781195544782,-0.00035514929836794263,-9.385686005727654e-06
-0.0011004325079848956,-0.0003556847260248275,-9.563394511825848e-06
-0.0011660675589295164,-0.0003562513510415561,-9.741378531092444e-06
-0.0012372211699801586,-0.0003568521732237835,-9.919654412158778e-06
-0.0013129356204668113,-0.00035748971242139527,-1.0098239883570074e-05
-0.0013922623875489864,-0.0003581660119233992,-1.0277153814656272e-05
-0.0014742667182483034,-0.00035888264419984856,-1.0456415978687083e-05
-0.0015580319535345095,-0.0003596407188677943,-1.0636046819453994e-05
-0.0016426636032714824,-0.0003604408927569958,-1.0816067222360192e-05
-0.0017272931632334185,-0.000361283381948622,-1.0996498291036596e-05
-0.001811081647765078,-0.0003621679756513716,-1.1177361130436595e-05
-0.0018932227924217842,-0.0003630940517614183,-1.1358676637289793e-05
-0.0019729458690175695,-0.00036406059392677813,-1.1540465298711842e-05
-0.0020495180555336924,-0.00036506620990791596,-1.1722746999670515e-05
-0.0021222463133093797,-0.0003661091510001267,-1.1905540839897526e-05
-0.0021904787368978666,-0.0003671873322626785,-1.2088864960713228e-05
-0.00225360535161372,-0.00036829835328480644,-1.2272736382100098e-05
-0.002311058341113568,-0.0003694395192079883,-1.2457170850223296e-05
-0.00236231169972251,-0.0003706078617181973,-1.2642182695454843e-05
-0.0024068803269337987,-0.00037180015972486136,-1.2827784700815607e-05
-0.0024443186114228217,-0.0003730129594594505,-1.3013987980611685e-05
-0.0024742185800249623,-0.00037424259375731247,-1.3200801868915876e-05
-0.002496207705123984,-0.0003754852003285997,-1.3388233817437354e-05
-0.002509946469666316,-0.00037673673887229724,-1.3576289302237579e-05
-0.0025151257849200985,-0.00037799300693594387,-1.3764971738689639e-05
-0.0025114643456244754,-0.00037924965446858004,-1.395428240404077e-05
-0.002498705995250341,-0.00038050219705379874,-1.4144220366921365e-05
-0.00247661716603905,-0.0003817460278441211,-1.4334782423145845e-05
-0.002444984454803159,-0.00038297642824933165,-1.4525963037169208e-05
-0.0024036123908435223,-0.00038418857746074333,-1.4717754288596726e-05
-0.00235232144143264,-0.0003853775609188124,-1.4910145823191615e-05
-0.0022909462820096265,-0.00038653837784967296,-1.5103124807883737e-05
-0.0022193343349575794,-0.00038766594800391477,-1.5296675889347132e-05
-0.002137344555937263,-0.00038875511772663846,-1.549078115577977e-05
-0.0020448464247935197,-0.00038980066547182114,-1.5685420101579385e-05
-0.0019417190852008064,-0.00039079730684931974,-1.588056959465967e-05
-0.0018278505785767334,-0.0003917396992652641,-1.6076203846188315e-05
-0.0017031371339279074,-0.0003926224461933903,-1.6272294382552978e-05
-0.0015674825010696077,-0.0003934401011021397,-1.646881001937686e-05
-0.0014207973410143328,-0.00039418717106266067,-1.666571683741806e-05
-0.001262998704781336,-0.0003948581200741096,-1.6862978160202253e-05
-0.0010940096366519462,-0.00039544737215946795,-1.7060554533260645e-05
-0.0009137589315663139,-0.0003959493143015225,-1.7258403704875894e-05
-0.000722181064252525,-0.0003963582993004772,-1.7456480608276396e-05
-0.000519216297200019,-0.00039666864864084034,-1.7654737345261726e-05
-0.00030481097166687226,-0.00039687465545805705,-1.785312317128645e-05
-7.891799104507764e-05,-0.000396970587698735,-1.8051584482075647e-05
0.00015850248568796295,-0.0003969506915750743,-1.82500648018941e-05
0.00040748211522402116,-0.0003968091954248463,-1.844850477364408e-05
0.0006680431750682126,-0.00039654031410227324,-1.864684215102586e-05
0.0009401970669211983,-0.0003961382540417759,-1.884501179306187e-05
0.00122394248081684,-0.0003955972191548414,-1.9042945661361025e-05
0.0015192631892090326,-0.0003949114177373349,-1.924057282058407e-05
0.0018261254583834391,-0.0003940750705754368,-1.943781944266226e-05
0.0021444750906817254,-0.0003930824204381705,-1.9634608815415662e-05
0.0024742341382813157,-0.00039192774313092976,-1.9830861356307936e-05
0.0028152973553537955,-0.000390605360257521,-2.002649463215505e-05
0.003167528478591911,-0.00038910965379903456,-2.022142338566919e-05
0.0035307564403825134,-0.00038743508256929097,-2.0415559569761272e-05
0.00390477161846829,-0.00038557620055457826,-2.0608812390542238e-05
0.004289322212483028,-0.00038352767709684044,-2.080108835995509e-05
0.004684110817358889,-0.00038128431883938,-2.0992291358939147e-05
0.005088791242110704,-0.0003788410933245126,-2.118232271198012e-05
0.005502965605619222,-0.0003761931541125801,-2.1371081273839393e-05
0.005926181734093516,-0.0003733358672776519,-2.155846352918695e-05
0.006357930888051076,-0.00037026483912211574,-2.1744363705786893e-05
0.006797645853450654,-0.0003669759449367403,-2.1928673901801608e-05
0.007244699433667464,-0.0003634653586149608,-2.2111284227689533e-05
0.007698403373401766,-0.0003597295829131935,-2.2292082963071572e-05
0.008158007737359769,-0.0003557654801355031,-2.2470956728833747e-05
0.00862270076335121,-0.0003515703030103254,-2.2647790674620204e-05
0.009091609213438916,-0.00034714172551612784,-2.2822468681751818e-05
0.009563799252048727,-0.00034247787339975594,-2.2994873581480788e-05
0.010038277881857334,-0.0003375773541162794,-2.31648873883598e-05
0.010513994968366478,-0.00033243928590372346,-2.33323915483648e-05
0.01098984588436112,-0.00032706332569054153,-2.3497267201263366e-05
0.011464674804663108,-0.00032144969551828545,-2.3659395456565574e-05
0.011937278677005163,-0.00031559920714786837,-2.381865768223211e-05
0.012406411885836792,-0.0003095132845071579,-2.397493580514587e-05
0.012870791612633381,-0.0003031939836325403,-2.4128112622180794e-05
0.013329103880298619,-0.00029664400975930734,-2.4278072120528757e-05
0.013780010254314076,-0.00028986673122565414,-2.4424699805774996e-05
0.014222155163360962,-0.0002828661898712354,-2.456788303604922e-05
0.014654173798127662,-0.0002756471076308632,-2.4707511360424744e-05
0.015074700543934269,-0.0002682148890453477,-2.4843476859593797e-05
0.015482377893212367,-0.00026057561943606107,-2.4975674486714148e-05
0.01587586576427941,-0.00025273605852168813,-2.5104002406203585e-05
0.016253851126656796,-0.00024470362929895407,-2.5228362328158744e-05
0.016615057806916928,-0.00023648640206556064,-2.5348659835999873e-05
0.01695825632647668,-0.00022809307353221223,-2.5464804704899316e-05
0.017282273603816033,-0.00021953294104963905,-2.557671120854478e-05
0.017586002339629713,-0.0002108158720637776,-2.568429841182313e-05
0.017868409900475817,-0.00020195226900375122,-2.5787490447090013e-05
0.0181285465276087,-0.0001929530298967301,-2.5886216771815134e-05
0.018365552719447013,-0.00018382950508496617,-2.5980412405560557e-05
0.01857866566446532,-0.00017459345048898809,-2.6070018144454044e-05
0.01876722463539067,-0.00016525697791402408,-2.61549807515548e-05
0.01893067529256996,-0.00015583250293203392,-2.6235253121766313e-05
0.019068572879275658,-0.0001463326908890725,-2.631079442022159e-05
0.019180584320574665,-0.00013677040158910993,-2.6381570193341135e-05
0.019266489257909823,-0.0001271586331944888,-2.6447552452037035e-05
0.019326180063111657,-0.00011751046586423343,-2.6508719726801714e-05
0.019359660880676532,-0.00010783900562828638,-2.6565057094674844e-05
0.019367045752000833,-9.815732897011703e-05,-2.6616556178324445e-05
0.01934855588349215,-8.847842856124379e-05,-2.6663215117707287e-05
0.019304516129480653,-7.881516055800058e-05,-2.6705038514987097e-05
0.01923535076589633,-6.918019383415634e-05,-2.6742037353585136e-05
0.019141578630769786,-5.958596148498981e-05,-2.677422889241492e-05
0.0190238077068836,-5.0044614900576465e-05,-2.6801636536511312e-05
0.01888272922492351,-4.056798066762469e-05,-2.6824289685403364e-05
0.01871911137323045,-3.1167520518086195e-05,-2.684222356069979e-05
0.01853379270845205,-2.185429449766557e-05,-2.685547901445373e-05
0.018327675364420152,-1.263892747944752e-05,-2.6864102319948008e-05
0.018101718154502414,-3.5315790997168803e-06,-2.6868144946592798e-05
0.017856929660405124,5.458082854010005e-06,-2.6867663320654225e-05
0.017594361398095466,1.4320905618635152e-05,-2.6862718573536063e-05
0.017315101141878928,2.304827125362875e-05,-2.6853376279318e-05
0.01702026646685586,3.163211315581245e-05,-2.683970618321564e-05
0.0167109985441619,4.006492940856689e-05,-2.6821781922574543e-05
0.016388456200479892,4.8339793094727335e-05,-2.679968074194872e-05
0.016053810235992075,5.6450359703845326e-05,-2.6773483203749077e-05
0.015708237983339396,6.43908717586782e-05,-2.6743272895883447e-05
0.01535291808528322,7.215616077583385e-05,-2.6709136137749817e-05
0.0149890254699606,7.974164666464481e-05,-2.66711616858897e-05
0.014617726506514226,8.714333465876353e-05,-2.6629440440558847e-05
0.014240174326204993,9.435780986694333e-05,-2.658406515442742e-05
0.013857504294237674,0.00010138222952205399,-2.653513014458017e-05
0.013470829619187559,0.0001082143130004103,-2.6482731008949555e-05
0.013081237094538449,0.00011485232967884181,-2.6426964348279742e-05
0.012689782980974286,0.00012129508469771998,-2.63679274946856e-05
0.012297489054543686,0.00012754190270659947,-2.6305718247834522e-05
0.011905338858235496,0.00013359260968479427,-2.6240434619736674e-05
0.011514274200671642,0.00013944751294952106,-2.6172174589078095e-05
0.011125191947572464,0.00014510737948658208,-2.610103586596907e-05
0.010738941148045626,0.0001505734127604866,-2.6027115667907303e-05
0.0103563205242257,0.00015584722817855445,-2.5950510507672543e-05
0.009978076331532955,0.0001609308273924941,-2.587131599377978e-05
0.009604900579890259,0.00016582657162034993,-2.578962664402657e-05
0.009237429604176858,0.0001705371541663667,-2.570553571257989e-05
0.008876242980920648,0.00017506557231264106,-2.5619135030960138e-05
0.008521862794655014,0.00017941509875653498,-2.5530514863192842e-05
0.008174753254552846,0.00018358925276883693,-2.54397637753115e-05
0.007835320655726686,0.0001875917712464068,-2.5346968519307686e-05
0.007503913680029808,0.00019142657983034592,-2.5252213931538498e-05
0.0071808240393543415,0.00019509776426019195,-2.5155582845515865e-05
0.006866287471615038,0.0001986095421379343,-2.5057156018916334e-05
0.006560485097230555,0.0002019662352801457,-2.4957012074561815e-05
0.006263545131840109,0.00020517224283741337,-2.4855227455032424e-05
0.005975544933902674,0.00020823201535384906,-2.4751876390484608e-05
0.005696513349522574,0.00021115002992470538,-2.464703087916497e-05
0.005426433306736143,0.00021393076658877006,-2.45407606800366e-05
0.0051652446076936856,0.0002165786860673775,-2.4433133316872564e-05
0.004912846865275285,0.00021909820893561976,-2.4324214093121815e-05
0.004669102529231425,0.00022149369628424645,-2.4214066116816848e-05
0.004433839950423343,0.00022376943190416013,-2.4102750334769747e-05
0.0042068564423281924,0.000225929606002348,-2.399032557529312e-05
0.0039879213134906746,0.00022797830044130271,-2.387684859868221e-05
0.0037767788597773237,0.0002299194754846197,-2.376237415470073e-05
0.003573151322145469,0.0002317569580301004,-2.364695504632205e-05
0.0033767418338288054,0.000233494431319094,-2.353064219898475e-05
0.0031872373935679177,0.00023513542612594318,-2.341348473462349e-05
0.0030043119015934826,0.00023668331344973355,-2.329553004972957e-05
0.0028276292846056363,0.00023814129874628334,-2.3176823896680568e-05
0.002656846723395932,0.00023951241774828374,-2.3057410467556926e-05
0.0024916179866309746,0.00024079953392579047,-2.293733247963841e-05
0.002331596866034146,0.00024200533763895675,-2.2816631261747224e-05
0.0021764407016582423,0.00024313234703087985,-2.2695346840579764e-05
0.0020258139805236787,0.0002441829107014253,-2.2573518026146687e-05
0.0018793919836210126,0.00024515921219246147,-2.2451182495423215e-05
0.0017368644416023017,0.0002460632762987673,-2.2328376873300407e-05
0.0015979391404019128,0.00024689697719426835,-2.2205136809927148e-05
0.001462345401761498,0.0002476620483298092,-2.208149705354613e-05
0.0013298373555292746,0.0002483600940191319,-2.1957491517958895e-05
0.001200196921182317,0.0002489926025883098,-2.1833153343807035e-05
0.0010732364216066545,0.00024956096092400705,-2.1708514952928958e-05
0.0009488007579511772,0.0002500664702188965,-2.1583608095143233e-05
0.0008267690785767992,0.00025051036267802846,-2.1458463886919e-05
0.000707055880664169,0.00025089381891783873,-2.1333112841520034e-05
0.0005896114937604625,0.0002512179857614449,-2.1207584890350212e-05
0.00047442191034202793,0.0002514839941124705,-2.1081909395381732e-05
0.0003615079478156017,0.00025169297657700993,-2.0956115152709363e-05
0.0002509237478085111,0.00025184608450091594,-2.083023038743988e-05
0.00014275464051378327,0.0002519445040979965,-2.0704282740290152e-05
3.711441979304058e-05,0.00025198947136307324,-2.0578299246424883e-05
-6.585791290906944e-05,0.00025198228548979423,-2.0452306307211664e-05
-0.00016600186751148383,0.0002519243205446891,-2.0326329655703043e-05
-0.00026313956671309606,0.00025181703518613297,-2.0200394316770337e-05
-0.0003570801378979626,0.0002516619802599802,-2.0074524562908808e-05
-0.0004476242958023204,0.00025146080415155514,-1.9948743866805924e-05
-0.0005345690124170831,0.0002512152558245003,-1.982307485181191e-05
-0.0006177121729636992,0.00025092718552815514,-1.9697539241473744e-05
-0.000696857128667,0.0002505985432027475,-1.9572157809291017e-05
-0.0007718170745806154,0.00025023137465193557,-1.9446950329827347e-05
-0.0008424191938394428,0.00024982781558483057,-1.9321935532268156e-05
-0.0009085085146383408,0.0002493900836577111,-1.9197131057457522e-05
-0.0009699514286651048,0.0002489204686718853,-1.9072553419375122e-05
-0.0010266388250772416,0.0002484213211084497,-1.8948217971930038e-05
-0.0010784888023073996,0.00024789503920160354,-1.8824138881852526e-05
-0.0011254489274901735,0.00024734405476915415,-1.8700329108359838e-05
-0.0011674980174732825,0.00024677081803291327,-1.857680039015932e-05
-0.0012046474165661623,0.0002461777816744034,-1.8453563240232494e-05
-0.0012369417469515883,0.00024556738438352395,-1.833062694871801e-05
-0.0012644591105402411,0.000244942034169151,-1.8207999594079842e-05
-0.0012873107271821603,0.0002443040917097204,-1.8085688062610123e-05
-0.0013056400027108039,0.00024365585402724718,-1.7963698076175882e-05
-0.0013196210275128678,0.00024299953876969125,-1.7842034227976647e-05
-0.001329456507601231,0.00024233726938591271,-1.7720700025937746e-05
-0.0013353751257905062,0.0002416710614775648,-1.7599697943221875e-05
-0.0013376283286789974,0.00024100281061394742,-1.7479029475198998e-05
-0.001336486544400324,0.0002403342818956776,-1.7358695202071592e-05
-0.0013322348552497355,0.0002396671015457651,-1.7238694856211232e-05
-0.0013251681695073496,0.00023900275078957581,-1.7119027393127395e-05
-0.0013155859524077538,0.00023834256225909703,-1.6999691064865225e-05
-0.0013037865882045872,0.00023768771912394395,-1.6880683494519464e-05
-0.0012900614577362405,0.00023703925711245874,-1.6762001750460362e-05
-0.0012746888319865924,0.00023639806954002803,-1.664364241879724e-05
-0.0012579277028352022,0.0002357649154063226,-1.6525601672560653e-05
-0.0012400116910018712,0.00023514043055786332,-1.6407875336069606e-05
