frame_number,force
0,724.0589600061217
1,724.0813802522355
2,724.1036323737866
3,724.1255494011418
4,724.1469666568173
5,724.1677228589506
6,724.1876611781116
7,724.206630238382
8,724.2244850569897
9,724.2410879186892
10,724.2563091813851
11,724.270028009023
12,724.282133027592
13,724.2925229007598
14,724.3011068228385
15,724.3078049276689
16,724.3125486125012
17,724.3152807766355
18,724.3159559758412
19,724.3145404948998
20,724.3110123413687
21,724.3053611638092
22,724.2975880975998
23,724.287705541291
24,724.2757368664331
25,724.2617160641526
26,724.2456873322858
27,724.2277046071181
28,724.2078310434179
29,724.1861384458185
30,724.1627066541521
31,724.1376228853916
32,724.1109810353918
33,724.0828809442845
34,724.0534276298242
35,724.0227304932594
36,723.9909025027569
37,723.9580593599413
38,723.9243186552782
39,723.88979901796
40,723.8546192663665
41,723.8188975663727
42,723.782750606303
43,723.7462927985733
44,723.709635518608
45,723.6728863911745
46,723.6361486328336
47,723.5995204572182
48,723.5630945479248
49,723.5269576022705
50,723.4911899480738
51,723.4558652345488
52,723.4210501968819
53,723.3868044922928
54,723.3531806039839
55,723.3202238084579
56,723.287972200793
57,723.2564567716282
58,723.2257015293467
59,723.1957236615483
60,723.1665337311102
61,723.1381359036278
62,723.1105282045944
63,723.0837028059672
64,723.0576463422088
65,723.0323402550055
66,723.0077611637639
67,722.9838812567453
68,722.9606686964944
69,722.9380880333676
70,722.9161006218352
71,722.8946650353657
72,722.8737374770176
73,722.8532721842619
74,722.8332218279041
75,722.8135379062122
76,722.7941711363795
77,722.775071845833
78,722.7561903654123
79,722.7374774254275
80,722.7188845546883
81,722.7003644819112
82,722.6818715379578
83,722.6633620556479
84,722.6447947616799
85,722.6261311533307
86,722.6073358518888
87,722.5883769254865
88,722.5692261757371
89,722.549859384657
90,722.5302565202124
91,722.5104019001539
92,722.4902843142604
93,722.4698971046145
94,722.4492382026559
95,722.4283101214788
96,722.4071199025045
97,722.385679016932
98,722.3640032238528
99,722.3421123885036
100,722.3200302655399
101,722.2977842530315
102,722.2754051231498
103,722.2529267356846
104,722.2303857407493
105,722.207821276871
106,722.1852746697181
107,722.1627891354475
108,722.1404094921528
109,722.1181818834914
110,722.096153519383
111,722.0743724386696
112,722.0528872978185
113,722.0317471887619
114,722.0110014880908
115,721.9906997385887
116,721.9708915617804
117,721.9516265968067
118,721.9329544574947
119,721.9149246972847
120,721.8975867713256
121,721.8809899862092
122,721.8651834296876
123,721.8502158746322
124,721.8361356532819
125,721.8229904996638
126,721.8108273601838
127,721.799692174612
128,721.7896296315425
129,721.7806829033675
130,721.7728933656929
131,721.7663003051877
132,721.7609406186847
133,721.7568485055599
134,721.7540551553268
135,721.7525884330078
136,721.7524725658591
137,721.753727835886
138,721.7563702827266
139,721.7604114208871
140,721.7658579747425
141,721.772711635051
142,721.7809688419592
143,721.7906206008754
144,721.8016523387199
145,721.8140438088999
146,721.8277690535474
147,721.8427964304082
148,721.8590887091934
149,721.876603239102
150,721.8952921865485
151,721.9151028399452
152,721.9359779761428
153,721.9578562809195
154,721.980672814621
155,722.0043595141601
156,722.0288457235043
157,722.054058745656
158,722.0799244096394
159,722.106367646218
160,722.1333130659696
161,722.1606855328655
162,722.1884107257497
163,722.2164156795275
164,722.2446292979186
165,722.2729828303262
166,722.3014103065152
167,722.3298489241535
168,722.358239385664
169,722.3865261819772
170,722.414657821596
171,722.4425870041051
172,722.4702707380067
173,722.4976704034099
174,722.5247517605515
175,722.551484905706
176,722.577844177168
177,722.6038080157776
178,722.6293587866425
179,722.654482570679
180,722.679168935907
181,722.7034106989439
182,722.727203686706
183,722.7505465065572
184,722.7734403302821
185,722.7958886944568
186,722.8178973178675
187,722.8394739353131
188,722.8606281457472
189,722.881371271354
190,722.901716223638
191,722.921677373584
192,722.9412704250611
193,722.960512292732
194,722.9794209867849
195,722.99801550672
196,723.0163157457963
197,723.0343424072246
198,723.0521169331217
199,723.069661447627
200,723.086998716082
201,723.1041521222841
202,723.1211456651426
203,723.1380039746499
204,723.1547523454125
205,723.1714167845716
206,723.1880240697488
207,723.204601811582
208,723.2211785149051
209,723.2377836332729
210,723.2544476130065
211,723.2712019240784
212,723.2880790752859
213,723.3051126106013
214,723.3223370829551
215,723.3397880011883
216,723.3575017456433
217,723.3755154483184
218,723.393866835052
219,723.4125940293886
220,723.4317353197007
221,723.4513288922751
222,723.4714125335865
223,723.4920233052852
224,723.5131971956458
225,723.534968751098
226,723.5573706909423
227,723.580433508124
228,723.60418505991
229,723.6286501547112
230,723.6538501442085
231,723.6798025321816
232,723.7065206122555
233,723.7340131461808
234,723.7622840927664
235,723.7913323957946
236,723.8211518373762
237,723.8517309612242
238,723.883053068428
239,723.9150962867495
240,723.9478337128892
241,723.9812336249975
242,724.0152597600415
243,724.0498716483016
244,724.0850249959518
245,724.1206721064927
246,724.1567623324511
247,724.1932425498551
248,724.2300576492532
249,724.2671510381318
250,724.3044651500347
251,724.3419419553701
252,724.379523468291
253,724.4171522436556
254,724.4547718578871
255,724.4923273674425
256,724.529765738669
257,724.5670362430735
258,724.6040908120737
259,724.6408843452107
260,724.6773749663566
261,724.7135242240655
262,724.7492972343864
263,724.7846627665238
264,724.8195932737282
265,724.8540648739668
266,724.8880572868884
267,724.9215537344811
268,724.9545408122079
269,724.9870083360195
270,725.0189491696937
271,725.0503590370672
272,725.0812363242434
273,725.1115818766249
274,725.1413987943823
275,725.1706922286442
276,725.1994691801631
277,725.2277383025349
278,725.2555097126811
279,725.2827948115346
280,725.3096061171516
281,725.3359571110393
282,725.3618620972637
283,725.3873360734443
284,725.4123946126459
285,725.4370537549565
286,725.4613299073491
287,725.4852397505958
288,725.5088001522581
289,725.5320280847245
290,725.5549405470867
291,725.5775544897389
292,725.5998867409088
293,725.6219539344584
294,725.6437724379867
295,725.6653582797371
296,725.6867270724742
297,725.7078939327932
298,725.7288733953906
299,725.7496793233008
300,725.7703248161708
301,725.7908221188246
302,725.8111825320558
303,725.8314163273524
304,725.8515326671333
305,725.8715395318104
306,725.8914436547236
307,725.9112504660778
308,725.9309640472619
309,725.9505870966968
310,725.9701209073905
311,725.9895653551107
312,726.0089188950149
313,726.0281785637758
314,726.0473399837416
315,726.0663973656291
316,726.0853435068392
317,726.1041697839819
318,726.1228661408313
319,726.1414210761092
320,726.1598216377457
321,726.1780534305344
322,726.1961006426669
323,726.213946094493
324,726.2315713107544
325,726.2489566159874
326,726.2660812521901
327,726.282923518375
328,726.299460932638
329,726.3156704176719
330,726.3315285095799
331,726.3470115877782
332,726.3620961216426
333,726.3767589283874
334,726.3909774371859
335,726.4047299566549
336,726.4179959453339
337,726.4307562860963
338,726.4429935648011
339,726.454692351648
340,726.4658394818895
341,726.476424331327
342,726.4864390811398
343,726.4958789659097
344,726.5047424984263
345,726.5130316652328
346,726.5207520878266
347,726.5279131455761
348,726.5345280573861
349,726.5406139198325
350,726.5461917001328
351,726.5512861831786
352,726.5559258728714
353,726.5601428487842
354,726.5639725793229
355,726.5674536920994
356,726.5706277016731
357,726.5735386950014
358,726.5762329764163
359,726.5787586766482
360,726.5811653336327
361,726.583503455463
362,726.5858240769836
363,726.5881783210987
364,726.5906169747462
365,726.5931900885438
366,726.5959466083358
367,726.5989340456209
368,726.6021981916086
369,726.6057828766803
370,726.6097297741577
371,726.6140782453367
372,726.6188652220759
373,726.6241251235475
374,726.629889804504
375,726.6361885330593
376,726.6430479963698
377,726.6504923327767
378,726.6585431887336
379,726.667219797847
380,726.6765390778339
381,726.6865157399952
382,726.697162405557
383,726.7084897239614
384,726.7205064896718
385,726.7332197559009
386,726.7466349451588
387,726.7607559570816
388,726.7755852736698
389,726.7911240613922
390,726.8073722692113
391,726.8243287215936
392,726.8419912055423
393,726.8603565499551
394,726.879420694237
395,726.8991787418634
396,726.9196249938848
397,726.9407529568759
398,726.9625553195795
399,726.9850238932127
400,727.0081495125307
401,727.0319218976587
402,727.0563294794667
403,727.0813591933982
404,727.1069962479979
405,727.1332238749038
406,727.1600230669504
407,727.1873723107448
408,727.2152473199368
409,727.2436207754399
410,727.2724620787337
411,727.3017371238185
412,727.3314080925621
413,727.3614332774488
414,727.3917669350207
415,727.4223591723479
416,727.4531558679473
417,727.4840986283682
418,727.5151247823156
419,727.5461674150273
420,727.5771554459246
421,727.6080137522339
422,727.6386633406623
423,727.6690215684598
424,727.6990024141685
425,727.7285167972378
426,727.7574729449111
427,727.7857768044021
428,727.8133324979884
429,727.8400428180646
430,727.8658097586302
431,727.8905350792512
432,727.9141208970312
433,727.9364703012888
434,727.9574879843112
435,727.9770808800648
436,727.9951588017931
437,728.0116350696624
438,728.0264271210108
439,728.039457097819
440,728.0506524078891
441,728.0599462570896
442,728.0672781497954
443,728.0725943538636
444,728.0758483255407
445,728.0770010885905
446,728.0760215608111
447,728.0728868204845
448,728.0675823055743
449,728.0601019397461
450,728.0504481812504
451,728.0386319928541
452,728.0246727328181
453,728.0085979684196
454,727.9904432152264
455,727.9702516073808
456,727.9480735059262
457,727.9239660530035
458,727.8979926795582
459,727.8702225735844
460,727.8407301154466
461,727.8095942867533
462,727.7768980597089
463,727.7427277748478
464,727.7071725162917
465,727.6703234945612
466,727.6322734469269
467,727.5931160639714
468,727.5529454485591
469,727.5118556104435
470,727.4699399971227
471,727.427291059538
472,727.3839998497936
473,727.3401556477219
474,727.2958456142559
475,727.2511544713963
476,727.2061642098055
477,727.160953825264
478,727.1155990848364
479,727.0701723230325
480,727.0247422676797
481,726.9793738948115
482,726.9341283118363
483,726.8890626687149
484,726.8442300975885
485,726.7996796815524
486,726.7554564523325
487,726.7116014145789
488,726.6681515924203
489,726.6251400927842
490,726.5825961800309
491,726.5405453571929
492,726.4990094500926
493,726.4580066918043
494,726.4175518065998
495,726.3776560946299
496,726.3383275205789
497,726.2995708106603
498,726.2613875622553
499,726.2237763696045
500,726.1867329677842
501,726.1502503959275
502,726.1143191791554
503,726.078927527136
504,726.044061545914
505,726.0097054587872
506,725.9758418314873
507,725.9424517969037
508,725.9095152753449
509,725.8770111877185
510,725.84491766022
511,725.8132122193258
512,725.7818719749981
513,725.7508737888276
514,725.7201944234298
515,725.6898106702314
516,725.6596994545437
517,725.6298379187374
518,725.6002034857626
519,725.5707739061354
520,725.5415272922882
521,725.5124421450656
522,725.483497377742
523,725.4546723425035
524,725.4259468626842
525,725.3973012716204
526,725.368716456498
527,725.3401739036505
528,725.3116557411028
529,725.2831447751086
530,725.2546245194645
531,725.2260792184004
532,725.1974938651188
533,725.1688542187183
534,725.1401468229343
535,725.1113590311461
536,725.0824790428564
537,725.0534959564283
538,725.0243998411313
539,724.9951818294707
540,724.9658342293685
541,724.9363506551181
542,724.9067261755334
543,724.8769574770553
544,724.8470430389262
545,724.8169833170529
546,724.7867809327089
547,724.756440861648
548,724.7259706183622
549,724.6953804290201
550,724.6646833850621
551,724.6338955680194
552,724.6030361355495
553,724.5721273593362
554,724.5411946073361
555,724.5102662655885
556,724.4793735982465
557,724.4485505482158
558,724.4178334839187
559,724.3872608994288
560,724.3568730756839
561,724.3267117106265
562,724.2968195266252
563,724.2672398641613
564,724.2380162708462
565,724.2091920941275
566,724.1808100849822
567,724.152912018954
568,724.1255383400816
569,724.098727832466
570,724.072517323472
571,724.0469414219119
572,724.0220322940057
573,723.9978194793342
574,723.9743297482648
575,723.9515870012467
576,723.9296122091297
577,723.9084233928022
578,723.8880356404431
579,723.8684611613476
580,723.8497093758019
581,723.8317870399999
582,723.8146984034197
583,723.7984453941338
584,723.7830278260222
585,723.7684436210527
586,723.7546890392655
587,723.7417589085501
588,723.7296468459651
589,723.7183454627534
590,723.7078465464851
591,723.6981412155687
592,723.6892200432076
593,723.6810731494037
594,723.6736902606958
595,723.6670607379274
596,723.6611735725886
597,723.656017352512
598,723.6515801982878
599,723.6478496727309
600,723.6448126668232
601,723.6424552665313
602,723.640762605503
603,723.6397187085986
604,723.6393063306718
605,723.6395067946039
606,723.6402998328368
607,723.6416634374701
608,723.6435737248479
609,723.646004820993
610,723.6489287739972
611,723.6523154986616
612,723.6561327576169
613,723.6603461820687
614,723.6649193341368
615,723.669813811395
616,723.6749893929381
617,723.6804042256073
618,723.6860150490796
619,723.691777458977
620,723.6976462072264
621,723.703575538006
622,723.709519555756
623,723.7154326195371
624,723.7212697561845
625,723.7269870835944
626,723.7325422349837
627,723.7378947747618
628,723.743006596744
629,723.7478422962745
630,723.7523695097326
631,723.7565592174062
632,723.7603860077257
633,723.7638283016457
634,723.7668685358067
635,723.7694933027853
636,723.7716934469687
637,723.7734641155554
638,723.7748047654806
639,723.7757191281034
640,723.7762151341808
641,723.7763048021961
642,723.776004093634
643,723.7753327390669
644,723.774314038736
645,723.7729746407471
646,723.7713442993352
647,723.7694556151041
648,723.7673437589525
649,723.7650461816695
650,723.7626023116992
651,723.7600532440076
652,723.7574414231888
653,723.754810323976
654,723.7522041322676
655,723.7496674296406
656,723.7472448840466
657,723.7449809489086
658,723.74291957224
659,723.7411039169242
660,723.7395760931975
661,723.7383769046161
662,723.7375456089593
663,723.7371196954324
664,723.7371346794839
665,723.737623916635
666,723.7386184364786
667,723.7401467970894
668,723.7422349585768
669,723.7449061728342
670,723.7481808854993
671,723.7520766465451
672,723.7566080276285
673,723.7617865462103
674,723.7676205975383
675,723.7741153956872
676,723.7812729244336
677,723.7890918984186
678,723.7975677350817
679,723.8066925383212
680,723.816455095773
681,723.8268408925951
682,723.8378321449571
683,723.8494078558185
684,723.8615438947786
685,723.8742131035787
686,723.8873854291356
687,723.9010280859861
688,723.9151057490001
689,723.9295807753513
690,723.9444134529926
691,723.9595622722215
692,723.9749842174426
693,723.9906350772309
694,724.0064697712179
695,724.0224426917023
696,724.0385080567108
697,724.0546202702367
698,724.0707342845662
699,724.0868059586616
700,724.1027924056484
701,724.1186523222405
702,724.1343462937532
703,724.1498370697548
704,724.1650898067182
705,724.1800722752045
706,724.1947550303294
707,724.2091115456154
708,724.2231183115707
709,724.2367549011358
710,724.2500040043603
711,724.2628514347327
712,724.275286110128
713,724.2873000125662
714,724.2988881323245
715,724.3100484024515
716,724.3207816288937
717,724.3310914196381
718,724.3409841142636
719,724.3504687135361
720,724.3595568072875
721,724.3682624976992
722,724.3766023143407
723,724.3845951173154
724,724.3922619859197
725,724.3996260917488
726,724.4067125561064
727,724.4135482915954
728,724.4201618276142
729,724.4265831200721
730,724.4328433471901
731,724.4389746952558
732,724.4450101397546
733,724.4509832278463
734,724.4569278677183
735,724.4628781291108
736,724.4688680575316
737,724.4749315030169
738,724.4811019634818
739,724.487412442703
740,724.4938953233005
741,724.5005822555231
742,724.5075040631124
743,724.5146906675199
744,724.5221710308492
745,724.5299731165097
746,724.5381238656329
747,724.5466491873477
748,724.5555739616899
749,724.5649220543091
750,724.5747163414502
751,724.5849787420483
752,724.5957302521678
753,724.6069909762869
754,724.6187801502061
755,724.6311161514449
756,724.6440164946089
757,724.6574978109007
758,724.6715758121553
759,724.6862652402688
760,724.7015798028273
761,724.7175320955466
762,724.734133512231
763,724.7513941435125
764,724.7693226664572
765,724.7879262279953
766,724.8072103260087
767,724.8271786926045
768,724.8478331843755
769,724.8691736841869
770,724.8911980183277
771,724.9139018919311
772,724.9372788445942
773,724.9613202271967
774,724.9860152002483
775,725.0113507541257
776,725.0373117523839
777,725.0638810004664
778,725.0910393430216
779,725.118765793235
780,725.1470376967935
781,725.1758309311604
782,725.2051201379651
783,725.234878983441
784,725.2650804400887
785,725.2956970821886
786,725.3267013872938
787,725.3580660348011
788,725.3897641920366
789,725.4217697791102
790,725.4540577059237
791,725.4866040770479
792,725.5193863618931
793,725.5523835285154
794,725.585576139716
795,725.6189464103305
796,725.6524782253599
797,725.6861571198671
798,725.7199702229163
799,725.7539061690169
800,725.7879549817676
801,725.8221079356764
802,725.8563574029663
803,725.8906966921396
804,725.9251198842408
805,725.9596216714921
806,725.9941972015494
807,726.0288419292369
808,726.0635514764288
809,726.0983214996476
810,726.1331475639017
811,726.1680250207714
812,726.2029488892308
813,726.2379137387251
814,726.2729135747645
815,726.3079417274373
816,726.3429907432885
817,726.3780522816212
818,726.4131170177052
819,726.4481745571507
820,726.4832133670085
821,726.5182207295148
822,726.5531827240064
823,726.5880842420074
824,726.6229090401191
825,726.6576398347355
826,726.692258441157
827,726.726745957332
828,726.7610829899338
829,726.7952499186329
830,726.8292271936274
831,726.8629956615156
832,726.8965369150159
833,726.9298336625931
834,726.9628701144914
835,726.9956323817742
836,727.0281088846463
837,727.0602907657163
838,727.0921723031456
839,727.1237513178871
840,727.1550295682214
841,727.186013123432
842,727.2167127073143
843,727.2471440021892
844,727.277327905377
845,727.3072907318708
846,727.3370643583979
847,727.3666863050374
848,727.396199751361
849,727.4256534848665
850,727.4551017803817
851,727.4846042102785
852,727.5142253867585
853,727.5440346386839
854,727.5741056260086
855,727.6045158950556
856,727.6353463782939
857,727.6666808430388
858,727.6986052941978
859,727.7312073366594
860,727.7645755034882
861,727.7987985570774
862,727.833964771617
863,727.8701612063205
864,727.9074729797935
865,727.9459825567608
866,727.9857690585155
867,728.0269076071168
868,728.0694687105448
869,728.1135176928242
870,728.1591141704428
871,728.2063115742194
872,728.2551567137439
873,728.3056893798858
874,728.3579419802869
875,728.4119392035013
876,728.4676977091808
877,728.5252258435627
878,728.5845233806655
879,728.6455812895567
880,728.7083815270497
881,728.7728968539267
882,728.8390906720861
883,728.9069168804458
884,728.9763197489749
885,729.0472338123323
886,729.1195837865561
887,729.1932845135009
888,729.2682409380566
889,729.3443481229086
890,729.4214913054316
891,729.4995460017577
892,729.578378163976
893,729.6578443970894
894,729.7377922420559
895,729.818060529792
896,729.8984798090498
897,729.978872849493
898,730.0590552203572
899,730.138835944327
900,730.2180182251975
901,730.2964002465478
902,730.3737760372798
903,730.4499363985841
904,730.5246698854145
905,730.5977638336494
906,730.6690054219631
907,730.7381827556783
908,730.8050859590822
909,730.8695082629187
910,730.9312470745659
911,730.9901050192336
912,731.0458909412233
913,731.0984208553139
914,731.147518839966
915,731.1930178661293
916,731.2347605575395
