frame_number,force
0,880.2647700082501
1,880.2801679625774
2,880.2955099950548
3,880.3107401981579
4,880.3258026990097
5,880.3406416905182
6,880.3552014764573
7,880.369426532183
8,880.3832615815694
9,880.3966516898881
10,880.4095423719435
11,880.4218797153783
12,880.4336105206642
13,880.4446824610937
14,880.45504426707
15,880.4646459386009
16,880.4734389882129
17,880.48137671406
18,880.4884145005906
19,880.4945101422342
20,880.4996241842683
21,880.503720274202
22,880.5067655168275
23,880.5087308266783
24,880.5095912726127
25,880.5093264098967
26,880.5079205950586
27,880.505363278135
28,880.5016492662616
29,880.4967789523394
30,880.4907585028457
31,880.4835999996425
32,880.4753215317533
33,880.4659472345963
34,880.4555072758837
35,880.4440377888058
36,880.4315807538503
37,880.4181838307126
38,880.4039001414488
39,880.388788005537
40,880.3729106270985
41,880.3563357346031
42,880.3391351741753
43,880.3213844589706
44,880.3031622781929
45,880.2845499694889
46,880.2656309579224
47,880.2464901642574
48,880.2272133852291
49,880.2078866486804
50,880.1885955469005
51,880.1694245524775
52,880.1504563224621
53,880.1317709983371
54,880.113445510701
55,880.0955528982661
56,880.0781616504418
57,880.0613350815081
58,880.0451307423398
59,880.0295998732059
60,880.0147868991401
61,880.0007289687267
62,879.9874555382992
63,879.9749880059097
64,879.9633394017479
65,879.95251414306
66,879.9425078620045
67,879.9333073145151
68,879.924890376966
69,879.9172261351334
70,879.910275067152
71,879.9039893198628
72,879.8983130765488
73,879.893183013221
74,879.8885288397215
75,879.8842739206394
76,879.8803359698346
77,879.8766278120697
78,879.8730582059989
79,879.8695327235178
80,879.8659546802069
81,879.8622261103573
82,879.8582487785214
83,879.8539252178596
84,879.8491597836038
85,879.8438597079423
86,879.8379361409587
87,879.831305161287
88,879.8238887401973
89,879.8156156440614
90,879.8064222622141
91,879.796253349533
92,879.7850626753182
93,879.7728135721535
94,879.7594793802143
95,879.7450437838614
96,879.7295010381978
97,879.712856083431
98,879.6951245446537
99,879.6763326146178
100,879.6565168176941
101,879.635723654682
102,879.6140091306786
103,879.5914381718521
104,879.5680839410727
105,879.5440270657411
106,879.5193547929978
107,879.4941600879831
108,879.4685406907976
109,879.4425981475874
110,879.4164368303842
111,879.3901629587524
112,879.3638836345862
113,879.3377059002337
114,879.3117358293206
115,879.2860776586251
116,879.2608329681668
117,879.2360999157937
118,879.2119725320384
119,879.1885400802943
120,879.1658864860138
121,879.1440898369136
122,879.1232219545475
123,879.103348036207
124,879.0845263649132
125,879.0668080844712
126,879.0502370363673
127,879.0348496556849
128,879.0206749239508
129,879.007734377647
130,878.9960421717348
131,878.9856051976996
132,878.9764232552915
133,878.9684892765979
134,878.9617896006259
135,878.9563042959527
136,878.9520075279513
137,878.9488679660631
138,878.946849226495
139,878.945910347065
140,878.9460062929243
141,878.9470884930155
142,878.9491054064206
143,878.9520031155658
144,878.9557259406972
145,878.960217068281
146,878.965419185681
147,878.9712751152672
148,878.9777284418435
149,878.9847241269805
150,878.9922091025558
151,879.0001328342067
152,879.0084478441443
153,879.0171101823586
154,879.0260798361384
155,879.0353210699764
156,879.044802690633
157,879.0544982348151
158,879.0643860794902
159,879.0744494770636
160,879.0846765191417
161,879.0950600334538
162,879.1055974192676
163,879.1162904275475
164,879.1271448928413
165,879.1381704238825
166,879.1493800590196
167,879.1607898912706
168,879.1724186669101
169,879.1842873616157
170,879.1964187390147
171,879.2088368970303
172,879.2215668071101
173,879.234633850408
174,879.2480633539093
175,879.2618801286457
176,879.276108011572
177,879.2907694124467
178,879.3058848673808
179,879.3214726014411
180,879.337548103383
181,879.3541237159742
182,879.3712082455836
183,879.3888065949966
184,879.4069194239003
185,879.4255428419826
186,879.4446681396436
187,879.4642815607629
188,879.48436412098
189,879.5048914735775
190,879.5258338233176
191,879.5471558867665
192,879.5688168964488
193,879.5907706460636
194,879.6129655747986
195,879.6353448900144
196,879.6578467286939
197,879.6804043586701
198,879.7029464206345
199,879.7253972117101
200,879.7476770114846
201,879.7697024518145
202,879.7913869318737
203,879.8126410795267
204,879.8333732592363
205,879.8534901254667
206,879.8728972188762
207,879.8914996007102
208,879.9092025190768
209,879.9259120993987
210,879.9415360501716
211,879.9559843741015
212,879.9691700736659
213,879.9810098393497
214,879.9914247087235
215,880.0003406854511
216,880.0076893090286
217,880.0134081681382
218,880.0174413525458
219,880.0197398402875
220,880.0202618187078
221,880.0189729399742
222,880.0158465136823
223,880.0108636403595
224,880.0040132897941
225,879.9952923277709
226,879.9847054948409
227,879.9722653414836
228,879.9579921250249
229,879.9419136742964
230,879.9240652278361
231,879.9044892502544
232,879.8832352293877
233,879.8603594545749
234,879.8359247745875
235,879.8100003328709
236,879.7826612776912
237,879.7539884451871
238,879.7240680140849
239,879.6929911319241
240,879.6608535139204
241,879.6277550167692
242,879.5937991903853
243,879.5590928102376
244,879.5237453914642
245,879.4878686840008
246,879.451576146479
247,879.4149823962397
248,879.378202633623
249,879.3413520405765
250,879.3045451558806
251,879.2678952309899
252,879.2315135711708
253,879.1955088668677
254,879.1599865208098
255,879.125047977377
256,879.090790061519
257,879.0573043346525
258,879.024676474649
259,878.9929856866388
260,878.9623041509458
261,878.9326965137268
262,878.9042194247248
263,878.8769211252593
264,878.8508410888031
265,878.8260097165315
266,878.8024480907508
267,878.780167789486
268,878.7591707655051
269,878.7394492929567
270,878.7209859848648
271,878.7037538848499
272,878.6877166362943
273,878.6728287316741
274,878.6590358441964
275,878.646275243202
276,878.6344762934863
277,878.6235610364677
278,878.6134448485535
279,878.6040371697521
280,878.5952422936243
281,878.5869602078825
282,878.579087473589
283,878.5715181304006
284,878.5641446159115
285,878.556858688724
286,878.5495523466541
287,878.5421187324259
288,878.5344530190799
289,878.5264532667669
290,878.5180212425796
291,878.5090631958969
292,878.4994905829614
293,878.4892207353786
294,878.4781774676796
295,878.4662916194163
296,878.4535015280455
297,878.4397534303879
298,878.4250017926278
299,878.4092095710438
300,878.3923484068566
301,878.3743987581186
302,878.3553499699295
303,878.3352002822829
304,878.3139567728269
305,878.2916352301414
306,878.2682599527079
307,878.2438634702406
308,878.2184861869036
309,878.1921759491235
310,878.1649875436453
311,878.1369821338849
312,878.108226643972
313,878.0787930999419
314,878.048757936643
315,878.0182012776306
316,877.9872061940131
317,877.9558579476942
318,877.9242432255631
319,877.8924493736529
320,877.8605636424778
321,877.8286724553956
322,877.7968607110262
323,877.7652111293593
324,877.7338036495759
325,877.7027148859742
326,877.6720176472071
327,877.6417805237325
328,877.6120675483953
329,877.5829379342138
330,877.5544458913929
331,877.5266405232209
332,877.4995657984833
333,877.4732605963418
334,877.4477588180947
335,877.4230895591048
336,877.3992773334496
337,877.3763423433786
338,877.3543007854462
339,877.3331651854779
340,877.3129447553836
341,877.2936457660538
342,877.2752719318247
343,877.2578248027196
344,877.241304160298
345,877.2257084115938
346,877.2110349742585
347,877.1972806454257
348,877.1844419469131
349,877.1725154398234
350,877.1614980023779
351,877.1513870660259
352,877.1421808064067
353,877.13387828751
354,877.1264795593086
355,877.1199857107539
356,877.1143988806955
357,877.1097222289482
358,877.1059598689915
359,877.1031167631734
360,877.1011985811181
361,877.1002115225243
362,877.100162106921
363,877.1010569348051
364,877.1029024258182
365,877.1057045396376
366,877.1094684843883
367,877.1141984161193
368,877.1198971314674
369,877.1265657546925
370,877.1342034207144
371,877.1428069576106
372,877.152370573996
373,877.1628855576004
374,877.1743399911626
375,877.1867184912333
376,877.2000019752197
377,877.2141674620154
378,877.2291879116907
379,877.2450321100582
380,877.2616646043954
381,877.2790456966264
382,877.2971314992955
383,877.3158740578415
384,877.3352215407336
385,877.355118497432
386,877.3755061829669
387,877.3963229469424
388,877.4175046837255
389,877.4389853395061
390,877.4606974711526
391,877.4825728515418
392,877.5045431160212
393,877.526540444313
394,877.548498271018
395,877.5703520157463
396,877.5920398212957
397,877.6135032862447
398,877.6346881776084
399,877.655545109947
400,877.6760301794839
401,877.6961055453431
402,877.7157399542353
403,877.7349092081975
404,877.7535965759307
405,877.7717931471439
406,877.7894981275839
407,877.806719071197
408,877.8234720450919
409,877.8397817224686
410,877.8556813985614
411,877.8712129249961
412,877.8864265586873
413,877.901380722714
414,877.9161416787232
415,877.9307831131513
416,877.9453856425337
417,877.960036245892
418,877.974827633867
419,877.9898575642917
420,878.0052281127164
421,878.0210449051251
422,878.0374163193127
423,878.0544526608911
424,878.072265319441
425,878.0909659101459
426,878.1106654065572
427,878.1314732708802
428,878.1534965891587
429,878.1768392196329
430,878.2016009627096
431,878.2278767601896
432,878.2557559301933
433,878.2853214433012
434,878.316649244703
435,878.3498076259644
436,878.3848566481466
437,878.421847616061
438,878.4608226022825
439,878.5018140194234
440,878.5448442398989
441,878.5899252638941
442,878.6370584381907
443,878.6862342303144
444,878.7374320633893
445,878.7906202170523
446,878.8457557990956
447,878.9027847914688
448,878.9616421730015
449,879.0222521198996
450,879.0845282839441
451,879.1483741473883
452,879.2136834525642
453,879.2803407029566
454,879.3482217312414
455,879.4171943289624
456,879.4871189322205
457,879.5578493575451
458,879.629233581536
459,879.7011145568415
460,879.7733310558888
461,879.845718532971
462,879.9181099953272
463,879.9903368749589
464,880.0622298948924
465,880.1336199258093
466,880.2043388306072
467,880.2742202950402
468,880.343100642307
469,880.4108196288735
470,880.4772212181174
471,880.5421543275644
472,880.6054735448619
473,880.6670398077439
474,880.7267210440156
475,880.7843927684877
476,880.8399386344961
477,880.89325093814
478,880.9442310736544
479,880.9927899383661
480,881.0388482855362
481,881.0823370229948
482,881.1231974549197
483,881.1613814638848
484,881.1968516309139
485,881.2295812927779
486,881.2595545375607
487,881.2867661405753
488,881.311221442561
489,881.3329361712631
490,881.351936207189
491,881.3682572953455
492,881.3819447069044
493,881.3930528568139
494,881.4016448838809
495,881.4077921982079
496,881.411573998059
497,881.4130767560491
498,881.4123936742228
499,881.4096241088193
500,881.404872967156
501,881.3982500804937
502,881.3898695580749
503,881.379849128669
504,881.3683094763618
505,881.3553735767508
506,881.3411660384752
507,881.3258124536741
508,881.3094387598878
509,881.2921706153489
510,881.2741327897542
511,881.2554485733034
512,881.2362392073481
513,881.2166233397135
514,881.1967165065425
515,881.176630640988
516,881.1564736079602
517,881.1363487637094
518,881.1163545389617
519,881.0965840440992
520,881.077124694476
521,881.0580578539198
522,881.0394584953704
523,881.021394879198
524,881.0039282513538
525,880.98711256467
526,880.9709942275216
527,880.9556118849858
528,880.9409962385369
529,880.9271699107132
530,880.9141473608119
531,880.9019348567496
532,880.8905305072681
533,880.8799243577844
534,880.8700985520625
535,880.8610275601993
536,880.852678471416
537,880.8450113482561
538,880.8379796372994
539,880.8315306304272
540,880.8256059700714
541,880.8201421917978
542,880.8150712979784
543,880.8103213570454
544,880.8058171236282
545,880.8014806755573
546,880.7972320642883
547,880.7929899757946
548,880.7886723989197
549,880.7841972968536
550,880.7794832748918
551,880.7744502353532
552,880.7690200099981
553,880.7631169616305
554,880.7566685485431
555,880.749605846847
556,880.7418640262911
557,880.733382775491
558,880.7241066732563
559,880.7139855041249
560,880.7029745178795
561,880.6910346340753
562,880.6781325932108
563,880.6642410565646
564,880.6493386574765
565,880.6334100078643
566,880.6164456642581
567,880.5984420570901
568,880.5794013856745
569,880.5593314799379
570,880.5382456290912
571,880.5161623773407
572,880.4931052872469
573,880.4691026720686
574,880.4441872992633
575,880.4183960682884
576,880.3917696666933
577,880.3643522089159
578,880.3361908624806
579,880.3073354668576
580,880.2778381511013
581,880.247752957273
582,880.2171354771899
583,880.1860425097892
584,880.1545317452311
585,880.1226614801869
586,880.0904903670177
587,880.0580771977985
588,880.025480722289
589,879.9927594968917
590,879.9599717593909
591,879.927175322212
592,879.894427475772
593,879.8617848935144
594,879.8293035312405
595,879.7970385149323
596,879.7650440130052
597,879.7333730905059
598,879.7020775441046
599,879.6712077182292
600,879.6408123046685
601,879.61093812978
602,879.581629933935
603,879.5529301468334
604,879.5248786610733
605,879.4975126062664
606,879.4708661270113
607,879.4449701689701
608,879.4198522773405
609,879.3955364117892
610,879.372042782321
611,879.3493877113655
612,879.3275835276424
613,879.3066384967221
614,879.2865567918637
615,879.2673385070701
616,879.2489797125633
617,879.2314725512707
618,879.2148053736047
619,879.1989629068386
620,879.183926454745
621,879.1696741226251
622,879.1561810621557
623,879.1434197296177
624,879.1313601505624
625,879.1199701844356
626,879.1092157841322
627,879.0990612474706
628,879.0894694596527
629,879.0804021274668
630,879.071820007014
631,879.0636831271347
632,879.0559510106124
633,879.0485828949694
634,879.0415379546422
635,879.0347755270091
636,879.0282553460039
637,879.0219377878254
638,879.0157841323726
639,879.0097568415727
640,879.0038198530349
641,878.9979388855079
642,878.992081751361
643,878.9862186701266
644,878.9803225758214
645,878.974369409456
646,878.9683383869975
647,878.9622122320895
648,878.9559773623116
649,878.9496240180679
650,878.943146324617
651,878.9365422803326
652,878.9298136676235
653,878.9229658864886
654,878.9160077140693
655,878.9089509967267
656,878.9018102839016
657,878.8946024150597
658,878.887346072275
659,878.8800613116875
660,878.872769087246
661,878.8654907794953
662,878.8582477405118
663,878.851060863732
664,878.8439501850683
665,878.8369345199083
666,878.8300311394134
667,878.8232554887193
668,878.8166209488596
669,878.8101386432285
670,878.8038172880086
671,878.7976630841725
672,878.7916796466783
673,878.785867965208
674,878.7802263910468
675,878.7747506462588
676,878.76943385311
677,878.7642665831085
678,878.7592369263691
679,878.7543305836019
680,878.749530984754
681,878.7448194396517
682,878.7401753262009
683,878.7355763202427
684,878.7309986680423
685,878.7264174983542
686,878.7218071669652
687,878.7171416232077
688,878.7123947855893
689,878.7075409128663
690,878.7025549577164
691,878.6974128921977
692,878.6920919966974
693,878.6865711064436
694,878.6808308114109
695,878.6748536065599
696,878.6686239906279
697,878.6621285141132
698,878.6553557805264
699,878.6482964080712
700,878.6409429605447
701,878.6332898565197
702,878.6253332655407
703,878.6170709994957
704,878.6085024064562
705,878.5996282729858
706,878.5904507392403
707,878.5809732292918
708,878.5712003971385
709,878.561138087013
710,878.5507933051312
711,878.5401741989926
712,878.52929003972
713,878.51815120294
714,878.5067691446625
715,878.4951563700049
716,878.4833263936166
717,878.4712936910867
718,878.4590736409209
719,878.446682457074
720,878.4341371123497
721,878.4214552531943
722,878.4086551064898
723,878.3957553789581
724,878.382775149884
725,878.3697337582278
726,878.3566506855568
727,878.3435454363275
728,878.3304374170041
729,878.3173458154702
730,878.3042894819041
731,878.2912868114918
732,878.2783556285536
733,878.2655130718875
734,878.252775482853
735,878.2401583000511
736,878.2276759658021
737,878.2153418491685
738,878.2031681884675
739,878.1911660539378
740,878.1793453289572
741,878.1677147059906
742,878.1562816914962
743,878.145052612779
744,878.1340326195609
745,878.1232256738093
746,878.1126345230327
747,878.1022606546595
748,878.0921042316705
749,878.0821640115571
750,878.0724372516582
751,878.0629196042903
752,878.0536050052432
753,878.0444855597509
754,878.0355514314069
755,878.0267907412559
756,878.0181894852336
757,878.0097314774648
758,878.0013983251179
759,877.9931694385828
760,877.9850220792122
761,877.9769314456593
762,877.9688707987972
763,877.9608116244058
764,877.9527238323984
765,877.944575991183
766,877.9363355954769
767,877.9279693654074
768,877.9194435741539
769,877.9107244006982
770,877.9017783032938
771,877.8925724082123
772,877.8830749075865
773,877.8732554598254
774,877.863085585941
775,877.8525390553018
776,877.8415922550241
777,877.8302245384231
778,877.8184185493092
779,877.8061605200543
780,877.7934405418562
781,877.7802528052575
782,877.766595807869
783,877.7524725250228
784,877.7378905384438
785,877.7228621182986
786,877.7074042552608
787,877.6915386415263
788,877.6752916025246
789,877.6586939832113
790,877.6417809932326
791,877.624592014001
792,877.6071703687911
793,877.5895630556323
794,877.5718204429556
795,877.5539959296223
796,877.5361455731035
797,877.5183276912793
798,877.5006024444234
799,877.4830314046495
800,877.4656771202729
801,877.4486026820394
802,877.4318712973607
803,877.4155458780299
804,877.3996886463026
805,877.3843607632452
806,877.3696219817617
807,877.3555303251243
808,877.3421417909195
809,877.3295100804773
810,877.3176863545604
811,877.306719016327
812,877.2966535220176
813,877.2875322190893
814,877.2793942111566
815,877.2722752489204
816,877.266207645999
817,877.2612202184057
818,877.2573382466362
819,877.2545834599233
820,877.2529740429563
821,877.2525246661558
822,877.2532465414245
823,877.2551475056849
824,877.2582321338909
825,877.2625018816938
826,877.2679552564585
827,877.27458801469
828,877.2823933840422
829,877.2913623082281
830,877.3014837127408
831,877.3127447883402
832,877.3251312880709
833,877.3386278323644
834,877.3532182157521
835,877.3688857080901
836,877.3856133430028
837,877.4033841863002
838,877.4221815773219
839,877.4419893366878
840,877.4627919350181
841,877.4845746188518
842,877.5073234920488
843,877.5310255530876
844,877.5556686907349
845,877.5812416424992
846,877.607733921697
847,877.6351357193225
848,877.6634377861384
849,877.6926312992041
850,877.7227077162463
851,877.7536586211523
852,877.7854755640982
853,877.8181498998072
854,877.8516726267934
855,877.8860342294143
856,877.921224523664
857,877.9572325072529
858,877.9940462147201
859,878.0316525787817
860,878.0700372993165
861,878.1091847211014
862,878.1490777208918
863,878.1896976039869
864,878.231024010054
865,878.2730348275604
866,878.3157061157564
867,878.3590120330717
868,878.4029247713188
869,878.4474144960802
870,878.4924492945082
871,878.5379951318142
872,878.5840158169051
873,878.6304729765734
874,878.6773260370663
875,878.7245322119863
876,878.7720464961909
877,878.8198216664272
878,878.8678082903655
879,878.9159547461602
880,878.9642072549639
881,879.01250992948
882,879.0608048423729
883,879.1090321182083
884,879.1571300511637
885,879.2050352487715
886,879.2526828006547
887,879.3000064709506
888,879.3469389129958
889,879.3934119038844
890,879.4393565950483
891,879.484703774238
892,879.5293841348761
893,879.5733285503725
894,879.6164683528311
895,879.658735616968
896,879.7000634508048
897,879.7403862949644
898,879.7796402323205
899,879.8177633092902
900,879.854695869174
901,879.8903808967906
902,879.9247643721363
903,879.9577956286047
904,879.9894277089336
905,880.0196177107292
906,880.0483271138686
907,880.0755220836886
908,880.1011737455975
909,880.1252584281652
910,880.1477578727884
911,880.1686594084318
912,880.1879560895227
913,880.2056467941679
914,880.2217362789988
915,880.2362351863999
916,880.249159999952
917,880.2605329448635
