frame_number,force
0,586.6613800000463
1,587.1485490822668
2,587.6219731203299
3,588.0694164200087
4,588.4814112347652
5,588.852074693988
6,589.1793851370542
7,589.4649135826165
8,589.7130928107323
9,589.9301828787907
10,590.1231400612721
11,590.2985918907191
12,590.4620659784264
13,590.6175434988609
14,590.7673346642206
15,590.9122146186756
16,591.0517258423095
17,591.1845575712458
18,591.3089459402016
19,591.4230747306289
20,591.5254709317383
21,591.6153757854528
22,591.6930484378552
23,591.7599535623648
24,591.818806248087
25,591.8734758824409
26,591.92875803645
27,591.9900123502304
28,592.0626677773682
29,592.1516335011307
30,592.2607020248453
31,592.3920540552608
32,592.5459617800855
33,592.7207491303097
34,592.9130165297825
35,593.1180836562754
36,593.3305605871591
37,593.5449390820772
38,593.7561081701206
39,593.9597378896523
40,594.1525259502894
41,594.3323365040677
42,594.4982570352249
43,594.6505701303715
44,594.7906190113604
45,594.9205606223089
46,595.0430289746512
47,595.1607443027672
48,595.2761002541502
49,595.3907653449412
50,595.505353898027
51,595.6192332220753
52,595.7305134670988
53,595.8362221918426
54,595.9326286714238
55,596.0156652637061
56,596.0813791291057
57,596.1263329187076
58,596.1478773748069
59,596.144254109119
60,596.1145416068715
61,596.0585112577304
62,595.9764888963607
63,595.8692973594801
64,595.738291533047
65,595.5854314974093
66,595.4133124287148
67,595.2250870777206
68,595.0242576525244
69,594.8143568827343
70,594.5985699308717
71,594.37936869923
72,594.1582442628865
73,593.9356275897793
74,593.7110631248726
75,593.4836333823605
76,593.2525479521852
77,593.0177498862461
78,592.7803863476582
79,592.543036867241
80,592.3096614549801
81,592.0852879179847
82,591.8754907299264
83,591.6857340906623
84,591.5206745965188
85,591.3835427726207
86,591.2757252261212
87,591.1966315034108
88,591.1438653403308
89,591.113660359883
90,591.1014985446932
91,591.102801374921
92,591.113569051216
93,591.1308511081604
94,591.152968917394
95,591.1794734061718
96,591.2108857359005
97,591.2483049378537
98,591.292970981097
99,591.3458644247615
100,591.4074142690508
101,591.4773622623472
102,591.5547868719513
103,591.6382426025194
104,591.7259532343963
105,591.8160163612333
106,591.9066000901313
107,591.9961172735862
108,592.0833597700137
109,592.1675825066012
110,592.248541870204
111,592.3265039559762
112,592.4022375933848
113,592.4769908539054
114,592.5524267772892
115,592.6304883489842
116,592.7131878173765
117,592.8023522208262
118,592.8993744168177
119,593.0050099134761
120,593.1192429512204
121,593.2412366974471
122,593.3693780638448
123,593.5014148788182
124,593.6346639878705
125,593.7662590237561
126,593.8934092090864
127,594.013641168195
128,594.1249901875468
129,594.2261128039898
130,594.3163204754965
131,594.3955687033033
132,594.4644498445598
133,594.5242199788423
134,594.57685369287
135,594.6250880217184
136,594.672403591641
137,594.7229017646997
138,594.7810650564013
139,594.851417674006
140,594.9381180210578
141,595.0445160686327
142,595.1727107026926
143,595.323157303074
144,595.4943969989446
145,595.682981723831
146,595.8836345528756
147,596.0896266394042
148,596.2933082736273
149,596.4867238739931
150,596.6622560310988
151,596.8132562808056
152,596.9346167318816
153,597.0232204524461
154,597.0781959168486
155,597.1009135215572
156,597.0947081394518
157,597.0643703584401
158,597.0154885501682
159,596.9537352866695
160,596.8841920715516
161,596.8108050240397
162,596.7360464267525
163,596.660814063747
164,596.5845510502164
165,596.5055382553595
166,596.4213032649529
167,596.3290917533742
168,596.2263504182386
169,596.1111765460752
170,595.9826989709794
171,595.8413619414233
172,595.6890804558435
173,595.5292298465838
174,595.3664444103675
175,595.2062418421627
176,595.0545415091352
177,594.9171652520338
178,594.7993878176296
179,594.7055713928406
180,594.6389018233326
181,594.6012321558334
182,594.5930174527923
183,594.6133090859548
184,594.6597887533283
185,594.7288537649878
186,594.8157839933069
187,594.9150083839924
188,595.0204582111722
189,595.1259734983039
190,595.2257293771017
191,595.3146553258763
192,595.3888158949075
193,595.4457132940282
194,595.4844746031574
195,595.5058974932723
196,595.5123410299633
197,595.5074672354497
198,595.4958669054442
199,595.4826268659808
200,595.4729028760349
201,595.4715497283371
202,595.4828292516756
203,595.5101804946248
204,595.55602055618
205,595.6215643101245
206,595.7066888119764
207,595.8098895936946
208,595.9283674861587
209,596.0582598493372
210,596.1950039764337
211,596.333793469147
212,596.4700621126651
213,596.5999169756564
214,596.7204523660154
215,596.8299045948002
216,596.9276462114813
217,597.0140586404607
218,597.0903440160415
219,597.1583206313026
220,597.2202040389033
221,597.2783489972454
222,597.3349411347334
223,597.3916656793011
224,597.4494114713591
225,597.5080729103557
226,597.5664919648696
227,597.6225495910746
228,597.6733836712021
229,597.7156866194177
230,597.7460236722056
231,597.7611149899963
232,597.7580425005397
233,597.7343711508087
234,597.6882001018985
235,597.6181709435357
236,597.5234613551623
237,597.4037931285467
238,597.2594790908664
239,597.09151522369
240,596.9016959562388
241,596.6927035618731
242,596.4681058449538
243,596.2322024754528
244,595.9897037406357
245,595.7452991952288
246,595.5032373521815
247,595.2670454421003
248,595.0394622178773
249,594.8225718556016
250,594.6180581138788
251,594.427471680687
252,594.25242185984
253,594.0946479528388
254,593.9559714284145
255,593.8381621771999
256,593.7427667608308
257,593.6709439045669
258,593.6233351032664
259,593.5999727512074
260,593.600206052027
261,593.6226193897814
262,593.6649344507509
263,593.7239136803609
264,593.7952968207217
265,593.8737994123628
266,593.9531989595856
267,594.0265410130812
268,594.0865004629824
269,594.1259115231315
270,594.1384255275005
271,594.1191908323278
272,594.0654194292673
273,593.9767331793505
274,593.8552397032024
275,593.7053343749636
276,593.5332575963516
277,593.3464709205385
278,593.1529476300896
279,592.9604837974438
280,592.7761160401444
281,592.6056925021325
282,592.4536062067384
283,592.3226840129603
284,592.2142247746331
285,592.1281697305515
286,592.06335814711
287,592.0178004012811
288,591.9889148240674
289,591.9737144670718
290,591.9689683520436
291,591.9713760596893
292,591.9777746805322
293,591.9853556082085
294,591.9918345140404
295,591.9955103032072
296,591.9951671557001
297,591.9898135223335
298,591.9783128955514
299,591.9590291818965
300,591.9296443632321
301,591.8872679459153
302,591.8288507115536
303,591.7517950895104
304,591.6545851064163
305,591.537266722793
306,591.4016744125183
307,591.2513770390082
308,591.0913682482806
309,590.9275503631729
310,590.7660792839043
311,590.6126646942398
312,590.4719383968858
313,590.3469890499143
314,590.239115430139
315,590.1478017844714
316,590.070893541922
317,590.0049471703417
318,589.9457202925838
319,589.8887426404655
320,589.8298797557688
321,589.7657947196806
322,589.694233805493
323,589.614098545617
324,589.5253124415606
325,589.4285392060606
326,589.3248417338312
327,589.2153675632462
328,589.1011130668761
329,588.9827829152111
330,588.860743106605
331,588.7350601006245
332,588.6056120054545
333,588.4722473470356
334,588.3349607411986
335,588.1940592862618
336,588.0502990188996
337,587.9049625214988
338,587.7598392509951
339,587.6170934145924
340,587.4790638933363
341,587.348089466627
342,587.2264412846055
343,587.1163792921521
344,587.0202828461482
345,586.9407785631633
346,586.8807984776413
347,586.8435284061501
348,586.8322382165239
349,586.850017043469
350,586.899458555748
351,586.9823449452432
352,587.099364201933
353,587.2498786692385
354,587.4317595566612
355,587.6413096392214
356,587.8733005331662
357,588.1211449726688
358,588.3772092032939
359,588.6332470998927
360,588.8809143402168
361,589.1123128638902
362,589.3205230035726
363,589.5000825088727
364,589.6473567317025
365,589.7607317177674
366,589.8405783376907
367,589.8889810234134
368,589.9092771171355
369,589.9054947543037
370,589.8817997751821
371,589.8420566995649
372,589.789577953307
373,589.7270966104164
374,589.6569567380374
375,589.5814625167054
376,589.5032713832826
377,589.4256911398577
378,589.3527679454919
379,589.2891188313054
380,589.2395383765826
381,589.2084661656667
382,589.1994204132895
383,589.2144824161951
384,589.2538797514935
385,589.315696403272
386,589.3957484285567
387,589.4876838447552
388,589.5833577481533
389,589.6734801379451
390,589.748458986554
391,589.799313440496
392,589.8185363964069
393,589.8008192788975
394,589.7435773838819
395,589.6472259701526
396,589.5151776834686
397,589.3535705938905
398,589.1707744695809
399,588.9767373554637
400,588.7822234601952
401,588.5979789731095
402,588.4338690338658
403,588.2980600702997
404,588.1963541040976
405,588.1317828847256
406,588.1045277082453
407,588.1121647447768
408,588.1501758888935
409,588.212631991833
410,588.2929511203864
411,588.3846421497198
412,588.4819465444251
413,588.5802951359136
414,588.6765195935578
415,588.7688008883541
416,588.8563855693629
417,588.9391448449508
418,589.0170850407468
419,589.0899293543364
420,589.1568669958862
421,589.2165096734819
422,589.2670324994561
423,589.3064371375968
424,589.3328710225784
425,589.3449560364877
426,589.3420989893982
427,589.3247541815306
428,589.2945871889989
429,589.2544774124976
430,589.2083227526981
431,589.1606667342642
432,589.1162209430458
433,589.0793758246581
434,589.0537793284205
435,589.042030163406
436,589.0455003085196
437,589.0642860809219
438,589.0972854356689
439,589.1423902190875
440,589.196755188835
441,589.2570793601362
442,589.3198412789038
443,589.3814782605548
444,589.4385600016475
445,589.4880286013929
446,589.5275354148915
447,589.5558254481987
448,589.5730521689574
449,589.5808859396916
450,589.5823191343585
451,589.5811614393838
452,589.581326199526
453,589.5860796588192
454,589.5974240514806
455,589.6157267617417
456,589.6396333858137
457,589.6662409101876
458,589.6914680377457
459,589.7105469814827
460,589.7185683332964
461,589.7110227406786
462,589.6842966584087
463,589.6361004544362
464,589.5658259313707
465,589.474826544128
466,589.3665894321778
467,589.246749317444
468,589.122895983262
469,589.0041459644561
470,588.9004816104248
471,588.8219052883352
472,588.7775003205722
473,588.7745140403676
474,588.8175760567326
475,588.9081481333903
476,589.0442815741485
477,589.220727019658
478,589.4293896946598
479,589.6600605889553
480,589.9013089275539
481,590.1414142619028
482,590.3692427611245
483,590.5750058962582
484,590.750859342354
485,590.8913093682994
486,590.9934083265437
487,591.056741612802
488,591.0832289723934
489,591.0767843531964
490,591.0429013159037
491,590.9882441975602
492,590.9203127804627
493,590.8472024000936
494,590.7774170365508
495,590.7196487364353
496,590.6824450418217
497,590.673741870907
498,590.7003072113926
499,590.7671853612131
500,590.8772369255696
501,591.0308426414609
502,591.2257959913939
503,591.4573704352553
504,591.7185309996416
505,592.0002708665297
506,592.2920751799745
507,592.5825271284593
508,592.8600640173704
509,593.1138582019983
510,593.3347458304738
511,593.5160769270791
512,593.6543377264653
513,593.7494139312897
514,593.8044204514272
515,593.8251059212557
516,593.8189306826994
517,593.7939912653748
518,593.7579894001718
519,593.7173997788265
520,593.6769054987459
521,593.6390971493041
522,593.6043976158237
523,593.571174004976
524,593.5360181811936
525,593.4941975291547
526,593.4402678003568
527,593.3687944260915
528,593.2750818879945
529,593.1558010415979
530,593.00943500345
531,592.8365096040088
532,592.6396099313038
533,592.4232021361662
534,592.1932838845661
535,591.9568857074001
536,591.7214490233678
537,591.4941266264195
538,591.2810877705422
539,591.0869401817562
540,590.9143813225872
541,590.7641580919326
542,590.6353543354021
543,590.52594414316
544,590.4334697309399
545,590.3556696479674
546,590.29091822714
547,590.2384171872748
548,590.1981614717716
549,590.1707509838094
550,590.1571282360079
551,590.1583024951544
552,590.17509482226
553,590.207916415244
554,590.256579519219
555,590.3201436949063
556,590.3968199883047
557,590.4839726116255
558,590.5782526002935
559,590.6758706158715
560,590.772979767721
561,590.866104866989
562,590.9525301434086
563,591.0305561571967
564,591.0995708706752
565,591.159940225651
566,591.2127716645232
567,591.2596075832116
568,591.3020797973776
569,591.341546358417
570,591.3787566416898
571,591.4136198121261
572,591.4451470401642
573,591.4715950692436
574,591.4907860844406
575,591.5005423929144
576,591.4991581445677
577,591.4858267159634
578,591.4609497539724
579,591.4262770600792
580,591.3848635490253
581,591.3408648153564
582,591.2992112430555
583,591.2652042400431
584,591.2440774689558
585,591.2405603627404
586,591.2584676741229
587,591.3003311356179
588,591.3671028137669
589,591.4579817772917
590,591.5704167951471
591,591.7003066132039
592,591.8423713186015
593,591.9906284956395
594,592.1388940799767
595,592.2812413421303
596,592.4123774173452
597,592.5279168626791
598,592.6245413341779
599,592.7000475692661
600,592.7533174017011
601,592.784282847565
602,592.7939683710485
603,592.7846447438144
604,592.7600438033777
605,592.7255109809516
606,592.6879532582338
607,592.6554822798422
608,592.6367357404013
609,592.6399575819469
610,592.6720024949517
611,592.7374697790491
612,592.8381428584654
613,592.9728298160904
614,593.1376076512777
615,593.3263943164962
616,593.53171634285
617,593.7455155973663
618,593.9598540435995
619,594.1674252791141
620,594.3618516394687
621,594.5378138458829
622,594.6910984138848
623,594.8186407697244
624,594.9186018195053
625,594.990468781993
626,595.0351350693194
627,595.05489875123
628,595.0533350471094
629,595.035043445001
630,595.0053154161583
631,594.9697796353486
632,594.9340565927292
633,594.9034254939013
634,594.882500980202
635,594.8749359777102
636,594.8831922377681
637,594.908428878999
638,594.9505378314668
639,595.0083155087895
640,595.079727958586
641,595.1622126980118
642,595.2529602254202
643,595.349130258677
644,595.4479814643304
645,595.5469228341942
646,595.6435235342967
647,595.7355375295671
648,595.8209946949216
649,595.8983738354365
650,595.966819910647
651,596.0263264324174
652,596.0777966429434
653,596.1229298568162
654,596.1639408220412
655,596.2031800635269
656,596.2427478276278
657,596.2841767890598
658,596.3282268016451
659,596.3748137275411
660,596.4230769604983
661,596.4715622433475
662,596.5184703057831
663,596.5619202423633
664,596.6001957488551
665,596.6319599764016
666,596.6564300767322
667,596.6735000329334
668,596.6837951433946
669,596.6886365772899
670,596.6898986410083
671,596.6897647452334
672,596.6904243836647
673,596.6937795582618
674,596.701226961662
675,596.713553236743
676,596.7309397980566
677,596.7530415287342
678,596.7790954133279
679,596.8080281675697
680,596.8385530209417
681,596.8692663693583
682,596.8987656519876
683,596.92579783562
684,596.9494181493721
685,596.9691193778889
686,596.9848999960476
687,596.9972561798521
688,597.0070884566051
689,597.0155230213306
690,597.0236758559313
691,597.0324099710168
692,597.0421243634327
693,597.0525882314278
694,597.0628365009227
695,597.0711699721835
696,597.0753086656225
697,597.0727008352658
698,597.060918675736
699,597.0380290402603
700,597.0028427371547
701,596.955001278581
702,596.894913098202
703,596.8235753209652
704,596.7423176664577
705,596.6525046905746
706,596.5552453136814
707,596.4511761318478
708,596.3403850315384
709,596.2225099083001
710,596.096993795627
711,595.9634326139293
712,595.8219399594662
713,595.6734678903296
714,595.5200331955186
715,595.364794186188
716,595.2119303775337
717,595.0663204645716
718,594.9330719807812
719,594.8169873388626
720,594.7220454564674
721,594.6509605895342
722,594.6048705174469
723,594.5831966442992
724,594.5836884396718
725,594.6026165007528
726,594.6350451275406
727,594.6751223297508
728,594.716361976722
729,594.7519304271515
730,594.7749708459162
731,594.7789976793474
732,594.7583675853494
733,594.7087847918027
734,594.6277536653876
735,594.514883137477
736,594.3719831263221
737,594.2029453030088
738,594.0134408070661
739,593.8104870699493
740,593.601941011822
741,593.3959772036026
742,593.2006128378134
743,593.0233398712618
744,592.8709034960656
745,592.7492186811887
746,592.6633590302965
747,592.6175166417305
748,592.6148421666754
749,592.6571287697203
750,592.74437547461
751,592.8743237267997
752,593.042092972199
753,593.2400476494956
754,593.4580038248004
755,593.6838187180457
756,593.904310664481
757,594.1063691495265
758,594.2780761339234
759,594.4096821019214
760,594.4943369408802
761,594.528531635409
762,594.5122477425635
763,594.4488412919138
764,594.3447058608785
765,594.2087611987544
766,594.0518031472516
767,593.8857406573743
768,593.7227462738265
769,593.5743571991541
770,593.4505767137574
771,593.3590363823846
772,593.304295226826
773,593.2873736930393
774,593.3056255564342
775,593.3530143730612
776,593.420785389583
777,593.4984397430065
778,593.5748616088973
779,593.639442420509
780,593.6830833696276
781,593.6990076164885
782,593.6833467494441
783,593.6354743039728
784,593.5580557512195
785,593.4567880605307
786,593.3398236744417
787,593.216911537902
788,593.0983330154684
789,592.9937532483485
790,592.9111348464265
791,592.8558594168484
792,592.8301765615424
793,592.8330584426119
794,592.8604816862868
795,592.9060915643238
796,592.9621449021922
797,593.0205942849975
798,593.0741640274077
799,593.1172694438277
800,593.1466486294843
801,593.1616190620824
802,593.1639372032483
803,593.1573102164567
804,593.1466630624657
805,593.1372882029034
806,593.1339996987465
807,593.1403910101852
808,593.1582716678032
809,593.1873423151615
810,593.2251583119138
811,593.267413204384
812,593.3085331777387
813,593.342521125421
814,593.3639384449419
815,593.3688698845745
816,593.3556937382609
817,593.3254957084093
818,593.2820252347786
819,593.2311852548742
820,593.180148234578
821,593.1362750878772
822,593.106053119033
823,593.0942520277786
824,593.1034309507255
825,593.1338382920954
826,593.1836586883923
827,593.2495026195585
828,593.3270161063069
829,593.4115000283355
830,593.4984462218055
831,593.5839153068896
832,593.6647214035752
833,593.7384557303733
834,593.8034307919152
835,593.8586173997202
836,593.9035975092413
837,593.9385198571268
838,593.9640387367117
839,593.9812165045587
840,593.9913705073914
841,593.9958620442719
842,593.9958612829886
843,593.9921548937549
844,593.9850675679724
845,593.9745349489154
846,593.960306012337
847,593.942200294234
848,593.9203318697436
849,593.8952399264241
850,593.8679056600728
851,593.8396611059978
852,593.8120122127308
853,593.7864217396675
854,593.764120920068
855,593.7460181134549
856,593.7327369983097
857,593.724763716653
858,593.7226428836456
859,593.7271528382145
860,593.7393996835759
861,593.7607793587167
862,593.7927723143362
863,593.8365780068153
864,593.8926626004302
865,593.9603401585514
866,594.037499365225
867,594.1205389145582
868,594.2045256700699
869,594.2835554181408
870,594.3512644988402
871,594.401409825887
872,594.4284226438533
873,594.4278619571857
874,594.3967400789766
875,594.3337396377524
876,594.2393584997187
877,594.1159942928351
878,593.9679351733561
879,593.8011976862232
880,593.623165701636
881,593.4420230339776
882,593.2660162968302
883,593.1026275452415
884,592.9577720728395
885,592.8351485434671
886,592.7358481198056
887,592.6582868451045
888,592.598473318049
889,592.5505676423304
890,592.5076359813721
891,592.462470372191
892,592.4083396528616
893,592.3395702702918
894,592.2519104114175
895,592.1426819121943
896,592.0107589403905
897,591.8564302857823
898,591.6812036770611
899,591.4875978352766
900,591.2789468402553
901,591.0592177084092
902,590.8328226288054
903,590.6044025970857
904,590.3785745865739
905,590.1596585910543
906,589.9514151586004
907,589.7568235317382
908,589.577925179907
909,589.4157552484719
910,589.2703845040352
911,589.1410893479191
912,589.0266423278991
913,588.9256648921846
914,588.8369402623998
915,588.7595947721547
916,588.6931213905765
917,588.6372867088216
