acceleration,velocity,displacement
-0.0917295760489538,0.0,0.0
-0.08365943363868257,-8.769450484381819e-05,-4.384725242190909e-08
-0.07581698314859503,-0.000167432713237457,-1.714108614625467e-07
-0.06840491353926989,-0.00023954366158138944,-3.748990488719699e-07
-0.06158006165781574,-0.00030453614917993224,-6.469389542526307e-07
-0.05543987950878136,-0.0003630461197632308,-9.807300887242122e-07
-0.0500178566745872,-0.0004157749878549151,-1.3701406425332852e-06
-0.04528796862962128,-0.00046342790050701936,-1.8097420867142525e-06
-0.04117678467468598,-0.000506660277159173,-2.2947861755473484e-06
-0.037580604561815535,-0.0005460389717774238,-2.8211358000156466e-06
-0.034384194940309074,-0.0005820213715284861,-3.3851659716686018e-06
-0.031477768195561834,-0.0006149523530964216,-3.9836528339810556e-06
-0.028769757329654644,-0.0006450761158590298,-4.613667068458781e-06
-0.026194212662938032,-0.0006725581008553261,-5.272484176815959e-06
-0.023712864645646745,-0.0006975116395096185,-5.957519046998431e-06
-0.021312872717758273,-0.000720024508191321,-6.6662871208489005e-06
-0.019001815871900262,-0.0007401818524861503,-7.396390301187636e-06
-0.01680140741364369,-0.0007580834641289223,-8.145522959495172e-06
-0.014740866446882548,-0.0007738546010591853,-8.911491992089226e-06
-0.012850279327392643,-0.0007876501739463229,-9.69224437959198e-06
-0.011154047042993172,-0.0007996523371315158,-1.04858956351309e-05
-0.009664738711799658,-0.0008100617300089122,-1.1290752668701113e-05
-0.008378061479710744,-0.0008190831301046675,-1.2105325098757903e-05
-0.007269752470632079,-0.0008269070370798389,-1.2928320182350157e-05
-0.006294835193780094,-0.0008336893309120449,-1.3758618366346098e-05
-0.005389211764759285,-0.0008395313543913146,-1.4595228708997779e-05
-0.004473441713083443,-0.000844462681130236,-1.5437225726758555e-05
-0.0034587405477339798,-0.0008484287722606447,-1.6283671453453995e-05
-0.00225517557351754,-0.0008512857303212704,-1.7133528704744952e-05
-0.000781424289622864,-0.0008528040302528406,-1.7985573585032008e-05
0.0010253375739225795,-0.0008526820736106907,-1.8838316636963775e-05
0.0032012342595254006,-0.0008505687876939667,-1.9689942067616103e-05
0.005750774660805711,-0.0008460927832338012,-2.0538272853079986e-05
0.008646194052764395,-0.0008388942988770161,-2.1380766394135395e-05
0.011831177154576024,-0.0008286556132733459,-2.2214541350210577e-05
0.01522819263618321,-0.0008151259283779663,-2.3036432121036234e-05
0.018747954365135735,-0.0007981378548773068,-2.384306401266387e-05
0.022299216230530796,-0.0007776142695794736,-2.4630940074892262e-05
0.025797313041989716,-0.0007535660049432134,-2.5396530212153607e-05
0.029170517326823082,-0.000726082089758807,-2.6136354259504617e-05
0.032364125380211994,-0.0006953147684052895,-2.6847052688586664e-05
0.03534275606269897,-0.0006614613276838341,-2.7525440736631227e-05
0.03809129320122896,-0.00062474430305187,-2.816854355199908e-05
0.04061441795122295,-0.0005853914474756441,-2.8773611427262838e-05
0.04293438129706515,-0.0005436170478515,-2.933811567492641e-05
0.04508691384407164,-0.0004996064002809317,-2.9859727398992625e-05
0.04711564900035146,-0.0004535051188587201,-3.033628315856245e-05
0.049065648490134214,-0.00040541447011347727,-3.076574295304855e-05
0.050976564000802166,-0.0003553933638680091,-3.114614687003929e-05
0.05287603514119704,-0.0003034670642970095,-3.14755770841218e-05
0.0547742384051942,-0.0002496419275238139,-3.175213158003221e-05
0.05666069301858298,-0.00019392446181192528,-3.197391477470008e-05
0.058504092892598954,-0.00013634206885633433,-3.213904804003421e-05
0.06025519839954519,-7.696242321026226e-05,-3.2245700286067504e-05
0.061852208653043264,-1.590871968396803e-05,-3.229213585751462e-05
0.06322774160338406,4.6631255444245625e-05,-3.227677458963448e-05
0.06431631694910848,0.0001104032847204919,-3.219825731955211e-05
0.06506099368909185,0.00017509194003959206,-3.205550970717207e-05
0.06541788585490915,0.00024033137981159256,-3.184779804724648e-05
0.06535786507124533,0.0003057192552746698,-3.157477272970335e-05
0.06486566609299864,0.0003708310208567918,-3.123649759163762e-05
0.06393750190243667,0.00043523260485450944,-3.083346577878197e-05
0.06257877007556634,0.000498490740843511,-3.0366604105932962e-05
0.06080310121772488,0.0005601816764901566,-2.9837267897266127e-05
0.05863293953367096,0.0006198996968658546,-2.9247227210588122e-05
0.05610075450498954,0.0006772665438851848,-2.85986440902126e-05
0.053249536218399694,0.0007319416892468794,-2.789403997364657e-05
0.05013151119755225,0.0007836322129548553,-2.71362530225457e-05
0.04680469486077073,0.0008321003159840167,-2.6328386758076265e-05
0.043327608226883634,0.0008771664675278439,-2.5473753366320335e-05
0.03975301473283,0.0009187067790077007,-2.457581674305256e-05
0.03612186238672354,0.0009566442175674775,-2.363814124476497e-05
0.03245885141823265,0.0009909345744699555,-2.2664351848746256e-05
0.028771120976294463,0.001021549560667219,-2.165810978117767e-05
0.02505112461728181,0.0010484606834640072,-2.0623104659112057e-05
0.02128366383746757,0.0010716280776913818,-1.9563060278534363e-05
0.01745564519155199,0.0010909977322058916,-1.8481747373585726e-05
0.013566125312440723,0.001106508617457888,-1.7382994198753838e-05
0.009634107396445848,0.0011181087338123312,-1.6270685523118728e-05
0.00570232235942999,0.0011257769486902691,-1.5148742681867427e-05
0.0018363692833091648,0.0011295462945116388,-1.4021081060266474e-05
-0.0018804642817349582,0.001129524247012426,-1.2891545789504441e-05
-0.005355835044568358,0.0011259060973492743,-1.1763830617323591e-05
-0.00849922644201786,0.0011189785666059812,-1.0641388285345964e-05
-0.01123350017267858,0.001109112203298633,-9.527342900393657e-06
-0.013505141350714806,0.0010967428825369363,-8.424415357475872e-06
-0.015291180297626827,0.0010823447217127653,-7.334871555351022e-06
-0.016601398103571644,0.0010663984325121661,-6.260499978238556e-06
-0.017475489801999207,0.0010493599885593808,-5.202620767702782e-06
-0.01797584687022985,0.0010316343202232663,-4.162123613311459e-06
-0.018177311996264333,0.0010135577407900192,-3.1395275828048156e-06
-0.0181557301146167,0.0009953912197345786,-2.1350531025425166e-06
-0.01797735943326634,0.0009773246749606372,-1.1486951551949086e-06
-0.017691075541751707,0.0009594904574731282,-1.8028758897802582e-07
-0.017324685561696685,0.0009419825769214039,7.704489282192403e-07
-0.016885628555094918,0.0009248774198630081,1.7038789266114463e-06
-0.01636527128366537,0.000908251969943628,2.6204436215147645e-06
-0.015745407873482383,0.0008921966303650541,3.5206679216691056e-06
-0.015005497762122724,0.0008768211775472516,4.405176825625258e-06
-0.014129297612070671,0.0008622537798601549,5.274714304328962e-06
-0.013109700870667072,0.000848634280618786,6.130158334568433e-06
-0.011950985574856788,0.0008361039373960241,6.972527443575838e-06
-0.010668417266711918,0.0008247942359752398,7.80297653026147e-06
-0.009285941130154464,0.0008148170567768066,8.622782176637493e-06
-0.007832980923986762,0.000806257595749736,9.433319502900764e-06
-0.00634105073790853,0.0007991705799187883,1.0236033590735026e-05
-0.004840496579323461,0.0007935798062601723,1.1032408783824508e-05
-0.0033576101544412077,0.00078948075289329,1.1823939063401238e-05
-0.0019124047912672613,0.0007868457454204358,1.2612102312558101e-05
-0.000517222906270962,0.0007856309315716666,1.3398340651054153e-05
0.0008238999555116556,0.000785784270096287,1.418404825188813e-05
0.002115371762211894,0.0007872539059551488,1.4970567339913847e-05
0.0033699284683750504,0.0007899965560704422,1.5759192570926642e-05
0.004608244855948736,0.0007939856427326041,1.6551183670328165e-05
0.005857869815280636,0.0007992187000682188,1.7347785841728575e-05
0.007150989644389919,0.0008057231297980541,1.8150256756661712e-05
0.008520938008390797,0.0008135590936244444,1.8959897868372963e-05
0.009997980497388656,0.0008228185528773341,1.9778086691623853e-05
0.011605190329015656,0.0008336201382905362,2.060630603720779e-05
0.013355082784684297,0.0008461002748473862,2.1446166243776748e-05
0.015247396800902886,0.0008604015146401798,2.229941713852053e-05
0.01726826992512691,0.0008766593480031946,2.316794756984222e-05
0.019390980731737933,0.0008949889733316271,2.405377173050963e-05
0.021578221135782404,0.0009154735742653873,2.495900300430814e-05
0.02378554365549605,0.0009381554566610265,2.5885817519771345e-05
0.025965465819771143,0.00096303096139866,2.683641072880119e-05
0.02807175733242349,0.0009900495729747573,2.78129509959879e-05
0.030063445778353237,0.0010191171745301457,2.881753436974035e-05
0.03190798492545439,0.0010501028898820496,2.9852144401946446e-05
0.03358311979213135,0.0010828484422408424,3.091862006800789e-05
0.035077444416016075,0.0011171787243449162,3.2018633651300766e-05
0.03639022165805233,0.0011529125573819504,3.31536792921642e-05
0.03753126414126634,0.0011898733002816096,3.4325072220995976e-05
0.03852137930486114,0.0012278996220046734,3.553395868213912e-05
0.039393276934014974,0.0012668569501241116,3.6781336968203516e-05
0.04019229706291142,0.0013066497371225748,3.806809031182686e-05
0.04097609759836031,0.0013472339344532108,3.9395032147614755e-05
0.04181261917354907,0.0013886282928391655,4.0762963261260944e-05
0.04277611637444399,0.001430922660613162,4.2172738737987106e-05
0.04394153442687399,0.001474281486013821,4.36253408113006e-05
0.04537775887802049,0.0015189411326662682,4.512195212064064e-05
0.04714028328164334,0.0015652001537461002,4.666402276384682e-05
0.04926387648747817,0.001613402233630661,4.82533239575352e-05
0.05175608203690551,0.0016639122128928527,4.989198118079696e-05
0.05459273317590676,0.0017170866204992588,5.158248059749301e-05
0.057716711362901095,0.0017732413427686627,5.332764457912697e-05
0.061040602316804755,0.0018326199996085157,5.513057525031556e-05
0.06445294011561876,0.0018953667708247275,5.699456863553218e-05
0.06782700438719654,0.0019615067430761354,5.892300539248261e-05
0.07103100787651055,0.002030935749207989,6.091922663862467e-05
0.0739387652796856,0.002103420635786087,6.29864048311217e-05
0.07644014224221055,0.002178610089547035,6.512742019378827e-05
0.07845052458974053,0.0022560554229630104,6.73447529500433e-05
0.07991827915202969,0.0023352398248338954,6.964040057394175e-05
0.08082896877292348,0.002415613448796372,7.201582721075688e-05
0.08120529459471701,0.0024966305804801922,7.447194922539516e-05
0.08110250006376488,0.002577784477809433,7.700915675453997e-05
0.08059994310333574,0.0026586356993929835,7.962736684314118e-05
0.07979019722983438,0.0027388307695595687,8.232610007761746e-05
0.07876723077132575,0.0028181094835601486,8.510457020417731e-05
0.07761522078105472,0.002896300709336339,8.796177530062555e-05
0.07639953623516545,0.0029733080878444488,9.089657969921594e-05
0.07516113144200827,0.0030490884216830354,9.390777795397967e-05
0.07391487853829684,0.003123626426673188,9.699413537815778e-05
0.07265155251394582,0.0031969096421993093,0.00010015440341259402
0.07134267530888498,0.0032689067561107246,0.00010338731161174904
0.06994729043468392,0.003339551738982509,0.00010669154085929565
0.06841977143262619,0.003408735269916164,0.00011006568436374499
0.06671782187091152,0.003476304066567933,0.00011350820403198704
0.06480992257224416,0.003542067938789511,0.00011701739003466576
0.06268164233979738,0.0036058137212455314,0.00012059133086468328
0.0603403403196371,0.003667324712575249,0.00012422790008159368
0.05781773919422223,0.0037264037523321784,0.0001279247643140474
0.055169752636424554,0.0037828974982475018,0.00013167941493933723
0.052473149546188064,0.003836718949338808,0.0001354892231631304
0.049819332653680944,0.0038878651904387424,0.00013935151523301916
0.047306358542849314,0.003936428036037007,0.00014326366184625703
0.04503066823519367,0.003982596549426029,0.00014722317413898853
0.04307963993096356,0.004026651703509107,0.0001512277982654561
0.04152553492697017,0.004068954290938074,0.0001552756012626797
0.04042112797669986,0.004109927622389909,0.00015936504221934368
0.03979711550882964,0.004150036744132674,0.00016349502440260498
0.039661035807102056,0.00418976581979064,0.00016766492568456664
0.039997174481198716,0.00422959492493479,0.00017187460605692936
0.040767127970808476,0.004269977076160793,0.00017612439205747716
0.041911216337662406,0.004311316248315029,0.00018041503871971508
0.04335124886003709,0.0043539474809138785,0.00018474767058432955
0.044994938890106494,0.00439812057478895,0.00018912370461218096
0.04674175565976144,0.004443988922063884,0.00019354475936060738
0.04848965679858561,0.004491604628293057,0.00019801255613578585
0.0501421511327726,0.004540920532258737,0.00020252881871606174
0.05161524352875983,0.0045917992295895025,0.00020709517859698586
0.052843741754838545,0.004644028722231301,0.00021171309257289625
0.05378626896035374,0.004697343727588898,0.00021638377879780633
0.05442836488987256,0.004751451044514011,0.00022110817618385778
0.054783243268604336,0.004806056848593249,0.00022588693013041142
0.054889982921468024,0.0048608934616882855,0.0002307204052855522
0.05480924664891127,0.004915743076473475,0.0002356087235546331
0.0546170827399801,0.004970456241167921,0.0002405518232134538
0.054397756415944,0.005024963660745884,0.0002455495331644107
0.0542366747986508,0.005079280876353181,0.0002506016554329602
0.054214259388842896,0.005133506343446928,0.00025570804904286027
0.05440110901248308,0.0051878140276475915,0.00026086870922840754
0.05485419282620079,0.005242441678566933,0.0002660838370815148
0.05561355100049147,0.005297675550480279,0.0002713538956960384
0.056699308384817716,0.005353831980172934,0.000276679649461365
0.05810942835675169,0.005411236348543719,0.0002820621836257233
0.05981898882705344,0.005470200557135621,0.00028750290207856297
0.061781620487288864,0.005531000861792792,0.00029300350278802715
0.06393333722612578,0.005593858340649499,0.0002985659323892483
0.06619855605817217,0.005658924287291648,0.0003041923237032189
0.0684976571549438,0.005726272393898206,0.0003098849220438138
0.07075499941942597,0.00579589872218539,0.0003156460076018556
0.07290609495329911,0.005867729269371753,0.0003214778215976342
0.07490280985409123,0.0059416337217754476,0.0003273825030932078
0.07671592793906669,0.006017443090672026,0.0003333620414994315
0.0783350552499203,0.00609496858226652,0.0003394182473359008
0.07976651022793929,0.00617401936500545,0.0003455527413095368
0.081030206688216,0.006254417723463527,0.00035176695985377133
0.08215626535192362,0.006336010959483596,0.0003580621741952449
0.08318138769732017,0.006418679786008219,0.00036443951956799083
0.08414458119909522,0.0065023427704564265,0.00037090003084622316
0.08508205162876237,0.006586956086870355,0.00037744468027488655
0.08602171543241086,0.006672507970400942,0.0003840744123035222
0.08697829659182614,0.006759007976413061,0.0003907901702769292
0.08795004579343096,0.006846472147605689,0.00039759291033893856
0.08891777980325584,0.006934906060404033,0.00040448359944294344
0.08984639584882821,0.007024288148230075,0.0004114631965472605
0.0906884818532486,0.007114555587081114,0.0004185326184149161
0.09138924639051794,0.007205594451202997,0.0004256926934340582
0.0918917912876415,0.007297234970042077,0.00043294410814468076
0.0921417847461218,0.007389251758058958,0.0004402873515087313
0.09209088778165148,0.007481368094322844,0.0004477226614349222
0.09169876280832247,0.007573262919617831,0.00045524997694189253
0.09093392170174286,0.007664579261872864,0.00046286889803263785
0.08977386187552558,0.007754933153661498,0.00047057865424040505
0.08820496127471696,0.00784392256523662,0.0004783780820998541
0.08622261127341717,0.007931136351510687,0.00048626561155822777
0.08383199397362334,0.008016163654134207,0.0004942392615610502
0.08104960819143094,0.008098604455216733,0.0005022966456157257
0.07790517933407755,0.008178081848979488,0.0005104349887678237
0.07444314028696321,0.008254256008790008,0.0005186511576967085
0.07072259309562785,0.008326838875481303,0.0005269417051388442
0.0668147634397339,0.008395607553748984,0.0005353029283534593
0.06279767903165777,0.008460413774984679,0.0005437309390178261
0.058749024141323276,0.00852118712657117,0.0005522217394686041
0.054739177012723655,0.008577931227148193,0.0005607712986454638
0.050826567571621184,0.008630714099440365,0.000569375621308758
0.04705656430848812,0.00867965566538042,0.0005780308061911684
0.04346369239838676,0.008724915793733858,0.0005867330919207256
0.04007584394741737,0.00876668556190676,0.0005954788925985458
0.036918706695781414,0.00880518283722836,0.0006042648267981133
0.03401893937744331,0.008840651660264973,0.00061308774404686
0.03140535418784038,0.008873363807047615,0.0006219447517805163
0.029108124454038424,0.008903620546368554,0.0006308332439572245
0.02715656909215956,0.008931752893141652,0.0006397509306769795
0.02557630748796057,0.008958119331431712,0.0006486958667892661
0.02438653436910765,0.008983100752360246,0.0006576664768311621
0.02359787634358983,0.009007092957716595,0.0006666615736862006
0.023210870035028315,0.009030497330905904,0.0006756803688305118
0.02321473475244965,0.009053710133299642,0.0006847224725626146
0.023586020275626132,0.009077110510813679,0.0006937878828846713
0.024286985465302342,0.009101047013684143,0.0007028769616469201
0.0252639989901153,0.009125822505911853,0.0007119903964067181
0.026446488046642486,0.009151677749430232,0.0007211291465343892
0.02774691354005007,0.009178774450223578,0.0007302943726342161
0.02906219744616034,0.009207179005716683,0.0007394873493621861
0.030277136648938628,0.009236848672764232,0.0007487093632014266
0.031270387898255134,0.009267622435037828,0.0007579615987553276
0.03192324720224456,0.009299219252588078,0.0007672450195991405
0.032130546476903464,0.009331246149427652,0.0007765602523001484
0.03181191638536637,0.009363217380858787,0.0007859074840652916
0.030921172501701507,0.00939458392530232,0.0007952863847183722
0.029452050809086347,0.009424770536957715,0.0008046960619495022
0.027439464850295463,0.009453216294787407,0.0008141350553653747
0.024956225681193232,0.009479414140053152,0.000823601370582795
0.022105707946015928,0.009502945106866756,0.0008330925502062549
0.01901151513049022,0.009523503718405008,0.0008426057746188908
0.0158057277137084,0.009540912339827108,0.0008521379826480069
0.012617490621159968,0.009555123948994541,0.0008616860007924177
0.009563368117148589,0.009566214378363696,0.0008712466699560969
0.006740236945625765,0.009574366180895083,0.0008808169602357263
0.004220869220386911,0.00957984673397809,0.0008903940666931629
0.0020520929432903717,0.009582983215059928,0.0008999754816676819
0.00025542412551420127,0.00958413697359433,0.000909559041762009
-0.001170110634810385,0.009583679630339683,0.000919142950063976
-0.0022437393343659657,0.009581972705355095,0.0009287257762318234
-0.0029984208405368995,0.009579351625267643,0.0009383064383971348
-0.0034769214889258707,0.009576113954102912,0.00094788417118682
-0.003728721223593509,0.009572511132746653,0.0009574584837302448
-0.0038073424365785194,0.009568743100916566,0.0009670291108470764
-0.0037674578373862538,0.009564955700779584,0.0009765959602479246
-0.0036614622327469284,0.009561241240744518,0.0009861590587186867
-0.003535881262644059,0.009557642568996822,0.0009957185006235574
-0.003428555706415618,0.009554160350512292,0.001005274402083312
-0.0033676648512102328,0.00955076224023348,0.0010148268633786849
-0.0033733492210754074,0.009547391733197337,0.0010243759403654002
-0.003462034207987021,0.009543974041482805,0.0010339216232527404
-0.0036525464948420367,0.009540416751131391,0.0010434638186490475
-0.003971988596308142,0.009536604483585816,0.0010530023292664062
-0.004458759370514598,0.009532389109602404,0.0010625368260630003
-0.005160740951581699,0.009527579359441356,0.0010720668102975222
-0.006128444809888472,0.009521934766560622,0.0010815915673605232
-0.007404900697783162,0.009515168093806786,0.0010911101187907068
-0.009015221294676946,0.009506958032810556,0.0011006211818540155
-0.010958645246927523,0.009496971099539753,0.0011101231464201906
-0.013204783792228253,0.009484889385020175,0.0011196140766624705
