frame_number,force
0,687.540410000042
1,687.6433301816403
2,687.7459038183525
3,687.8477134142099
4,687.9482212957305
5,688.0467548472697
6,688.1425191405046
7,688.2346091851698
8,688.3219935887221
9,688.4034674479533
10,688.4776027801239
11,688.5427358217452
12,688.5970203313265
13,688.6385536897649
14,688.6655550962734
15,688.6765553175733
16,688.6705617746069
17,688.6471894947572
18,688.6067721152723
19,688.5504650077868
20,688.4803293504028
21,688.3993643881871
22,688.3114499819432
23,688.221171970748
24,688.1335235968271
25,688.0535032746909
26,687.9856559199903
27,687.933624393594
28,687.8997847656432
29,687.8850292580867
30,687.888729894733
31,687.9088722015267
32,687.9423123520146
33,687.9850984485537
34,688.0328051045772
35,688.0808458456928
36,688.1247381683944
37,688.1603022310203
38,688.18378564761
39,688.1919283285629
40,688.1820045643329
41,688.1518878401663
42,688.1001640821685
43,688.0262748384163
44,687.9306294716087
45,687.8146203684283
46,687.6805209661325
47,687.5313149782794
48,687.370547683194
49,687.2022765681558
50,687.031135354245
51,686.8624454292898
52,686.7022533128494
53,686.557172715691
54,686.4339698936692
55,686.3389271684134
56,686.2771092396475
57,686.2516988239748
58,686.2635445161734
59,686.3109948074851
60,686.3900215865776
61,686.4945922910383
62,686.6172279994703
63,686.7496736367372
64,686.883605018945
65,687.0113037724211
66,687.126238952055
67,687.2235023606219
68,687.3000558054283
69,687.3547639445742
70,687.3882078712023
71,687.40230467766
72,687.3997936463104
73,687.3836782515431
74,687.3567203912139
75,687.3210649394914
76,687.2780383235518
77,687.2281269618613
78,687.171107927502
79,687.106280780821
80,687.0327401766527
81,686.9496333565999
82,686.8563635150006
83,686.7527295633384
84,686.6390266473709
85,686.5161457521809
86,686.3856901424263
87,686.2500891054837
88,686.1126608988594
89,685.9775625607062
90,685.8495651139891
91,685.7336188620956
92,685.6342315180784
93,685.5547607918868
94,685.4967911251131
95,685.4597793476602
96,685.4410922378923
97,685.43644181878
98,685.4406066507057
99,685.448253988879
100,685.4546636499871
101,685.4562013930865
102,685.4504868273272
103,685.4363089051192
104,685.4134079321528
105,685.3822434637291
106,685.3438219533116
107,685.2995990488909
108,685.2514224034927
109,685.2014605482588
110,685.1520827103047
111,685.105699592439
112,685.0646092558404
113,685.0308855932631
114,685.0063080000855
115,684.9923020923388
116,684.9898723589718
117,684.9995408106781
118,685.0213201809618
119,685.0547297558326
120,685.0988262204569
121,685.1522026131556
122,685.2129256819767
123,685.2784341151822
124,685.3454801892373
125,685.4102234503756
126,685.4685501710625
127,685.5166064212361
128,685.5514348063529
129,685.5715410958837
130,685.5772200849019
131,685.57054208214
132,685.5550066922533
133,685.5349604260875
134,685.514923118458
135,685.4989751658121
136,685.4903285914954
137,685.4911462928535
138,685.5026018874614
139,685.5251078345875
140,685.5585958361283
141,685.6027237352855
142,685.6569211347681
143,685.7202653257058
144,685.7912602821413
145,685.8676309777161
146,685.9462334684928
147,686.0231385316229
148,686.0938947652843
149,686.1539281479083
150,686.1989998309787
151,686.2256345595235
152,686.2314542653421
153,686.2153945752109
154,686.1778215505514
155,686.1205807232401
156,686.0469986984822
157,685.9618326587173
158,685.8711380800646
159,685.7820092193602
160,685.7021506213405
161,685.6392657010633
162,685.6002938504764
163,685.5905820096316
164,685.6131300604372
165,685.6680749138369
166,685.75254442361
167,685.8609238633942
168,685.9854813344333
169,686.1172385753754
170,686.2469548092448
171,686.3660894048933
172,686.4676127792204
173,686.5465617124872
174,686.6002987679066
175,686.6285129572921
176,686.6330479232274
177,686.6176407357262
178,686.5876084664236
179,686.5494685302186
180,686.5104633882202
181,686.4779883001336
182,686.4589614190609
183,686.4591966563875
184,686.4828372164603
185,686.5318972686125
186,686.6059560391626
187,686.7020531933965
188,686.8148326765538
189,686.9369619786427
190,687.0598165588079
191,687.1743729787758
192,687.2722082002508
193,687.3464715396975
194,687.3926940528722
195,687.40932376439
196,687.3979085877503
197,687.3628877979032
198,687.3110030683943
199,687.2503980623536
200,687.1895293437941
201,687.1360491419338
202,687.0958317428758
203,687.0722949040116
204,687.066119627959
205,687.0754045794797
206,687.0962179403281
207,687.123445918561
208,687.1517928812934
209,687.1767601655524
210,687.1954206866382
211,687.206833178804
212,687.2120152615934
213,687.2134974283996
214,687.2145722628137
215,687.2184104840212
216,687.2272314887156
217,687.241692191009
218,687.260600736878
219,687.2809858021491
220,687.2984815543214
221,687.3079429830988
222,687.3041824647796
223,687.2826996439355
224,687.2402670289288
225,687.1752571979837
226,687.0876642792492
227,686.9788616755898
228,686.8512131426186
229,686.7076846626109
230,686.5515776465102
231,686.3864300894392
232,686.2160450726733
233,686.0445489971758
234,685.8763790775575
235,685.7161397161003
236,685.5683219096114
237,685.4369277436763
238,685.325074642886
239,685.2346677442378
240,685.1662184437982
241,685.1188487892213
242,685.0904665384572
243,685.0780541296061
244,685.0780057465043
245,685.0864584178024
246,685.0995771924839
247,685.1137716566366
248,685.1258464710911
249,685.1331098842502
250,685.1334614711724
251,685.1254518496377
252,685.1082770510269
253,685.0816690686951
254,685.0456805432331
255,685.0004128697365
256,684.9457671960351
257,684.8812898419857
258,684.8061522706258
259,684.7192726059
260,684.6195552683347
261,684.5061950466766
262,684.3789715135247
263,684.2384649478338
264,684.0861551128953
265,683.9243973902966
266,683.7562908369183
267,683.5854678945672
268,683.4158523575462
269,683.251433948486
270,683.0960839541499
271,682.9534091104957
272,682.8266353794322
273,682.7185244574266
274,682.6313330969407
275,682.5668173412453
276,682.5262637640992
277,682.5105124677954
278,682.5199375050285
279,682.554370215929
280,682.6129780405391
281,682.6941375603602
282,682.7953601649194
283,682.9133268552698
284,683.0440518061533
285,683.1831368355373
286,683.3260412835906
287,683.4683025680547
288,683.6056903434385
289,683.7343233937737
290,683.8507917912275
291,683.9523032337288
292,684.0368332869684
293,684.1032343411784
294,684.1512636140242
295,684.1815198607122
296,684.1953094706381
297,684.1944741877204
298,684.181202871255
299,684.157837717695
300,684.1266899513398
301,684.0898982273684
302,684.0493734517307
303,684.0068588968877
304,683.9640962417119
305,683.9230436154423
306,683.8860605538885
307,683.8559695379456
308,683.8359276494874
309,683.8290909115584
310,683.8381157394562
311,683.8645963525217
312,683.9085663362752
313,683.9681873891227
314,684.0397039584528
315,684.1176689922867
316,684.1953776514032
317,684.2654153311679
318,684.3202345358362
319,684.352702029853
320,684.3565896457799
321,684.3270124065691
322,684.2608327884565
323,684.1570348742201
324,684.017029507925
325,683.8448078803073
326,683.6468509761852
327,683.4317436263774
328,683.2095167215787
329,682.9908066474142
330,682.7859460443964
331,682.6040883848387
332,682.4524460883655
333,682.3357069454429
334,682.2556859429417
335,682.2112576922876
336,682.1985895120083
337,682.2116550926044
338,682.2429620315085
339,682.2843926051899
340,682.3280497670387
341,682.3670111637919
342,682.3959075572985
343,682.4112610742354
344,682.4115538892793
345,682.397042905174
346,682.3693739855277
347,682.3310746703202
348,682.2850174842955
349,682.2339388414014
350,682.1800650486348
351,682.1248519941627
352,682.0688180010311
353,682.0114573337227
354,681.9512545160137
355,681.885844558063
356,681.8123515518688
357,681.727888535876
358,681.6301441317754
359,681.5179415771852
360,681.3916437775862
361,681.2533053547214
362,681.1065418283753
363,680.956165450683
364,680.8076845663523
365,680.6667681778129
366,680.5387534514192
367,680.4282340616439
368,680.3387289338244
369,680.2724156773606
370,680.2299220330489
371,680.2101820851766
372,680.2103690796914
373,680.2259197451702
374,680.2506756030152
375,680.2771786681793
376,680.2971517208331
377,680.3021576951478
378,680.284385814563
379,680.237476607439
380,680.1572794720036
381,680.0424330534843
382,679.8946743472438
383,679.7188172775882
384,679.5223845082455
385,679.314919202176
386,679.1070496480413
387,678.9094288634625
388,678.7317034537868
389,678.581653733128
390,678.4645896091405
391,678.3830209123838
392,678.3365868427071
393,678.3222307082831
394,678.3346126671815
395,678.3667354029988
396,678.4107164088673
397,678.4586054148032
398,678.5031461342139
399,678.5384176516188
400,678.5603302982063
401,678.5669614891777
402,678.5586998560642
403,678.5381520183709
404,678.5097828110808
405,678.4793089658583
406,678.4529285573411
407,678.4365127311636
408,678.4348844932573
409,678.4512623465754
410,678.4868916294965
411,678.5408627487061
412,678.6101237443702
413,678.689705601972
414,678.7731711900431
415,678.8532696044508
416,678.922733036953
417,678.9751105571022
418,679.0055154817863
419,679.0111770423806
420,678.9917195552334
421,678.9491282254722
422,678.8873981938851
423,678.8119116081086
424,678.728645324773
425,678.6433539213182
426,678.5608717221176
427,678.4846358381267
428,678.4164769190496
429,678.3566760903518
430,678.3042459645673
431,678.2573607772913
432,678.213848327334
433,678.1716659173223
434,678.1292935111416
435,678.0859835417446
436,678.0418288323256
437,677.9976568489735
438,677.9548095744246
439,677.9148974182076
440,677.8796080374154
441,677.8506076946679
442,677.8295128590806
443,677.8178641603969
444,677.8170323161471
445,677.8280324968397
446,677.8512894820772
447,677.8864359636519
448,677.9322228499342
449,677.986589107512
450,678.0468987966117
451,678.1103126187222
452,678.1742270463961
453,678.236695810241
454,678.2967534590646
455,678.3545869108802
456,678.411535589862
457,678.4699306612174
458,678.532804732073
459,678.6035133105082
460,678.6853078389515
461,678.7808979391326
462,678.8920496199073
463,679.0192784625734
464,679.1616885777352
465,679.316969642658
466,679.4815183408087
467,679.6506336176998
468,679.8187587277775
469,679.9797825953352
470,680.1274342158525
471,680.2557893099673
472,680.359868004286
473,680.4362634394718
474,680.4837213148388
475,680.5035834822871
476,680.5000056041675
477,680.4798667151987
478,680.4523229967742
479,680.428022778612
480,680.418074946326
481,680.4329151905656
482,680.4812214493625
483,680.5689982599863
484,680.6989093225803
485,680.8699128955643
486,681.0772446946265
487,681.3127793134512
488,681.5657671420532
489,681.8238864716681
490,682.0744861410893
491,682.3058512145914
492,682.5083206046838
493,682.6751136266172
494,682.8027679403237
495,682.8911561996044
496,682.9431340363673
497,682.9639485465651
498,682.9605611185873
499,682.941000605964
500,682.9137966561985
501,682.8874921082376
502,682.8702144085764
503,682.869288033628
504,682.8908768124996
505,682.9396494376331
506,683.0184647716388
507,683.1280845922522
508,683.2669511071855
509,683.4311104492886
510,683.6143890114124
511,683.8088988776318
512,684.00585966609
513,684.1966183989808
514,684.3736785615017
515,684.5315438447981
516,684.667236401619
517,684.780433739568
518,684.8732513373685
519,684.9497595171728
520,685.0153489175558
521,685.076046812722
522,685.1378534749596
523,685.2061316804796
524,685.285050766074
525,685.3770747038402
526,685.4825119041302
527,685.5992026374197
528,685.7224631609658
529,685.8453938083026
530,685.9595835918266
531,686.0561298392661
532,686.1267859128028
533,686.1650058597703
534,686.1666919061581
535,686.1305404531688
536,686.0579804908076
537,685.9527800522458
538,685.8204480695296
539,685.6675683156651
540,685.5011758038942
541,685.3282502898876
542,685.1553694476497
543,684.9885295749838
544,684.8331052114714
545,684.6938933558741
546,684.575181089299
547,684.480788416726
548,684.4140660158465
549,684.3778545710695
550,684.3744215090686
551,684.4053805882893
552,684.4715838307541
553,684.5729723297745
554,684.7083925467848
555,684.875417444642
556,685.0702347430462
557,685.2876666775246
558,685.52137088033
559,685.7642440523025
560,686.0090079448235
561,686.2489033056848
562,686.4783657783046
563,686.6935344151476
564,686.8924703322187
565,687.0750355543822
566,687.2424719028292
567,687.3967957814148
568,687.54016389732
569,687.6743559659903
570,687.8004711324843
571,687.9188676091153
572,688.0293096111508
573,688.131234357775
574,688.2240258800931
575,688.307190930887
576,688.3803774243929
577,688.4432458302902
578,688.495269685737
579,688.5355692164359
580,688.5628580514295
581,688.5755260495639
582,688.571829267459
583,688.5501345584162
584,688.5091645236611
585,688.4481937374181
586,688.3671607085552
587,688.2666918197895
588,688.1480755132685
589,688.0132447623791
590,687.8647986066903
591,687.7060371826774
592,687.540945103686
593,687.374060738963
594,687.2102028807647
595,687.0540710672195
596,686.9097805944624
597,686.780426176882
598,686.6677733882441
599,686.5721518705211
600,686.4925826492014
601,686.4271268184888
602,686.3734002255726
603,686.3291632325238
604,686.2928712188669
605,686.264067144488
606,686.2435224980585
607,686.2330903025106
608,686.2353071195835
609,686.2528408672395
610,686.2879052143234
611,686.341748615762
612,686.4142956749203
613,686.5039884586931
614,686.6078460684604
615,686.7217248343874
616,686.8407216671487
617,686.9596316728915
618,687.0733615695995
619,687.1772240875963
620,687.2670945828386
621,687.3394734010354
622,687.391526738785
623,687.4211597832673
624,687.4271365644693
625,687.4092391724589
626,687.3684564587339
627,687.3071805323385
628,687.2293582880167
629,687.1405195241592
630,687.0476078246367
631,686.958574541635
632,686.8817448371041
633,686.8250148528945
634,686.7949820745735
635,686.7961403892099
636,686.8302800354392
637,686.8962128061494
638,686.9898928828906
639,687.1049300158468
640,687.2334061734322
641,687.3668322241764
642,687.4970512792858
643,687.6169300877231
644,687.7207646192616
645,687.8044208296319
646,687.8652963830358
647,687.9022005773132
648,687.9152122117302
649,687.905519434726
650,687.8752075651973
651,687.826959610314
652,687.7636675629188
653,687.6880025088085
654,687.6020351304502
655,687.5070175145511
656,687.4034172256264
657,687.2912256205552
658,687.1704624765947
659,687.0417194576047
660,686.9065702682166
661,686.7677270439647
662,686.6289107277922
663,686.4944942215783
664,686.3690403638884
665,686.2568673911867
666,686.1617310548552
667,686.0866456093343
668,686.0338148027282
669,686.0046286828525
670,685.9996956985362
671,686.0188953957278
672,686.0614337098324
673,686.1258748465661
674,686.2101401988037
675,686.3114972543142
676,686.4265720524743
677,686.5513986535154
678,686.6814993068326
679,686.8119942014198
680,686.9377606080375
681,687.0536710868085
682,687.1549222395547
683,687.2374261548949
684,687.2982034753657
685,687.3357162733447
686,687.3501086174634
687,687.3433480882944
688,687.3192497627861
689,687.2833252791237
690,687.242384145533
691,687.2038626069667
692,687.1749482257412
693,687.1616449878461
694,687.1679458005589
695,687.1952544684059
696,687.2421499926587
697,687.3045286227111
698,687.376106939873
699,687.449226990672
700,687.515863254323
701,687.5686861503623
702,687.602003971572
703,687.6124127282062
704,687.5990445050976
705,687.5633990147104
706,687.5088297616858
707,687.4398108934332
708,687.3611352802651
709,687.2771943692001
710,687.1914632535454
711,687.106261382708
712,687.0227917955574
713,686.9413965200123
714,686.8619212951035
715,686.7840730856238
716,686.707682435771
717,686.6328382668717
718,686.5599155697402
719,686.4895347034407
720,686.422472577663
721,686.3595177537313
722,686.3012475825573
723,686.2477177388082
724,686.198098568318
725,686.1503528540927
726,686.1010834659535
727,686.0456555556939
728,685.9786298456451
729,685.89447087359
730,685.7884413190095
731,685.6575559385827
732,685.5014364974154
733,685.322896284612
734,685.1281157326785
735,684.9263484431401
736,684.7291839309531
737,684.5494604973644
738,684.3999733306488
739,684.2921662111004
740,684.2350062127455
741,684.2341956213926
742,684.2917942097557
743,684.4062498067591
744,684.5727797009101
745,684.7840014556508
746,685.0306849045033
747,685.3025051170478
748,685.5887204794609
749,685.8787627724619
750,686.1627819524512
751,686.4322079968924
752,686.6803566689493
753,686.9030320085348
754,687.0990150459075
755,687.2703181704754
756,687.4221283831612
757,687.562424936404
758,687.7013029864746
759,687.8500568259954
760,688.0200895086326
761,688.2217393111839
762,688.4631470751159
763,688.7493087990741
764,689.081446966386
765,689.4567980322022
766,689.8688634019437
767,690.3081080327374
768,690.7630188143947
769,691.2213694685983
770,691.6714957696837
771,692.1033776246203
772,692.5093638504823
773,692.8844578400377
774,693.2261804053536
775,693.5341023251336
776,693.8091715108908
777,694.0529537672512
778,694.2668845928571
779,694.4516152586399
780,694.606539274729
781,694.7295930189172
782,694.8174074876245
783,694.8658261979818
784,694.8707120715023
785,694.8288899239891
786,694.739049149078
787,694.602460734246
788,694.4234113026997
789,694.209296468469
790,693.970341656312
791,693.7189416569029
792,693.4686418231262
793,693.2328300378294
794,693.0232716353622
795,692.8486904514335
796,692.7136449641209
797,692.6179233583066
798,692.5565725857782
799,692.5205292522147
800,692.4977014493861
801,692.4742980981777
802,692.4362106557874
803,692.3702922706275
804,692.2654251607589
805,692.1133079831934
806,691.9089346465423
807,691.6507778842154
808,691.3407251061403
809,690.9838236380878
810,690.5878762839826
811,690.1629040833157
812,689.7204780738684
813,689.2729237840632
814,688.8324253982006
815,688.4100956233686
816,688.0151102517697
817,687.654010674963
818,687.3302540665634
819,687.0440631164869
820,686.7926106338159
821,686.5705533198304
822,686.370878418701
823,686.1859530055226
824,686.0086050716534
825,685.833049971232
826,685.6555125348997
827,685.4744687503058
828,685.2905131377021
829,685.1059273818778
830,684.924073028537
831,684.7487461130344
832,684.5836095023102
833,684.4317728296936
834,684.2955403707579
835,684.17630771226
836,684.0745673107641
837,683.9899816711675
838,683.921492182337
839,683.8674455707671
840,683.8257370645479
841,683.7939818015286
842,683.7697217776833
843,683.7506518401156
844,683.7348182380032
845,683.7207340458114
846,683.7073848409369
847,683.6941444103654
848,683.680643375499
849,683.6666281865656
850,683.6518462042275
851,683.6360059297772
852,683.6188601225499
853,683.6004197817655
854,683.5812447215307
855,683.5627069053554
856,683.5471108242482
857,683.5375888764139
858,683.5377565295777
859,683.5511783957586
860,683.5807322771201
861,683.6279663427005
862,683.6925459992601
863,683.771885576621
864,683.8610434445942
865,683.9529280018214
866,684.0388277069331
867,684.1092355372923
868,684.1548711555556
869,684.1677286805176
870,684.1419440464848
871,684.0743155814249
872,683.964410886125
873,683.8143109257894
874,683.628129662875
875,683.4114660414317
876,683.1708939344512
877,682.9135179363105
878,682.6465685132245
879,682.3769952481151
880,682.1110297959902
881,681.8537224212381
882,681.608504342983
883,681.3768710258802
884,681.1582860662636
885,680.9503630075393
886,680.7493191437329
887,680.5506433886758
888,680.3498925255138
889,680.1435165904188
890,679.9295976604128
891,679.7083705749666
892,679.48240947599
893,679.2564307427576
894,679.0367580756314
895,678.8305720474381
896,678.6450956817519
897,678.4868510508217
898,678.3610746905883
899,678.271322121138
900,678.2192468671807
901,678.2045179896048
902,678.2248356918034
903,678.2760104961325
904,678.3520900517021
905,678.4455476015714
906,678.547574008704
907,678.6485203523451
908,678.7385073965199
909,678.8081621357353
910,678.8493896582564
911,678.8560646824046
912,678.8245351515145
913,678.7538591837005
914,678.6457333495208
915,678.5041123595954
916,678.334573279839
917,678.1435332677983
