frame_number,force
0,859.09662001141
1,859.1944903960883
2,859.2922466804084
3,859.3897763985591
4,859.4869703269258
5,859.583724038706
6,859.679939380653
7,859.7755258492435
8,859.8704018464432
9,859.9644957986358
10,860.0577471257859
11,860.1501070512371
12,860.241539245549
13,860.3320203001429
14,860.4215400280077
15,860.5101015898049
16,860.5977214452724
17,860.684429132264
18,860.7702668787942
19,860.8552890566909
20,860.9395614884471
21,861.023160621033
22,861.1061725812636
23,861.1886921269164
24,861.2708215068918
25,861.3526692431966
26,861.434348847759
27,861.515977487827
28,861.5976746146075
29,861.6795605707852
30,861.7617551934298
31,861.8443764290967
32,861.9275389771957
33,862.0113529759195
34,862.0959227425085
35,862.1813455769025
36,862.2677106353685
37,862.3550978790156
38,862.4435771014416
39,862.5332070399515
40,862.6240345754507
41,862.7160940269625
42,862.8094065473321
43,862.9039796264601
44,862.9998067071157
45,863.096866916362
46,863.1951249134037
47,863.2945308526112
48,863.3950204590136
49,863.4965152127943
50,863.5989226389793
51,863.7021366981219
52,863.8060382729526
53,863.910495744765
54,864.0153656524031
55,864.1204934268213
56,864.225714195105
57,864.3308536485476
58,864.4357289688921
59,864.5401498054115
60,864.6439192944201
61,864.7468351130966
62,864.8486905608695
63,864.9492756628318
64,865.0483782900129
65,865.1457852913742
66,865.241283632813
67,865.3346615390484
68,865.4257096342556
69,865.5142220765601
70,865.599997680685
71,865.682841022802
72,865.762563521911
73,865.8389844921713
74,865.911932160129
75,865.981244639838
76,866.0467708580445
77,866.1083714214532
78,866.1659194188386
79,866.2193011521391
80,866.268416792101
81,866.3131809551846
82,866.3535231991508
83,866.3893884349494
84,866.4207372524038
85,866.4475461571897
86,866.4698077171315
87,866.487530616787
88,866.5007396202999
89,866.5094754433061
90,866.513794535229
91,866.5137687738112
92,866.5094850744499
93,866.5010449177399
94,866.4885637992548
95,866.4721706056505
96,866.4520069206354
97,866.4282262636091
98,866.4009932633728
99,866.3704827695923
100,866.336878905512
101,866.3003740662319
102,866.2611678669377
103,866.2194660447482
104,866.1754793172835
105,866.1294222018599
106,866.0815118015621
107,866.0319665673451
108,865.9810050474764
109,865.9288446366345
110,865.875700337288
111,865.8217835459883
112,865.7673008765926
113,865.7124530309427
114,865.6574337255945
115,865.6024286815353
116,865.5476146828247
117,865.4931587097378
118,865.439217152113
119,865.3859351087212
120,865.3334457780693
121,865.2818699450271
122,865.2313155664623
123,865.1818774580972
124,865.1336370841246
125,865.08666245058
126,865.041008102782
127,864.9967152260625
128,864.9538118475102
129,864.9123131351099
130,864.8722217903049
131,864.8335285307968
132,864.7962126614628
133,864.7602427316807
134,864.7255772770519
135,864.6921656430754
136,864.6599488877966
137,864.6288607592307
138,864.5988287411117
139,864.5697751579372
140,864.5416183282824
141,864.5142737543233
142,864.4876553352893
143,864.46167659277
144,864.4362518960551
145,864.411297675654
146,864.3867336128816
147,864.3624837934352
148,864.3384778136821
149,864.3146518295503
150,864.2909495386979
151,864.2673230867397
152,864.2437338883138
153,864.22015335447
154,864.1965635196382
155,864.1729575640496
156,864.1493402301998
157,864.1257281341036
158,864.1021499734933
159,864.0786466360964
160,864.0552712121942
161,864.0320889169943
162,864.0091769297476
163,863.9866241576659
164,863.9645309334153
165,863.9430086552665
166,863.9221793790133
167,863.9021753706095
168,863.8831386280988
169,863.8652203804982
170,863.8485805694625
171,863.8333873169406
172,863.819816379478
173,863.8080505882447
174,863.7982792734092
175,863.7906976715208
176,863.7855063145529
177,863.7829103992755
178,863.7831191362816
179,863.7863450794705
180,863.7928034383885
181,863.8027113767903
182,863.8162873010856
183,863.8337501422617
184,863.8553186343851
185,863.8812105918666
186,863.9116421866856
187,863.9468272262163
188,863.9869764324278
189,864.0322967238374
190,864.0829905024157
191,864.1392549483729
192,864.2012813260757
193,864.2692543042224
194,864.3433512930864
195,864.4237418013572
196,864.510586814923
197,864.6040381998515
198,864.7042381317567
199,864.8113185533108
200,864.9254006606368
201,865.0465944179647
202,865.1749980986214
203,865.3106978492449
204,865.4537672731365
205,865.604267028605
206,865.7622444396386
207,865.927733118687
208,866.1007526034988
209,866.2813080111302
210,866.4693897126102
211,866.664973031549
212,866.8680179694242
213,867.0784689598338
214,867.2962546541684
215,867.5212877415713
216,867.7534648059369
217,867.992666221871
218,868.2387560908955
219,868.4915822195934
220,868.7509761428478
221,869.0167531970087
222,869.2887126491156
223,869.5666378893773
224,869.8502966950216
225,870.1394415736982
226,870.4338101930929
227,870.7331259006879
228,871.0370983348153
229,871.345424126011
230,871.6577876858872
231,871.9738620788185
232,872.2933099695679
233,872.6157846376533
234,872.9409310471752
235,873.2683869596203
236,873.5977840772118
237,873.9287492055294
238,874.2609054257944
239,874.5938732686651
240,874.9272718821595
241,875.2607201866973
242,875.593838010911
243,875.9262472029864
244,876.2575727134982
245,876.5874436466521
246,876.9154942773017
247,877.2413650309466
248,877.5647034232601
249,877.8851649549746
250,878.202413957606
251,878.5161243857501
252,878.8259805520885
253,879.1316778010632
254,879.4329231164113
255,879.7294356573045
256,880.0209472183285
257,880.3072026098309
258,880.5879599568568
259,880.8629909166501
260,881.132080816228
261,881.3950287127283
262,881.6516473801819
263,881.9017632272
264,882.1452161507945
265,882.3818593320309
266,882.6115589792001
267,882.8341940235284
268,883.0496557714349
269,883.257847516598
270,883.4586841152945
271,883.6520915299453
272,883.8380063481599
273,884.0163752867952
274,884.1871546916993
275,884.3503100436757
276,884.5058154802049
277,884.6536533413507
278,884.7938137475145
279,884.9262942159771
280,885.0510993218537
281,885.1682404070667
282,885.2777353387472
283,885.3796083166692
284,885.473889728419
285,885.560616051019
286,885.6398297980016
287,885.7115795107444
288,885.7759197922817
289,885.8329113814262
290,885.8826212650055
291,885.9251228256724
292,885.960496021455
293,885.9888275911233
294,886.010211277216
295,886.024748056663
296,886.0325463675557
297,886.0337223197977
298,886.0283998770212
299,886.0167109973382
300,885.9987957215487
301,885.9748021995052
302,885.9448866480388
303,885.9092132365427
304,885.8679538987217
305,885.8212880713451
306,885.7694023632527
307,885.7124901599939
308,885.6507511707758
309,885.5843909249215
310,885.5136202253714
311,885.4386545672041
312,885.3597135293649
313,885.2770201474844
314,885.1908002752027
315,885.1012819412996
316,885.0086947101447
317,884.913269052831
318,884.8152357353249
319,884.7148252282233
320,884.6122671409529
321,884.5077896820801
322,884.4016191467562
323,884.293979431748
324,884.1850915775565
325,884.0751733355609
326,883.9644387558685
327,883.8530977888757
328,883.7413558911585
329,883.6294136250568
330,883.5174662417223
331,883.4057032392648
332,883.2943078900817
333,883.183456733828
334,883.0733190347279
335,882.9640562041187
336,882.85582119117
337,882.748757846644
338,882.6430002664946
339,882.5386721239335
340,882.4358860001014
341,882.3347427244368
342,882.2353307360419
343,882.1377254767207
344,882.0419888253134
345,881.9481685821063
346,881.8562980116213
347,881.7663954514708
348,881.6784639937229
349,881.5924912436611
350,881.5084491597089
351,881.4262939781518
352,881.3459662267757
353,881.2673908318718
354,881.1904773228541
355,881.1151201382348
356,881.0411990361954
357,880.9685796123332
358,880.8971139260169
359,880.8266412353324
360,880.7569888396132
361,880.6879730285126
362,880.6194001370164
363,880.5510677056027
364,880.4827657433939
365,880.4142780901828
366,880.3453838713372
367,880.2758590377496
368,880.2054779806207
369,880.1340152077919
370,880.0612470652007
371,879.9869534846069
372,879.9109197373646
373,879.8329381735931
374,879.7528099264243
375,879.6703465619682
376,879.5853716569246
377,879.4977222866976
378,879.4072504071722
379,879.3138241137402
380,879.2173287629745
381,879.1176679457727
382,879.0147643044836
383,878.9085601890388
384,878.7990181484463
385,878.6861212552511
386,878.5698732624626
387,878.4502985947694
388,878.327442177944
389,878.2013691116213
390,878.0721641910789
391,877.9399312836601
392,877.8047925654888
393,877.6668876243467
394,877.5263724352549
395,877.3834182168418
396,877.2382101791017
397,877.0909461759553
398,876.9418352779861
399,876.7910962812463
400,876.6389561674022
401,876.4856485292933
402,876.3314119748575
403,876.1764885220236
404,876.0211219978262
405,875.8655564561556
406,875.7100346293162
407,875.554796428111
408,875.4000775033836
409,875.246107879466
410,875.0931106675949
411,874.9413008654092
412,874.7908842471896
413,874.6420563486801
414,874.4950015500582
415,874.3498922605595
416,874.2068882081356
417,874.0661358374645
418,873.9277678195041
419,873.7919026752021
420,873.6586445147066
421,873.5280828917865
422,873.4002927716259
423,873.2753346089464
424,873.1532545324646
425,873.0340846308876
426,872.917843335168
427,872.8045358916203
428,872.6941549203461
429,872.5866810527078
430,872.4820836403791
431,872.3803215272087
432,872.2813438741973
433,872.1850910275024
434,872.0914954194436
435,872.0004824928424
436,871.9119716399091
437,871.825877148504
438,871.742109150654
439,871.6605745700907
440,871.5811780669143
441,871.5038229782286
442,871.4284122536819
443,871.3548493840512
444,871.2830393194956
445,871.2128893726062
446,871.1443101007563
447,871.0772161628252
448,871.0115271470379
449,870.9471683691381
450,870.8840716427505
451,870.8221760255385
452,870.7614285446823
453,870.7017849032213
454,870.6432101658346
455,870.5856794198008
456,870.5291784045984
457,870.4737041015543
458,870.4192652728148
459,870.3658829371002
460,870.3135907692051
461,870.2624354114577
462,870.2124766876105
463,870.1637877116718
464,870.1164548856289
465,870.0705777813052
466,870.0262689029623
467,869.9836533286391
468,869.942868229762
469,869.9040622706696
470,869.8673948923523
471,869.8330354873541
472,869.8011624750333
473,869.7719622882738
474,869.7456282843378
475,869.722359593699
476,869.7023599213283
477,869.6858363150249
478,869.6729979147161
479,869.664054694906
480,869.6592162102013
481,869.6586903521556
482,869.6626821249575
483,869.6713924471933
484,869.6850169864182
485,869.703745032544
486,869.727758415575
487,869.7572304734226
488,869.7923250761214
489,869.8331957128663
490,869.8799846474901
491,869.932822146772
492,869.9918257850472
493,870.0570998281632
494,870.1287346996396
495,870.2068065316558
496,870.2913768029439
497,870.3824920646534
498,870.4801837540252
499,870.5844680947489
500,870.6953460825764
501,870.8128035547428
502,870.936811341033
503,871.0673254924732
504,871.2042875814915
505,871.3476250661845
506,871.4972517109295
507,871.653068054948
508,871.8149619190706
509,871.9828089395546
510,872.1564731173138
511,872.3358073715008
512,872.5206540874611
513,872.7108456500592
514,872.906204954074
515,873.1065458840085
516,873.3116737566594
517,873.5213857215119
518,873.7354711163379
519,873.953711777763
520,874.1758823085768
521,874.4017503050649
522,874.631076548603
523,874.863615166149
524,875.0991137643449
525,875.337313541925
526,875.5779493850374
527,875.8207499499528
528,876.0654377378676
529,876.3117291675358
530,876.5593346530557
531,876.8079586957919
532,877.0573000010767
533,877.3070516320594
534,877.5569012144275
535,877.8065312060909
536,878.0556192452169
537,878.303838588589
538,878.5508586504338
539,878.79634564978
540,879.039963371956
541,879.2813740468413
542,879.5202393430026
543,879.7562214735852
544,879.9889844077139
545,880.2181951801766
546,880.4435252912709
547,880.664652187211
548,880.8812608098352
549,881.0930452031615
550,881.2997101636134
551,881.5009729203607
552,881.6965648321058
553,881.8862330866577
554,882.0697423896348
555,882.2468766286698
556,882.417440499449
557,882.581261079531
558,882.7381893352723
559,882.8881015466077
560,883.0309006338847
561,883.166517370235
562,883.2949114624217
563,883.4160724834074
564,883.5300206410884
565,883.6368073690203
566,883.7365157260106
567,883.8292605924078
568,883.9151886523672
569,883.9944781536037
570,884.067338438879
571,884.1340092460748
572,884.1947597758551
573,884.2498875279456
574,884.2997169095132
575,884.3445976221936
576,884.3849028375986
577,884.4210271740942
578,884.4533844900573
579,884.4824055108628
580,884.5085353087155
581,884.5322306558352
582,884.5539572719608
583,884.5741869866818
584,884.5933948363651
585,884.612056114864
586,884.6306433967671
587,884.6496235518377
588,884.6694547698787
589,884.6905836165727
590,884.7134421421606
591,884.7384450651278
592,884.7659870520121
593,884.7964401127152
594,884.8301511291884
595,884.8674395342949
596,884.908595156666
597,884.9538762461656
598,885.0035076934023
599,885.0576794559836
600,885.1165452040151
601,885.1802211969729
602,885.248785402374
603,885.3222768633893
604,885.4006953187392
605,885.4840010751282
606,885.5721151301703
607,885.6649195417076
608,885.7622580375911
609,885.8639368588579
610,885.969725828685
611,886.0793596387488
612,886.192539343062
613,886.3089340471967
614,886.4281827785527
615,886.5498965215564
616,886.6736604006186
617,886.7990359932925
618,886.9255637561021
619,887.0527655455628
620,887.1801472164302
621,887.3072012778712
622,887.4334095866004
623,887.5582460550702
624,887.6811793531149
625,887.8016755828545
626,887.9192009085616
627,888.0332241251375
628,888.1432191506456
629,888.2486674299444
630,888.3490602376748
631,888.4439008694301
632,888.5327067098065
633,888.6150111656599
634,888.6903654531366
635,888.7583402284746
636,888.8185270549449
637,888.87053970097
638,888.9140152668496
639,888.9486151392246
640,888.9740257732162
641,888.9899593021929
642,888.9961539747362
643,888.9923744179572
644,888.9784117260923
645,888.9540833733919
646,888.9192329507132
647,888.8737297260559
648,888.8174680307533
649,888.7503664752242
650,888.6723670008428
651,888.5834337773028
652,888.4835519575494
653,888.3727263045
654,888.2509797049976
655,888.1183515866661
656,887.9748962529742
657,887.8206811515988
658,887.6557850919066
659,887.4802964291662
660,887.2943112352833
661,887.0979314774622
662,886.8912632269457
663,886.6744149203765
664,886.4474956969904
665,886.2106138358215
666,885.9638753178286
667,885.7073825380711
668,885.4412331931321
669,885.1655193690449
670,884.8803268543251
671,884.5857347004895
672,884.281815048735
673,883.9686332372423
674,883.6462481996107
675,883.3147131611387
676,882.9740766357194
677,882.6243837219506
678,882.2656776930728
679,881.89800187208
680,881.5214017811044
681,881.135927552528
682,880.7416365874723
683,880.338596444828
684,879.9268879406919
685,879.5066084338999
686,879.0778752683698
687,878.6408293377094
688,878.195638732814
689,877.742502429607
690,877.2816539718617
691,876.8133651029528
692,876.3379492999956
693,875.8557651639243
694,875.3672196196034
695,874.872770880974
696,874.3729311374752
697,873.8682689199508
698,873.3594111073784
699,872.8470445396628
700,872.3319172054371
701,871.8148389766137
702,871.2966818634028
703,870.7783797654048
704,870.2609276969305
705,869.7453804679808
706,869.2328508057448
707,868.7245069045326
708,868.2215693949087
709,867.7253077260068
710,867.2370359589869
711,866.7581079741561
712,866.2899120993667
713,865.8338651732001
714,865.3914060632187
715,864.9639886664625
716,864.5530744254727
717,864.1601243983754
718,863.7865909267493
719,863.4339089506327
720,863.1034870254526
721,862.7966980998156
722,862.5148701156483
723,862.259276494008
724,862.0311265722827
725,861.8315560621016
726,861.6616176014942
727,861.522271478809
728,861.4143766094713
729,861.3386818500977
730,861.2958177376046
731,861.2862887432083
732,861.3104661325673
733,861.3685815242495
734,861.4607212393691
735,861.5868215351612
736,861.7466648138951
737,861.9398768955548
738,862.1659254380995
739,862.4241195829633
740,862.7136108958077
741,863.0333956632645
742,863.3823185953115
743,863.7590779700373
744,864.1622322429879
745,864.5902081269899
746,865.041310129718
747,865.513731514654
748,866.0055666262342
749,866.514824492398
750,867.0394435882115
751,867.5773076134269
752,868.1262621055175
753,868.6841316797687
754,869.2487376630704
755,869.817915872011
756,870.3895342800373
757,870.9615103211936
758,871.5318275873967
759,872.098551691396
760,872.6598450871469
761,873.2139806614132
762,873.7593539342749
763,874.2944937319505
764,874.818071222226
765,875.3289072298676
766,875.8259777770957
767,876.3084178232242
768,876.775523206837
769,877.2267508211522
770,877.6617170773134
771,878.0801947315256
772,878.4821081708997
773,878.8675272698672
774,879.2366599436986
775,879.5898435370511
776,879.927535192945
777,880.2503013517214
778,880.5588065313856
779,880.8538015401931
780,881.1361112690938
781,881.406622206741
782,881.6662698144935
783,881.9160258931362
784,882.1568860662013
785,882.3898574969878
786,882.6159469482301
787,882.8361492847027
788,883.0514365092599
789,883.2627474118311
790,883.4709778992992
791,883.67697206262
792,883.881514026504
793,884.0853206165831
794,884.2890348689058
795,884.4932203965367
796,884.6983566184025
797,884.904834847074
798,885.1129552250732
799,885.3229244932662
800,885.5348545698839
801,885.7487619146758
802,885.9645676491772
803,886.1820984006238
804,886.4010878339046
805,886.6211788338234
806,886.841926299365
807,887.0628005126173
808,887.2831910467025
809,887.5024111783065
810,887.7197027705246
811,887.9342415914498
812,888.145143033919
813,888.3514682015491
814,888.5522303245953
815,888.7464014665009
816,888.9329194795193
817,889.1106951661911
818,889.2786196024917
819,889.4355715778499
820,889.5804251072913
821,889.7120569719657
822,889.8293542458595
823,889.931221767758
824,890.0165895180346
825,890.0844198599506
826,890.1337146056454
827,890.1635218681898
828,890.1729426622525
829,890.1611372164759
830,890.1273309608467
831,890.0708201529453
832,889.990977108069
833,889.8872549993808
834,889.7591921952876
835,889.6064161024107
836,889.428646483784
837,889.2256982232841
838,888.9974835093012
839,888.7440134140037
840,888.4653988493127
841,888.1618508861976
842,887.8336804293382
843,887.4812972443307
844,887.1052083398296
845,886.7060157129059
846,886.284413472649
847,885.8411843640175
848,885.3771957203172
849,884.8933948779971
850,884.3908040915976
851,883.8705149895374
852,883.3336826130492
853,882.7815190815954
854,882.2152869292557
855,881.6362921582388
856,881.0458770577325
857,880.4454128384798
858,879.8362921352447
859,879.2199214302713
860,878.5977134510773
861,877.9710795959295
862,877.3414224400992
863,876.7101283750304
864,876.0785604308202
865,875.4480513305068
866,874.8198968230065
867,874.1953493397467
868,873.575612017454
869,872.9618331260674
870,872.3551009368881
871,871.7564390620605
872,871.1668022918112
873,870.5870729499425
874,870.0180577813898
875,869.4604853797199
876,868.9150041582582
877,868.3821808657974
878,867.8624996457605
879,867.3563616359731
880,866.8640851047201
881,866.3859061170539
882,865.9219797228152
883,865.4723816543803
884,865.0371105180899
885,864.6160904589664
886,864.209174274027
887,863.8161469456292
888,863.436729563044
889,863.0705835976107
890,862.7173154940723
891,862.3764815380499
892,862.0475929574288
893,861.73012121394
894,861.4235034402777
895,861.1271479773364
896,860.8404399655255
897,860.5627469440232
898,860.2934244127468
899,860.0318213136572
900,859.7772853904305
901,859.5291683885154
902,859.2868310612934
903,859.0496479521918
904,858.8170119265209
905,858.5883384299644
906,858.3630694527418
907,858.1406771796866
908,857.9206673075785
909,857.702582012833
910,857.4860025551949
911,857.2705515057343
912,857.0558945897086
913,856.8417421369171
914,856.6278501345924
915,856.4140208809054
916,856.2001032408572
917,855.985992510829
918,855.7716299031476
