frame_number,force
0,731.8728000088639
1,731.8940950782657
2,731.9153623654468
3,731.9365742495888
4,731.9577034301806
5,731.9787230819169
6,731.9996070053401
7,732.02032977377
8,732.0408668771963
9,732.0611948635077
10,732.0812914768984
11,732.1011357925747
12,732.120708346018
13,732.1399912539748
14,732.1589683230694
15,732.1776251408058
16,732.1959491432453
17,732.2139296539942
18,732.2315578902798
19,732.2488269336866
20,732.2657316652769
21,732.2822686667646
22,732.2984360908329
23,732.3142335048177
24,732.3296617132072
25,732.344722565755
26,732.3594187590996
27,732.3737536401744
28,732.3877310191044
29,732.4013549976297
30,732.4146298165415
31,732.4275597227759
32,732.4401488546055
33,732.4524011422676
34,732.4643202210752
35,732.4759093541054
36,732.4871713618381
37,732.4981085565577
38,732.5087226797702
39,732.5190148413177
40,732.5289854595051
41,732.5386342026869
42,732.5479599343759
43,732.5569606654398
44,732.5656335175354
45,732.5739747014609
46,732.5819795132417
47,732.5896423500263
48,732.5969567473647
49,732.6039154392421
50,732.6105104424323
51,732.6167331668654
52,732.6225745528674
53,732.6280252340382
54,732.633075721964
55,732.6377166068544
56,732.6419387668489
57,732.6457335782542
58,732.6490931196219
59,732.652010364179
60,732.6544793567596
61,732.6564953722095
62,732.6580550523032
63,732.6591565181694
64,732.6597994555462
65,732.6599851707806
66,732.6597166159644
67,732.6589983818142
68,732.6578366570361
69,732.6562391531262
70,732.6542149937413
71,732.6517745681027
72,732.6489293487151
73,732.6456916749784
74,732.6420745053731
75,732.638091141417
76,732.6337549268675
77,732.6290789263528
78,732.6240755888005
79,732.6187564021001
80,732.6131315458601
81,732.6072095488792
82,732.6009969573275
83,732.5944980188427
84,732.5877143868848
85,732.5806448488206
86,732.5732850804682
87,732.5656274294709
88,732.5576607298638
89,732.5493701503798
90,732.540737079358
91,732.531739049414
92,732.5223497048806
93,732.512538814277
94,732.5022723290247
95,732.4915124886204
96,732.4802179718542
97,732.4683440939344
98,732.4558430504801
99,732.4426642105527
100,732.4287544616772
101,732.4140586100606
102,732.3985198388606
103,732.3820802262437
104,732.3646813231638
105,732.3462647884326
106,732.3267730757563
107,732.3061501642173
108,732.2843423208842
109,732.2612988825481
110,732.236973042991
111,732.2113226321347
112,732.1843108733383
113,732.1559071049147
114,732.1260874519525
115,732.0948354352051
116,732.0621425051302
117,732.028008490737
118,731.9924419546015
119,731.9554604474373
120,731.9170906580371
121,731.8773684568794
122,731.8363388338779
123,731.7940557326184
124,731.7505817851662
125,731.7059879531006
126,731.6603530814549
127,731.6137633724323
128,731.5663117855287
129,731.5180973709433
130,731.4692245444079
131,731.419802313562
132,731.3699434682007
133,731.3197637485523
134,731.2693810064018
135,731.2189143727302
136,731.1684834427225
137,731.1182074853467
138,731.0682046811179
139,731.0185913892082
140,730.9694814446239
141,730.9209854874963
142,730.8732103282076
143,730.8262583529482
144,730.7802269743777
145,730.7352081319699
146,730.691287846658
147,730.6485458342981
148,730.6070551817867
149,730.5668820880679
150,730.5280856698637
151,730.4907178295961
152,730.4548231819474
153,730.4204390364741
154,730.3875954360723
155,730.3563152535255
156,730.3266143495421
157,730.298501795075
158,730.2719801588034
159,730.2470458582553
160,730.2236895704795
161,730.201896695451
162,730.1816478627488
163,730.1629194700384
164,730.1456842409625
165,730.1299117901752
166,730.1155691840133
167,730.1026214864165
168,730.0910322811237
169,730.0807641625281
170,730.0717791884111
171,730.0640392883636
172,730.0575066229301
173,730.0521438907302
174,730.047914583267
175,730.0447831888856
176,730.0427153482586
177,730.0416779643697
178,730.0416392705805
179,730.0425688607721
180,730.0444376854883
181,730.0472180174737
182,730.0508833890916
183,730.0554085033526
184,730.0607691205722
185,730.0669419241798
186,730.0739043709424
187,730.0816345316878
188,730.0901109280915
189,730.0993123696364
190,730.1092177934232
191,730.1198061089049
192,730.1310560498506
193,730.1429460363465
194,730.1554540499366
195,730.1685575249995
196,730.1822332591801
197,730.1964573450194
198,730.2112051238302
199,730.2264511618297
200,730.2421692482352
201,730.2583324154575
202,730.2749129821558
203,730.2918826201693
204,730.3092124460338
205,730.3268731370157
206,730.3448350705809
207,730.3630684850141
208,730.3815436574899
209,730.4002310945244
210,730.4191017289783
211,730.438127118094
212,730.457279638302
213,730.4765326738843
214,730.4958607972818
215,730.515239939163
216,730.5346475471309
217,730.5540627330282
218,730.5734664092937
219,730.5928414142978
220,730.6121726258348
221,730.6314470619757
222,730.6506539694784
223,730.6697849011623
224,730.688833784238
225,730.7077969811577
226,730.7266733433318
227,730.7454642566302
228,730.7641736765687
229,730.7828081508501
230,730.8013768274353
231,730.8198914469685
232,730.8383663184326
233,730.8568182763765
234,730.8752666178216
235,730.8937330176242
236,730.9122414223369
237,730.9308179237329
238,730.949490613666
239,730.9682894216066
240,730.9872459352276
241,731.0063932035832
242,731.0257655223342
243,731.0453982006944
244,731.0653273096314
245,731.0855894104773
246,731.1062212633966
247,731.1272595165688
248,731.1487403790701
249,731.1706992824182
250,731.1931705369573
251,731.2161869895197
252,731.2397796881268
253,731.263977557917
254,731.2888070903174
255,731.3142920455017
256,731.3404531672797
257,731.3673079100831
258,731.3948701793375
259,731.4231500884121
260,731.4521537365341
261,731.4818830120242
262,731.5123354240693
263,731.543503964774
264,731.5753770020633
265,731.6079382030894
266,731.6411664867418
267,731.675036002794
268,731.7095161346424
269,731.744571522763
270,731.7801621068459
271,731.8162431856587
272,731.8527654942303
273,731.8896752974752
274,731.92691449846
275,731.9644207593726
276,732.0021276345816
277,732.0399647176079
278,732.0778578062386
279,732.1157290914335
280,732.1534973758467
281,732.1910783269204
282,732.2283847678061
283,732.265327006949
284,732.3018132042879
285,732.3377497693401
286,732.3730417849118
287,732.4075934503493
288,732.4413085396706
289,732.4740908715512
290,732.5058447891975
291,732.5364756488389
292,732.5658903165566
293,732.5939976744623
294,732.6207091380421
295,732.6459391861252
296,732.6696059034074
297,732.6916315331774
298,732.7119430354052
299,732.7304726433119
300,732.7471584102624
301,732.761944738083
302,732.7747828775015
303,732.7856313914039
304,732.7944565721939
305,732.801232805741
306,732.80594287609
307,732.808578206976
308,732.8091390378039
309,732.8076345327472
310,732.8040828221953
311,732.7985109765451
312,732.7909549135313
313,732.781459241373
314,732.7700770404567
315,732.7568695860609
316,732.7419060140917
317,732.7252629312349
318,732.707023970625
319,732.6872792942914
320,732.6661250442294
321,732.643662744702
322,732.6199986590747
323,732.595243105139
324,732.5695097338543
325,732.5429147779407
326,732.5155762785879
327,732.4876133002093
328,732.4591451444911
329,732.4302905757735
330,732.4011670697126
331,732.3718900959046
332,732.34257244306
333,732.3133235931739
334,732.2842491493952
335,732.255450320844
336,732.2270234661643
337,732.1990596961259
338,732.1716445344114
339,732.144857635426
340,732.1187725589759
341,732.093456603521
342,732.0689707011289
343,732.0453693771674
344,732.0227007763866
345,732.0010067553002
346,731.9803230391702
347,731.9606794403253
348,731.9421001328637
349,731.924603977381
350,731.9082048887309
351,731.8929122400264
352,731.8787312963957
353,731.8656636717742
354,731.8537078013316
355,731.8428594216674
356,731.8331120510951
357,731.8244574630314
358,731.8168861461668
359,731.8103877450935
360,731.8049514743408
361,731.8005664980874
362,731.7972222681273
363,731.7949088139496
364,731.793616980145
365,731.7933386072414
366,731.7940666529172
367,731.7957952519388
368,731.7985197152074
369,731.8022364706719
370,731.8069429512792
371,731.8126374372466
372,731.8193188611784
373,731.8269865844054
374,731.8356401514451
375,731.8452790273307
376,731.855902320561
377,731.8675084932169
378,731.8800950596875
379,731.8936582766337
380,731.908192829138
381,731.923691520677
382,731.940144976571
383,731.9575413712374
384,731.9758661887033
385,731.9951020237943
386,732.0152284292649
387,732.0362218129366
388,732.0580553886697
389,732.0806991846941
390,732.1041201116267
391,732.12828209072
392,732.1531462412297
393,732.1786711243385
394,732.2048130393764
395,732.2315263661113
396,732.2587639452133
397,732.2864774880986
398,732.3146180071682
399,732.3431362577401
400,732.3719831835191
401,732.4011103579871
402,732.4304704145062
403,732.4600174582969
404,732.4897074537656
405,732.5194985808687
406,732.5493515546356
407,732.5792299029307
408,732.6091001987324
409,732.6389322442577
410,732.6686992052055
411,732.6983776943874
412,732.7279478050028
413,732.7573930947667
414,732.7867005232562
415,732.8158603464207
416,732.8448659743099
417,732.8737138004251
418,732.902403012876
419,732.9309353978051
420,732.9593151442709
421,732.9875486577647
422,733.0156443875513
423,733.0436126711442
424,733.0714655971083
425,733.0992168849784
426,733.1268817790344
427,733.1544769517272
428,733.1820204127681
429,733.2095314206899
430,733.2370303944473
431,733.2645388231832
432,733.2920791727392
433,733.3196747877053
434,733.3473497874437
435,733.3751289536618
436,733.403037606286
437,733.4311014638208
438,733.4593464838008
439,733.4877986784462
440,733.5164839006685
441,733.5454275964719
442,733.5746545215126
443,733.6041884219096
444,733.6340516820196
445,733.6642649444404
446,733.694846709831
447,733.7258129258723
448,733.757176575361
449,733.7889472729596
450,733.8211308791322
451,733.8537291390851
452,733.8867393544764
453,733.9201540958055
454,733.9539609629462
455,733.9881424000052
456,734.0226755691048
457,734.0575322863123
458,734.0926790217937
459,734.1280769651231
460,734.1636821554545
461,734.1994456749654
462,734.2353139026357
463,734.2712288241867
464,734.3071283929822
465,734.3429469356588
466,734.3786155951223
467,734.4140628027096
468,734.449214771247
469,734.483996001448
470,734.5183297952591
471,734.5521387709458
472,734.5853453756059
473,734.6178723912794
474,734.6496434310832
475,734.6805834219874
476,734.7106190709176
477,734.7396793106627
478,734.7676957216628
479,734.7946029253901
480,734.8203389449668
481,734.8448455288809
482,734.8680684342769
483,734.8899576675888
484,734.9104676821582
485,734.9295575341054
486,734.9471909984258
487,734.9633366472536
488,734.977967891893
489,734.9910629897341
490,735.0026050168498
491,735.012581807554
492,735.0209858635461
493,735.0278142363012
494,735.0330683861124
495,735.0367540199338
496,735.0388809091829
497,735.0394626887794
498,735.0385166397747
499,735.0360634591034
500,735.0321270204495
501,735.0267341298711
502,735.0199142791897
503,735.0116993995537
504,735.0021236169839
505,734.9912230110908
506,734.9790353776929
507,734.9655999958992
508,734.9509574002875
509,734.9351491590022
510,734.9182176587957
511,734.9002058980553
512,734.8811572884384
513,734.8611154646234
514,734.8401241000427
515,734.8182267248447
516,734.7954665412618
517,734.7718862314225
518,734.7475277537061
519,734.7224321257205
520,734.696639194021
521,734.6701873918696
522,734.6431134864384
523,734.6154523165944
524,734.587236522793
525,734.5584962719358
526,734.5292589817826
527,734.4995490510937
528,734.4693876029063
529,734.4387922491823
530,734.4077768855913
531,734.3763515253652
532,734.3445221808829
533,734.3122908009027
534,734.2796552702833
535,734.2466094777948
536,734.2131434564276
537,734.1792435994573
538,734.1448929540892
539,734.1100715924758
540,734.0747570575243
541,734.0389248787542
542,734.0025491516265
543,733.965603171769
544,733.9280601132045
545,733.8898937375715
546,733.8510791200501
547,733.8115933773216
548,733.7714163830065
549,733.7305314564251
550,733.6889260114142
551,733.6465921534929
552,733.603527215347
553,733.5597342216253
554,733.5152222746494
555,733.4700068538068
556,733.4241100234093
557,733.3775605459815
558,733.3303938997626
559,733.2826522006513
560,733.2343840299344
561,733.1856441700915
562,733.1364932522896
563,733.086997321127
564,733.0372273241638
565,732.9872585350244
566,732.937169919207
567,732.8870434515219
568,732.8369633936699
569,732.787015540321
570,732.7372864424542
571,732.6878626176514
572,732.638829758266
573,732.5902719496333
574,732.5422709111789
575,732.4949052726357
576,732.4482498956922
577,732.4023752493885
578,732.3573468464037
579,732.3132247466949
580,732.2700631337568
581,732.2279099668568
582,732.1868067108776
583,732.1467881446321
584,732.1078822481497
585,732.0701101686881
586,732.033486264325
587,731.9980182234411
588,731.9637072578751
589,731.930548366234
590,731.8985306617161
591,731.8676377567893
592,731.8378481962558
593,731.8091359308959
594,731.7814708256167
595,731.7548191982722
596,731.7291443873811
597,731.7044073479333
598,731.6805672738058
599,731.65758224334
600,731.6354098822641
601,731.6140080362221
602,731.5933354439039
603,731.5733524007044
604,731.554021401516
605,731.5353077499009
606,731.5171801200872
607,731.4996110583294
608,731.4825774111915
609,731.4660606701946
610,731.4500472249313
611,731.434528520172
612,731.4195011163462
613,731.4049666562207
614,731.3909317426608
615,731.3774077329847
616,731.3644104554852
617,731.3519598540669
618,731.3400795678136
619,731.3287964533165
620,731.3181400584782
621,731.3081420572369
622,731.2988356552414
623,731.2902549768736
624,731.2824344440221
625,731.2754081566582
626,731.2692092845906
627,731.2638694788068
628,731.2594183095543
629,731.2558827368264
630,731.2532866172884
631,731.251650250178
632,731.2509899635276
633,731.2513177411034
634,731.25264088959
635,731.2549617450553
636,731.258277418141
637,731.2625795787493
638,731.2678542827516
639,731.2740818447775
640,731.281236762078
641,731.2892876946534
642,731.2981975062218
643,731.3079233695386
644,731.3184169385833
645,731.3296245893922
646,731.3414877304718
647,731.3539431824539
648,731.3669236247459
649,731.3803581042574
650,731.3941725982239
651,731.4082906206472
652,731.4226338606901
653,731.4371228414843
654,731.4516775886359
655,731.4662182986417
656,731.4806659981901
657,731.4949431858852
658,731.5089744484468
659,731.5226870440243
660,731.5360114459877
661,731.5488818413758
662,731.5612365789926
663,731.5730185630727
664,731.5841755896157
665,731.5946606238319
666,731.6044320186447
667,731.6134536759695
668,731.6216951539301
669,731.6291317235724
670,731.6357443783418
671,731.6415197996779
672,731.646450282964
673,731.6505336292132
674,731.6537730085657
675,731.6561768013935
676,731.6577584215675
677,731.6585361248314
678,731.6585328041027
679,731.6577757731975
680,731.65629654038
681,731.6541305725134
682,731.6513170493748
683,731.6478986064723
684,731.6439210640472
685,731.6394331402289
686,731.6344861475797
687,731.6291336741031
688,731.6234312514348
689,731.6174360137658
690,731.611206351048
691,731.6048015597821
692,731.5982814948793
693,731.5917062268244
694,731.5851357088494
695,731.5786294582583
696,731.5722462544107
697,731.5660438540505
698,731.5600787235956
699,731.5544057880695
700,731.549078197135
701,731.5441471091979
702,731.5396614938803
703,731.5356679514595
704,731.5322105463895
705,731.5293306517856
706,731.5270668024153
707,731.5254545544439
708,731.5245263507064
709,731.5243113909488
710,731.5248355074349
711,731.5261210474619
712,731.5281867654998
713,731.5310477287185
714,731.5347152403426
715,731.5391967852898
716,731.5444960016056
717,731.5506126792351
718,731.5575427852265
719,731.5652785125461
720,731.5738083489924
721,731.5831171628826
722,731.5931863023013
723,731.6039937044177
724,731.6155140112692
725,731.6277186888511
726,731.6405761468584
727,731.6540518566868
728,731.6681084658052
729,731.6827059078383
730,731.6978015094525
731,731.7133500968325
732,731.729304105731
733,731.7456136995467
734,731.7622268998309
735,731.7790897334402
736,731.7961464003788
737,731.8133394656835
738,731.8306100767297
739,731.847898204079
740,731.8651429005092
741,731.8822825704596
742,731.8992552413432
743,731.9159988289119
744,731.9324513907417
745,731.9485513644845
746,731.9642377901473
747,731.979450517686
748,731.9941304022722
749,732.0082194896477
750,732.0216611934502
751,732.0344004658975
752,732.0463839631401
753,732.0575602069223
754,732.0678797448861
755,732.07729531277
756,732.0857620025238
757,732.0932374405601
758,732.0996819796862
759,732.105058906684
760,732.1093346652881
761,732.1124790919077
762,732.1144656593859
763,732.1152717229983
764,732.1148787630714
765,732.1132726196284
766,732.110443715406
767,732.1063872635773
768,732.1011034554613
769,732.0945976220563
770,732.0868803624242
771,732.0779676324375
772,732.0678807891438
773,732.0566465881793
774,732.0442971333525
775,732.0308697784077
776,732.0164069816423
777,732.0009561152718
778,731.9845692332357
779,731.9673028026174
780,731.9492174041701
781,731.9303774067012
782,731.9108506190832
783,731.8907079230455
784,731.8700228899169
785,731.8488713851151
786,731.8273311649311
787,731.8054814704294
788,731.7834026229052
789,731.7611756247865
790,731.7388817695902
791,731.7166022644706
792,731.6944178686442
793,731.672408550457
794,731.6506531652925
795,731.6292291560608
796,731.6082122775745
797,731.5876763455292
798,731.5676930098851
799,731.5483315511112
800,731.52965869607
801,731.5117384485118
802,731.4946319277454
803,731.4783972087741
804,731.4630891581012
805,731.4487592605828
806,731.4354554333013
807,731.4232218227316
808,731.412098582484
809,731.402121631202
810,731.3933223933236
811,731.3857275282321
812,731.3793586552209
813,731.3742320830114
814,731.3703585537536
815,731.367743012059
816,731.3663844089925
817,731.3662755492207
818,731.3674029875727
819,731.369746979975
820,731.3732814932858
821,731.3779742784263
822,731.3837870105491
823,731.3906754983932
824,731.3985899626998
825,731.4074753810429
826,731.4172718939976
827,731.4279152653925
828,731.4393373877158
829,731.4514668229708
830,731.46422936958
831,731.4775486469108
832,731.4913466897968
833,731.5055445455981
834,731.5200628661199
835,731.5348224869371
836,731.5497449880128
837,731.5647532317117
838,731.579771876322
839,731.5947278643996
840,731.609550886037
841,731.6241738181095
842,731.6385331415182
843,731.6525693388534
844,731.6662272745336
845,731.6794565586073
846,731.6922118944296
847,731.7044534095066
848,731.7161469677926
849,731.7272644605217
850,731.7377840715154
851,731.747690512449
852,731.7569752241964
853,731.7656365418019
854,731.7736798221952
855,731.7811175350912
856,731.7879693184055
857,731.7942619994978
858,731.8000295822719
859,731.8053131979289
860,731.8101610148649
861,731.8146281014515
862,731.8187762342833
863,731.8226736438598
864,731.8263946897694
865,731.8300194585021
866,731.8336332791392
867,731.8373261552587
868,731.8411921151785
869,731.8453284865573
870,731.8498351048619
871,731.8548134680983
872,731.8603658524555
873,731.8665944051024
874,731.873600231031
875,731.8814824900634
876,731.8903375178335
877,731.9002579814859
878,731.9113320781343
879,731.923642782198
880,731.9372671462985
881,731.9522756590962
882,731.9687316621652
883,731.9866908268207
884,732.0062006911335
885,732.0273002575441
886,732.0500196523576
887,732.0743798493694
888,732.10039246044
889,732.1280595956998
890,732.1573737950152
891,732.1883180305034
892,732.2208657777122
893,732.2549811511332
894,732.2906190983865
895,732.3277256469665
896,732.366238197859
897,732.4060858612653
898,732.4471898306275
899,732.4894637921103
900,732.5328143678549
901,732.5771415924983
902,732.6223394228718
903,732.6682962799043
904,732.7148956198173
905,732.7620165295305
906,732.8095343394664
907,732.8573212460706
908,732.9052469364649
909,732.953179208498
910,733.0009845806246
911,733.048528887467
912,733.0956778588869
913,733.1422976827832
914,733.1882555536155
915,733.2334202087976
916,733.277662453683
917,733.3208556740012
