acceleration,velocity,displacement
-0.020783580314330558,0.0,0.0
-0.019688835528199243,-1.011810396063245e-05,-2.5295259901581124e-09
-0.018596422434202342,-1.9689418451232846e-05,-9.981406593124436e-09
-0.017508651178807875,-2.87156868544854e-05,-2.2082682919553997e-08
-0.016427789195675228,-3.7199796948106175e-05,-3.856155387020189e-08
-0.01535604075237335,-4.5145754435118316e-05,-5.9147941716008014e-08
-0.014295527490451189,-5.255864649582445e-05,-8.35740419487437e-08
-0.013248270197000847,-5.944459591768746e-05,-1.1157485255212168e-07
-0.012216172025794886,-6.581070647338639e-05,-1.4288867814989016e-07
-0.011201003374801509,-7.16650003235355e-05,-1.7725760484912062e-07
-0.01020438861046717,-7.701634831985267e-05,-2.1442794200996767e-07
-0.009227794803346212,-8.187439417330601e-05,-2.541506276332573e-07
-0.008272522605316473,-8.624947352547168e-05,-2.9618159455795173e-07
-0.007339699356025903,-9.015252901580728e-05,-3.402820951932715e-07
-0.006430274458027009,-9.35950224693205e-05,-3.8621898306455343e-07
-0.005545017012435123,-9.658884533693603e-05,-4.3376495001611755e-07
-0.004684515664242787,-9.91462285061055e-05,-4.826987184768779e-07
-0.003849180569579453,-0.00010127965256456107,-5.328051887445446e-07
-0.0030392473681379907,-0.00010300175954899043,-5.838755417729324e-07
-0.0022547830251652117,-0.00010432526714731623,-6.35707298447009e-07
-0.001495693397347269,-0.00010526288625294436,-6.881043367970742e-07
-0.0007617323720396192,-0.00010582724269529108,-7.40876869034133e-07
-5.2512427904433324e-05,-0.0001060308038952771,-7.93841380681775e-07
0.0006324835349299434,-0.00010588581111852072,-8.468205344352245e-07
0.0012938892489187928,-0.00010540421792255853,-8.996430416954943e-07
0.001932441176621318,-0.0001045976353161735,-9.521435050051773e-07
0.0025489638190446056,-0.00010347728406725702,-1.0041622348510348e-06
0.0031443544124219597,-0.00010205395450939038,-1.0555450444951967e-06
0.0037195672055560644,-0.00010033797410489588,-1.1061430266487683e-06
0.004275597530048112,-9.833918292099483e-05,-1.155812315905241e-06
0.0048134658974572616,-9.606691706411849e-05,-1.2044138409015193e-06
0.005334202370917166,-9.352999999702489e-05,-1.2518130701668051e-06
0.005838831455238811,-9.07367415404859e-05,-1.2978797555511828e-06
0.0063283577292661064,-8.769494424435967e-05,-1.3424876769973943e-06
0.006803752413047182,-8.441191670878134e-05,-1.3855143922356795e-06
0.007265941022650103,-8.089449334985702e-05,-1.4268409947503391e-06
0.007715792216799783,-7.714906003999454e-05,-1.4663518830978021e-06
0.00815410788900555,-7.318158501354321e-05,-1.5039345443611866e-06
0.008581614521921124,-6.899765441081154e-05,-1.5394793542172753e-06
0.008998955809300806,-6.460251182800606e-05,-1.5728793957769796e-06
0.009406686563739972,-6.0001101234745864e-05,-1.6040302990426677e-06
0.00980526795195235,-5.519811260582278e-05,-1.63283010250281e-06
0.0101950641173476,-5.019802958849779e-05,-1.6591791380513902e-06
0.010576340252623367,-4.500517849600505e-05,-1.6829799400725159e-06
0.010949262172374474,-3.962377788975559e-05,-1.704137179168956e-06
0.01131389740819937,-3.405798799461213e-05,-1.722557620640048e-06
0.011670217808007614,-2.8311959190560384e-05,-1.738150107436341e-06
0.012018103576214077,-2.238987884450496e-05,-1.7508255669451073e-06
0.012357348659737937,-1.6296015785516958e-05,-1.7604970406026129e-06
0.012687667373954584,-1.0034761777093827e-05,-1.7670797349932655e-06
0.013008702161985445,-3.6106693931088203e-06,-1.770491092785816e-06
0.013320032372672042,2.9715142405555514e-06,-1.7706508815739545e-06
0.013621183921506163,9.706818314100104e-06,-1.7674812984352906e-06
0.013911639673808561,1.6590024212928787e-05,-1.7609070878035333e-06
0.014190850373407334,2.361564672473276e-05,-1.7508556700691178e-06
0.014458245936433278,3.077792080219291e-05,-1.7372572781873865e-06
0.01471324693364003,3.8070794019711234e-05,-1.7200450994819104e-06
0.014955276093258078,4.548792477643576e-05,-1.6991554197828735e-06
0.015183769674717684,5.3022686218429704e-05,-1.674527767034157e-06
0.015398188593713646,6.066817578553754e-05,-1.6461050515331653e-06
0.015598029211684664,6.841723023688711e-05,-1.6138337000275592e-06
0.01578283372630675,7.626244597138497e-05,-1.5776637809754913e-06
0.015952200112913408,8.419620443119001e-05,-1.5375491183748474e-06
0.01610579157441463,9.221070235302203e-05,-1.4934473916787945e-06
0.016243345455426928,0.00010029798661048242,-1.4453202194379183e-06
0.016364681557118187,0.0001084499933636187,-1.393133224444393e-06
0.016469709758000488,0.00011665859119239837,-1.3368560783053886e-06
0.016558436820763023,0.00012491562783708925,-1.2764625235480166e-06
0.01663097226011799,0.0001332129801073095,-1.211930371561917e-06
0.01668753315983264,0.00014154260646229716,-1.1432414749195153e-06
0.016728447849768385,0.0001498966017146974,-1.0703816728752666e-06
0.016754158377381277,0.00015826725327148483,-9.933407091287211e-07
0.01676522172713951,0.00016664709829761502,-9.121121212364461e-07
0.016762309755817585,0.0001750289811683543,-8.266931013699537e-07
0.016746207827550763,0.0001834061105641964,-7.370843284368161e-07
0.01671781215317511,0.00019177211555937787,-6.432897719059225e-07
0.016678125858058588,0.00020012110006218628,-5.453164680005314e-07
0.01662825381387636,0.00020844769498017002,-4.4317426923994235e-07
0.016569396273064724,0.0002167471075019053,-3.3687556861942355e-07
0.01650284134684125,0.00022501516690688177,-2.2643500001722677e-07
0.01642995637391217,0.00023324836633707014,-1.1186911670623879e-07
0.016352178238489633,0.0002414438999901706,6.803949875571393e-09
0.01627100271030859,0.0002495996952273701,1.2956484867995656e-07
0.016187972888794363,0.00025771443912714587,2.563933822685856e-07
0.016104666831968126,0.0002657875990573365,3.872688918147062e-07
0.016022684441852352,0.0002738194368757916,5.221706507979883e-07
0.015943633674327176,0.00028181101640483645,6.610782641181453e-07
0.015869116149356953,0.00028976420386075746,8.039720691845438e-07
0.015800712255587622,0.0002976816609619936,9.508335353902315e-07
0.015739965868628903,0.0003055668304930477,1.101645658253992e-06
0.015688368830743114,0.0003134239141678907,1.2563933444192266e-06
0.01564734536544116,0.0003212578427169368,1.4150637836404334e-06
0.015618236619963874,0.00032907423821328807,1.5776468038729896e-06
0.015602285545506535,0.00033687936875465566,1.7441352056149756e-06
0.015600622344418684,0.000344680095727137,1.9145250717354237e-06
0.015614250734521317,0.000352483813996872,2.0888160491664258e-06
0.01564403529455608,0.0003602983855041413,2.267011599041679e-06
0.01569069015058785,0.0003681320668654273,2.449119212134071e-06
0.01575476923552934,0.0003759934317119566,2.6351505867784172e-06
0.015836658309228233,0.00038389128859814595,2.8251217668559427e-06
0.015936568878453693,0.00039183459539506645,3.019053237854246e-06
0.016054534113120997,0.00039983237114296015,3.2169699794887527e-06
0.01619040681525994,0.00040789360637505536,3.4189014738682568e-06
0.01634385945755032,0.00041602717294325793,3.624881668697835e-06
0.016514386272202138,0.00042424173437569606,3.834948895527574e-06
0.016701307341329606,0.000432545657779079,4.049145743566268e-06
0.016903774614530943,0.00044094692826804414,4.267518890078049e-06
0.017120779756443723,0.0004494530668607878,4.490118888860257e-06
0.017351163707948532,0.00045807105272688584,4.716999918757175e-06
0.017593627826577755,0.00046680725061051744,4.948219494591526e-06
0.017846746449369115,0.00047566734417950416,5.183838143289032e-06
0.018108980694945098,0.0004846562759655827,5.423919048325303e-06
0.018378693297577204,0.0004937781944637133,5.668527665932627e-06
0.01865416425031325,0.0005030364088506859,5.9177313167612274e-06
0.018933607026674133,0.0005124333516699328,6.171598756891382e-06
0.01921518514743829,0.0005219705497134609,6.430199732237231e-06
0.019497028858460056,0.0005316486032149355,6.69360452046933e-06
0.019777251689883965,0.0005414671733520214,6.961883464611069e-06
0.020053966681754305,0.000551424977944931,7.235106502435308e-06
0.020325302087791285,0.0005615197951373174,7.51334269570587e-06
0.02058941640159983,0.0005717484747596652,7.796659763180115e-06
0.020844512576925885,0.0005821069570042967,8.085123621121106e-06
0.021088851332059143,0.0005925902979815429,8.378797934867566e-06
0.02132076344408227,0.0006031927016755782,8.677743684781846e-06
0.02153866095581099,0.0006139075577755516,8.982018749644628e-06
0.021741047232897458,0.0006247274848227287,9.291677510294198e-06
0.02192652581963523,0.0006356443780858619,9.606770476021345e-06
0.02209380805853922,0.0006466494615554054,9.927343935931662e-06
0.022241719469242523,0.0006577333434373509,1.0253439637179851e-05
0.022369204921031914,0.0006688860745349195,1.0585094491672919e-05
0.022475332661309994,0.000680097208930505,1.0922340312539276e-05
0.022559297266040505,0.0006913558664123426,1.1265203581374987e-05
0.022620421562132505,0.0007026507961193859,1.1613705247007918e-05
0.02265815755250781,0.000713970440898046,1.1967860556262276e-05
0.022672086364792985,0.0007253030018773713,1.232767891695613e-05
0.02266191724557845,0.0007366365027799641,1.2693163793120465e-05
0.02262748562704341,0.0007479588534981196,1.3064312632189987e-05
0.022568750294859177,0.0007592579124785952,1.3441116823684165e-05
0.02248578968629758,0.0007705215474738844,1.3823561688672285e-05
0.022378797353116944,0.000781737694233738,1.4211626499099191e-05
0.02224807663928641,0.0007928944127318389,1.4605284525840585e-05
0.022094034641248837,0.0008039799405519727,1.5004503114161537e-05
0.021917175526947132,0.0008149827430940217,1.5409243785073035e-05
0.02171809328701181,0.0008258915602975114,1.5819462360920918e-05
0.021497463986924353,0.0008366954496159955,1.6235109113399295e-05
0.02125603759348362,0.0008473838250110975,1.665612893205607e-05
0.020994629462682973,0.0008579464917751391,1.708246151125263e-05
0.020714111590440353,0.00086837367703842,1.7514041553456018e-05
0.02041540373589433,0.0008786560558700036,1.7950798986683122e-05
0.0200994645275024,0.0008887847729358528,1.8392659193884587e-05
0.019767282655306608,0.0008987514597315551,1.8839543252051437e-05
0.019419868241065303,0.000908548247455648,1.9291368178848237e-05
0.019058244465426404,0.000918167775632271,1.9748047184620216e-05
0.018683439520857954,0.000927603196628842,2.0209489927685493e-05
0.01829647895356873,0.0009368481762474487,2.0675602770904565e-05
0.017898378458559076,0.0009458968906004806,2.1146289037616548e-05
0.017490137195442713,0.000954744019513981,2.162144926514516e-05
0.017072731691221418,0.0009633847367356471,2.210098145420757e-05
0.016647110388492748,0.0009718146972555756,2.2584781312705376e-05
0.016214188891563067,0.0009800300220755896,2.3072742492538168e-05
0.01577484596823305,0.0009880272807905387,2.35647568182547e-05
0.015329920378144827,0.000995803472377133,2.4060714506546617e-05
0.014880208603174312,0.0010033560046224627,2.4560504375796515e-05
0.014426463537538734,0.001010682672657641,2.506401404511654e-05
0.013969394156299494,0.0010177816370811005,2.5571130122551226e-05
0.013509666134826981,0.0010246514021538821,2.608173838235997e-05
0.01304790335099588,0.001031290794525338,2.6595723931529776e-05
0.012584690168803302,0.0010376989429052878,2.7112971365887432e-05
0.012120574374603049,0.0010438752590411393,2.763336491637404e-05
0.01165607061601522,0.0010498194202887938,2.8156788586206524e-05
0.011191664180866832,0.0010555313539880142,2.8683126279775725e-05
0.010727814950715677,0.0010610112237709097,2.9212261924215455e-05
0.010264961372463575,0.0010662594178517046,2.9744079584621108e-05
0.009803524312619142,0.0010712765392729754,3.0278463573902278e-05
0.009343910688839295,0.00107606339802334,3.0815298558226355e-05
0.008886516805080494,0.0010806210048968199,3.13544696589564e-05
0.008431731342647941,0.001084950566933752,3.189586255191404e-05
0.007979937977622193,0.0010890534842638196,3.2439363564713436e-05
0.0075315176084432426,0.001092931348160336,3.2984859772819476e-05
0.007086850188861762,0.0010965859401096622,3.353223909488697e-05
0.006646316169388384,0.0011000192316992247,3.4081390387839197e-05
0.0062102975490978905,0.0011032333851288463,3.463220354204622e-05
0.005779178528751462,0.0011062307541483086,3.5184569576865504e-05
0.005353345748304088,0.0011090138852175725,3.5738380736706976e-05
0.004933188099854299,0.001111585518679612,3.6293530587681274e-05
0.004519096125734346,0.0011139485897360092,3.684991411478518e-05
0.004111461021563268,0.0011161062290228336,3.740742781947489e-05
0.0037106732560701376,0.001118061762592242,3.796596981737866e-05
0.0033171208051536493,0.001119818711107548,3.852543993580361e-05
0.0029311869973966545,0.0011213807880581855,3.9085739810595044e-05
0.002553247990369178,0.0011227518968051269,3.964677298181087e-05
0.002183669929795762,0.0011239361262851682,4.020844498758344e-05
0.001822805868852384,0.0011249377452348301,4.0770663455463444e-05
0.001470992536143659,0.0011257611948360792,4.133333819048117e-05
0.001128547044021523,0.0011264110797311205,4.189638125912297e-05
0.0007957636264464166,0.0011268921573987375,4.245970706840544e-05
0.00047291048304821655,0.001127209325926111,4.302323243923665e-05
0.00016022678328516795,0.0011273676102426945,4.358687667327885e-05
-0.0001420801380815648,0.0011273721469039954,4.4150561612565524e-05
-0.00043383737571349364,0.0011272281675255467,4.471421169117291e-05
-0.0007149088228487738,0.001126940980975906,4.5277753978298273e-05
-0.000985197298355911,0.0011265159544456048,4.584111821215365e-05
-0.0012446464133440015,0.0011259584935176799,4.6404236824144474e-05
-0.0014932421527057912,0.0011252740213761674,4.696704495286794e-05
-0.0017310141354994635,0.001124467957304116,4.752948044753801e-05
-0.0019580365087279532,0.001123545694643059,4.80914838605248e-05
-0.0021744284319061423,0.0011225125784079006,4.865299842878754e-05
-0.002380354124854115,0.0011213738827687105,4.9213970044081686e-05
-0.0025760224679057947,0.0011201347886205205,4.9774347211928996e-05
-0.002761686155236543,0.001118800361464735,5.033408099945031e-05
-0.0029376404123350737,0.0011173755298228422,5.0893124972272204e-05
-0.0031042213014975113,0.001115865064394384,5.145143512082651e-05
-0.0032618036508108793,0.001114273558156307,5.200896977646418e-05
-0.0034107986484051738,0.001112605407581503,5.256568951789863e-05
-0.0035516511465878363,0.0011108647951327548,5.3121557068577196e-05
-0.0036848367231524506,0.0011090556731653198,5.3676537185651714e-05
-0.003810858551014551,0.001107181749346778,5.423059654127974e-05
-0.003930244132164727,0.0011052464736759833,5.478370359703543e-05
-0.004043541954231131,0.0011032530271543842,5.533582847224302e-05
-0.004151318125060217,0.0011012043121345614,5.588694280706526e-05
-0.004254153035016008,0.0010991029443445423,5.6437019621185036e-05
-0.004352638093642532,0.0010969512465623776,5.698603316891176e-05
-0.004447372588435668,0.001094751243891858,5.753395879152532e-05
-0.00453896071315413,0.0010925046605664605,5.8080772767639897e-05
-0.004628008803280521,0.0010902129181873518,5.862645216232835e-05
-0.0047151227944042225,0.0010878771352879307,5.917097467569717e-05
-0.004800905891425832,0.0010854981281164732,5.971431849154827e-05
-0.00488595641111634,0.0010830764125408377,6.0256462126712596e-05
-0.004970865743255304,0.0010806122070022449,6.0797384281598364e-05
-0.005056216369288586,0.0010781054364741088,6.133706369246745e-05
-0.005142579885229514,0.0010755557374104792,6.18754789859386e-05
-0.005230514998203226,0.001072962463689621,6.241260853621362e-05
-0.005320565500144287,0.001070324693565034,6.294843032552728e-05
-0.0054132582604141544,0.0010676412376248944,6.348292180832477e-05
-0.005509101309346489,0.0010649106477324543,6.401605977966411e-05
-0.005608582094319855,0.0010621312268815377,6.454782024831761e-05
-0.005712165976416958,0.0010593010398638534,6.507817831500396e-05
-0.005820295010347462,0.0010564179246171624,6.560710805612421e-05
-0.005933387027679333,0.0010534795041076558,6.613458241330542e-05
-0.006051835028001345,0.0010504831985937355,6.666057308898077e-05
-0.006176006871106314,0.0010474262381189585,6.718505044815894e-05
-0.00630624525637418,0.0010443056750870884,6.770798342646046e-05
-0.006442867975032646,0.0010411183967792366,6.822933944442703e-05
-0.0065861684180678545,0.0010378611376809614,6.874908432804208e-05
-0.006736416305403723,0.0010345304915000935,6.926718223533735e-05
-0.006893858575284292,0.0010311229227799215,6.978359558890735e-05
-0.007058720354038032,0.001027634778047591,7.029828501411424e-05
-0.007231205923643688,0.0010240622964781704,7.081120928274567e-05
-0.0074114996102507625,0.0010204016200946967,7.13223252618889e-05
-0.007599766522184158,0.001016648803561588,7.183158786780296e-05
-0.007796153069680943,0.0010127998236636217,7.233895002460927e-05
-0.008000787204405075,0.0010088505885951001,7.284436262767395e-05
-0.00821377832713903,0.0010047969472122141,7.334777451162577e-05
-0.00843521682919108,0.0010006346984231316,7.38491324230346e-05
-0.008665173255709315,0.0009963596009019066,7.434838099786587e-05
-0.008903697100622521,0.0009919673833128236,7.484546274391955e-05
-0.009150815255597047,0.0009874537552237686,7.53403180285537e-05
-0.009406530138703644,0.0009828144188751935,7.583288507207844e-05
-0.009670817529920498,0.0009780450819580374,7.632309994728674e-05
-0.009943624149118348,0.0009731414715382778,7.681089658566082e-05
-0.010224865030518424,0.0009680993492433686,7.729620679085623e-05
-0.010514420769746116,0.0009629145277933025,7.77789602601154e-05
-0.010812134736363782,0.000957582888916775,7.825908461429292e-05
-0.01111781035290203,0.0009521004026444586,7.873650543718322e-05
-0.011431208544005181,0.0009464631479202318,7.921114632482439e-05
-0.0117520454597032,0.0009406673344193047,7.968292894540927e-05
-0.012079990575974536,0.0009347093254103853,8.01517731103667e-05
-0.012414665272859178,0.0009285856614481768,8.061759685708134e-05
-0.012755641982254763,0.0009222930846343984,8.108031654360199e-05
-0.013102443981949596,0.0009158285631433473,8.153984695554642e-05
-0.013454545891729165,0.0009091893156749276,8.199610142525099e-05
-0.013811374907813246,0.000902372835475042,8.244899196303848e-05
-0.014172312797436108,0.0008953769135487297,8.289842940029442e-05
-0.014536698666751363,0.0008881996606826829,8.334432354385227e-05
-0.014903832508750938,0.0008808395278888073,8.378658334099514e-05
-0.015272979522296106,0.0008732953248810455,8.42251170541876e-05
-0.015643375156051534,0.0008655662362114586,8.465983244446072e-05
-0.0160142307741563,0.0008576518347289066,8.509063696219581e-05
-0.01638473978480314,0.0008495520920891668,8.551743794390033e-05
-0.01675408404312437,0.0008412673861321849,8.594014281345566e-05
-0.017121440344137488,0.0008327985050353694,8.635865928624755e-05
-0.017485986849239386,0.0008241466482370251,8.677289557456564e-05
-0.017846909323544245,0.0008153134241938293,8.718276059267335e-05
-0.018203407090926268,0.0008063008450902116,8.758816415999436e-05
-0.018554698637886953,0.0007971113186580083,8.798901720093141e-05
-0.01890002681846469,0.0007877476372939203,8.83852319399194e-05
-0.01923866362783131,0.0007782129646823463,8.877672209041346e-05
-0.01956991451621634,0.0007685108201463343,8.916340303662062e-05
-0.019893122207834055,0.0007586450609653217,8.954519200689854e-05
-0.020207669981273078,0.0007486198629180449,8.992200823786938e-05
-0.020512984368853165,0.0007384396993305133,9.029377312843153e-05
-0.020808537244530738,0.0007281093189271673,9.066041038299594e-05
-0.02109384728946261,0.000717633722793669,9.102184614342615e-05
-0.021368480846977178,0.000707018140759559,9.137800910931446e-05
-0.021632052199978997,0.00069626800749782,9.172883064637881e-05
-0.02188422332016428,0.0006853889386177842,9.207424488290772e-05
-0.0221247031498418,0.0006743867070002827,9.241418879431224e-05
-0.022353246482788827,0.000663267219592125,9.274860227596035e-05
-0.022569652504504056,0.0006520364948453018,9.30774282045697e-05
-0.022773763029636254,0.0006407006409617668,9.340061248852147e-05
-0.022965460444592738,0.0006292658350932095,9.371810410753521e-05
-0.02314466534562178,0.0006177383036456559,9.402985514221992e-05
