frame_number,force
0,586.4805900000164
1,586.3788974901319
2,586.2738631059658
3,586.162130034443
4,586.0403767177364
5,585.9054778595148
6,585.7547973296357
7,585.586607125944
8,585.4005872679195
9,585.1983127024862
10,584.983599278323
11,584.762586502316
12,584.5434830811246
13,584.3359720526821
14,584.1503402862141
15,583.9964468582994
16,583.882670522964
17,583.8149778980297
18,583.7962349065552
19,583.8258475484615
20,583.8997679120077
21,584.0108496651781
22,584.149496750301
23,584.3045221023166
24,584.4641223902573
25,584.6168833656819
26,584.7527466878864
27,584.8638755611693
28,584.9453516524196
29,584.9956282849845
30,585.0166624433338
31,585.0136638503587
32,584.9944489769224
33,584.968466559092
34,584.9456357652281
35,584.9351727596264
36,584.9445694663331
37,584.9788511998448
38,585.0401952054726
39,585.1279370724902
40,585.238923847434
41,585.3681124430975
42,585.5092897557857
43,585.6558125284928
44,585.8013046348673
45,585.9402758863341
46,586.0686282923948
47,586.1840019108955
48,586.2859009298792
49,586.3755511560756
50,586.4554832968162
51,586.5288995891959
52,586.5989347244542
53,586.6679448203571
54,586.7369503664414
55,586.8053299483767
56,586.8708190781277
57,586.9298191686356
58,586.9779706606504
59,587.0108937345686
60,587.0249565689545
61,587.0179146024052
62,586.9892938017243
63,586.9404573860493
64,586.8743662688624
65,586.7950956949353
66,586.7072005624938
67,586.6150326512585
68,586.5221099570543
69,586.430628061085
70,586.3411860915605
71,586.2527716156327
72,586.163012020364
73,586.0686616221059
74,585.9662565126607
75,585.8528337904119
76,585.7265878399171
77,585.5873403064018
78,585.4367414869303
79,585.2781877158617
80,585.1165022784722
81,584.957460137211
82,584.807237499617
83,584.6718543226744
84,584.5566663575637
85,584.4659501782753
86,584.4026008447349
87,584.3679365873691
88,584.3615988437778
89,584.3815483792309
90,584.4241645422175
91,584.4844426111501
92,584.556269565282
93,584.6327593002948
94,584.706640653496
95,584.7707022082086
96,584.818301472559
97,584.8439372148359
98,584.843850378243
99,584.8165671057387
100,584.7632631146251
101,584.6878431434487
102,584.5966871892247
103,584.4980885842706
104,584.4014725649122
105,584.3165215079629
106,584.2523344541509
107,584.2167157920625
108,584.2156383323195
109,584.2528839778709
110,584.3298498715009
111,584.4455200308046
112,584.5966176005272
113,584.7779392609445
114,584.9828277182058
115,585.2036959746381
116,585.432519537215
117,585.6612650022098
118,585.8822859176731
119,586.0887394565208
120,586.2750453330732
121,586.4373498984677
122,586.5739080855133
123,586.6852694680632
124,586.7741670235278
125,586.8450754834168
126,586.9035108866804
127,586.955224884991
128,587.0054649923941
129,587.0584327631756
130,587.117005700266
131,587.1827193338802
132,587.2559473529105
133,587.3361807630279
134,587.422303265624
135,587.5127930617668
136,587.6058349177295
137,587.6993716688672
138,587.7911408554841
139,587.8787277567739
140,587.9596337739007
141,588.0313319400011
142,588.0912814798302
143,588.1369050057247
144,588.1655751446597
145,588.1746815776006
146,588.1618356124918
147,588.1252227960844
148,588.0640561358642
149,587.9790327207685
150,587.8726665874859
151,587.749372724927
152,587.6152255400928
153,587.4774046071549
154,587.343426904539
155,587.2202988543049
156,587.1137050388575
157,587.0273269674539
158,586.9623799206624
159,586.9174540660357
160,586.8887224374165
161,586.8705245940256
162,586.8562616591556
163,586.8394671780941
164,586.8148737307006
165,586.7792943910929
166,586.7321747880537
167,586.6757261837723
168,586.6146154588198
169,586.5552640696422
170,586.5048775837048
171,586.4703641355276
172,586.4572985210187
173,586.4690647344055
174,586.506277675195
175,586.5665468596094
176,586.6446019540191
177,586.7327577958109
178,586.8216617723002
179,586.901242914086
180,586.9617718387183
181,586.9949377943491
182,586.994839437579
183,586.9587662706155
184,586.8876379143742
185,586.7859957099344
186,586.661511604422
187,586.5240712632501
188,586.3845731861387
189,586.2536418774622
190,586.1404600783244
191,586.0518722045653
192,585.9918237575084
193,585.9611264425936
194,585.9575005595815
195,585.9758407842952
196,586.0086702448767
197,586.046778344853
198,586.0800521277974
199,586.0984838229019
200,586.0932731643417
201,586.0578730027349
202,585.9887875064776
203,585.885951910783
204,585.7526031888615
205,585.5946620784288
206,585.4197518014261
207,585.2360565856459
208,585.0512596430723
209,584.871779765723
210,584.7024431186704
211,584.5466004650466
212,584.4065719601859
213,584.2842219552608
214,584.1814611706303
215,584.1005282613377
216,584.0439828715525
217,584.0144206504677
218,584.013981642251
219,584.0437617130517
220,584.1032543607818
221,584.1899468509653
222,584.2991689852762
223,584.424250377084
224,584.5569879377641
225,584.6883630601794
226,584.8093919960569
227,584.9119655074715
228,584.9895492665717
229,585.0376693945047
230,585.0541712126986
231,585.0392821185078
232,584.995520066499
233,584.927477306513
234,584.8414900821177
235,584.7451927057037
236,584.646956179801
237,584.5552243225574
238,584.4777799635135
239,584.4210007147544
240,584.3891932393163
241,584.3841106731675
242,584.4047445280636
243,584.4474423955705
244,584.5063536747175
245,584.5741588658994
246,584.6429947890307
247,584.705454751157
248,584.7555294897498
249,584.7893624942963
250,584.8057164759848
251,584.8060817180871
252,584.7943989404284
253,584.776421071987
254,584.7588022133148
255,584.7480655589931
256,584.7496366986255
257,584.7671117212641
258,584.8018658425005
259,584.853029113358
260,584.9177922552383
261,584.9919655396805
262,585.0706886518597
263,585.1491773747182
264,585.223399364605
265,585.2905952327269
266,585.3495912526224
267,585.4008754860472
268,585.4464287856898
269,585.4893237366215
270,585.5331377710248
271,585.5812712315022
272,585.6362964907318
273,585.6994625989995
274,585.7704402835805
275,585.8473428179947
276,585.9270173141981
277,586.0055592941117
278,586.0789553387503
279,586.1437226558518
280,586.1974147242107
281,586.2389036686092
282,586.2684140026619
283,586.2873417776466
284,586.297929370859
285,586.3028713324799
286,586.3049034753024
287,586.3063950152663
288,586.3089490882033
289,586.3130311653413
290,586.3176759831607
291,586.3203493934506
292,586.3170399397882
293,586.3026159358733
294,586.2714191491142
295,586.2180014005135
296,586.1378709088664
297,586.0281192342131
298,585.8878452581359
299,585.7183515815784
300,585.5231286230913
301,585.3076504828933
302,585.0789961232693
303,584.845305906173
304,584.6151053508031
305,584.3965643557565
306,584.1967824358321
307,584.0211831558429
308,583.8730747639911
309,583.753413412848
310,583.6608007097284
311,583.5917397997214
312,583.5411378944972
313,583.5029817547424
314,583.471061777559
315,583.439614975163
316,583.4038019595637
317,583.3600002814873
318,583.3059465495783
319,583.2407692503572
320,583.1649333681888
321,583.0800989502252
322,582.9888964506273
323,582.8946313880871
324,582.8009396851403
325,582.7114313007206
326,582.6293822220184
327,582.557536701351
328,582.4980437572154
329,582.4524945578039
330,582.4219913736642
331,582.4071843597884
332,582.4082440056019
333,582.4247691848466
334,582.4556566470186
335,582.498982002234
336,582.5519562058548
337,582.6110081478864
338,582.6720026459332
339,582.7305575342232
340,582.7824019862541
341,582.8237255027444
342,582.85148074418
343,582.8636059626436
344,582.8591323954752
345,582.8381532784912
346,582.8016559379098
347,582.7512501964006
348,582.6888540544097
349,582.6164082361747
350,582.5356820165791
351,582.4482131479474
352,582.3553999529113
353,582.2587296013523
354,582.160084109898
355,582.0620283171556
356,581.9679697795333
357,581.8821037690368
358,581.8091221334655
359,581.7537488905276
360,581.7202145397538
361,581.7117630210143
362,581.7302336400346
363,581.7757342456657
364,581.846434599469
365,581.9385253349814
366,582.0463766147647
367,582.1628928056689
368,582.2800200085458
369,582.3893467368503
370,582.4827491892073
371,582.5530516515518
372,582.5946717074198
373,582.6041904383293
374,582.5807519754528
375,582.5261894298964
376,582.4448128673017
377,582.3428671099637
378,582.2277407263657
379,582.1070531806763
380,581.9877560253277
381,581.8753675678838
382,581.7734333242114
383,581.6832724068421
384,581.604031954652
385,581.533029361447
386,581.4663226799195
387,581.3994219256662
388,581.328042723544
389,581.2488062889333
390,581.1597997013095
391,581.0609281801995
392,580.954023281131
393,580.8427120431489
394,580.7320830720548
395,580.6281984146708
396,580.5375022419474
397,580.4661710839018
398,580.4194371972026
399,580.4009171516049
400,580.4120121092946
401,580.4514957695166
402,580.5154220057997
403,580.5974372152795
404,580.6894858971273
405,580.7827957344392
406,580.8689685601587
407,580.9410065726006
408,580.9941463875722
409,581.0264176952186
410,581.038870356831
411,581.0354345233723
412,581.0224148990073
413,581.007682721095
414,580.9996997040816
415,581.0065478134245
416,581.0351178692422
417,581.0905410973912
418,581.1758768555183
419,581.2920300748059
420,581.4378592122176
421,581.6104308148233
422,581.8053739756036
423,582.0172917453754
424,582.2401954735665
425,582.4679298252853
426,582.6945465783252
427,582.9145845175833
428,583.12324438309
429,583.3165004698731
430,583.4912218333208
431,583.645357078379
432,583.7781761352162
433,583.8904954405505
434,583.9847801278141
435,584.0650392152274
436,584.13649019557
437,584.2050288765256
438,584.2765756457322
439,584.3563839473421
440,584.448399691885
441,584.554751458945
442,584.6754281017836
443,584.8081669175963
444,584.9485431009444
445,585.0902341814093
446,585.225437956854
447,585.345432733262
448,585.441258563285
449,585.5044695067413
450,585.5278896219311
451,585.5063120007687
452,585.4370897504621
453,585.3205634401738
454,585.1602622351239
455,584.9628241856634
456,584.7376126792955
457,584.4960587942218
458,584.2508140836889
459,584.0148243973977
460,583.8004246219687
461,583.618529713116
462,583.4779762606571
463,583.3850426216004
464,583.3431390713336
465,583.3526355151778
466,583.410807486901
467,583.5119191938892
468,583.6474917843801
469,583.8068088818848
470,583.9776872638939
471,584.1474842610959
472,584.304233505745
473,584.437731686085
474,584.5403806055074
475,584.6076375964375
476,584.6380288872056
477,584.6327946746211
478,584.5953133929089
479,584.5304725154527
480,584.4441261647723
481,584.3427246213297
482,584.2331246618122
483,584.1225101658862
484,584.0183066586382
485,583.9279825085554
486,583.858677679553
487,583.8166623595379
488,583.8066899179009
489,583.8313621003254
490,583.890650941098
491,583.9817047700502
492,584.099006505539
493,584.2348725012165
494,584.3802074675831
495,584.5253889496781
496,584.6611561727648
497,584.7794142738513
498,584.8739047254277
499,584.9407063053802
500,584.9785200597504
501,584.9886882275622
502,584.9749279257335
503,584.9428146694299
504,584.8990897581095
505,584.8508734859113
506,584.8048715675328
507,584.766683719696
508,584.7403269596563
509,584.7280372066881
510,584.7303363441476
511,584.7462992819055
512,584.7739426775754
513,584.8106672376073
514,584.8537003107566
515,584.900491908219
516,584.9490125222454
517,584.9978983037486
518,585.0464051335177
519,585.0941729344672
520,585.1408580838225
521,585.1857473170885
522,585.2274940864705
523,585.2640972484253
524,585.293174699809
525,585.3124935768852
526,585.3206340736649
527,585.3176143504703
528,585.3053051732705
529,585.2875123484373
530,585.2696849396154
531,585.2582894607717
532,585.2599505927393
533,585.2804954727496
534,585.3240608340849
535,585.3924219749929
536,585.4846590698354
537,585.5971956503208
538,585.7241670008576
539,585.8580379815762
540,585.9903873879687
541,586.1127832038707
542,586.2176736663696
543,586.2992122930038
544,586.3539242638761
545,586.3811152077805
546,586.3829356515349
547,586.3640510235381
548,586.3309234187641
549,586.2907835286741
550,586.2504498879749
551,586.2152094446691
552,586.1879749829359
553,586.1688727430936
554,586.1553130479215
555,586.1424954102423
556,586.1242233677441
557,586.0938658145492
558,586.0453050260675
559,585.9737472108895
560,585.876319407495
561,585.7524229391753
562,585.6038515184398
563,585.4347019643185
564,585.251103283102
565,585.0607791310364
566,584.8724583155572
567,584.6951620000706
568,584.5374160107558
569,584.4064562215052
570,584.3075135191646
571,584.2432760669165
572,584.2136181883067
573,584.2156526235017
574,584.2441139822178
575,584.2920250656272
576,584.3515449918843
577,584.414868830856
578,584.4750557378843
579,584.5266946014841
580,584.5663548224999
581,584.5928089666354
582,584.6070468927268
583,584.6121142414803
584,584.6128004050757
585,584.6151876170495
586,584.626068970813
587,584.652255066033
588,584.6998161029719
589,584.7733413629885
590,584.8753236558011
591,585.0057714762655
592,585.1621124829768
593,585.3393989878415
594,585.5307801072622
595,585.7281679495483
596,585.9229942006566
597,586.1069407008548
598,586.2725502074869
599,586.4136759291332
600,586.5257758189603
601,586.6060707216251
602,586.6535739272381
603,586.6689950586023
604,586.6545360689901
605,586.6136176393821
606,586.5505832614527
607,586.4704201266861
608,586.378514619237
609,586.2804349563763
610,586.1817161489131
611,586.0876210980134
612,586.0028656253875
613,585.9313197918918
614,585.8757264897088
615,585.837495732596
616,585.8166234637779
617,585.8117525467463
618,585.8203638045627
619,585.8390703062901
620,585.8639831966159
621,585.8911089822658
622,585.9167221495554
623,585.9376480118486
624,585.9514093455974
625,585.9562360426239
626,585.9509820641907
627,585.9350101333267
628,585.908091428535
629,585.8703490732503
630,585.8222657225223
631,585.7647638308807
632,585.6993345957443
633,585.628150193378
634,585.5540776420228
635,585.480540176854
636,585.4112319619867
637,585.3497517054014
638,585.2992427512794
639,585.2620999665221
640,585.2397587629348
641,585.2325582600378
642,585.2396734714437
643,585.2591194124198
644,585.2878314637044
645,585.3218270015786
646,585.3564568446986
647,585.3867503508349
648,585.4078328374596
649,585.4153572544361
650,585.4058725058253
651,585.3770675306738
652,585.3278700116367
653,585.25841368958
654,585.1699085359185
655,585.0644609143269
656,584.9448987170215
657,584.8146497073418
658,584.6776924283444
659,584.5385555611682
660,584.4023039553026
661,584.2744379378382
662,584.160654525411
663,584.0664659868127
664,583.9967226903995
665,583.9551211512605
666,583.9437825990728
667,583.9629680456666
668,584.0109691951195
669,584.084193790805
670,584.177450550435
671,584.2844205781192
672,584.3982667440159
673,584.5122900475343
674,584.6205230119103
675,584.718173970887
676,584.8018897980296
677,584.8698568975622
678,584.9217865454223
679,584.9588241648047
680,584.9833928551809
681,584.9989521303582
682,585.009648942318
683,585.0198691180982
684,585.0337442398333
685,585.0546999672612
686,585.0851305690123
687,585.1262552027033
688,585.178165176179
689,585.2400226465277
690,585.3103409006164
691,585.387277560189
692,585.4688946468931
693,585.5533622158317
694,585.6390956894635
695,585.7248240520898
696,585.8095906837672
697,585.8926952000688
698,585.9735972827808
699,586.0518169020261
700,586.1268675888533
701,586.1982460608718
702,586.2654791178885
703,586.3282074249549
704,586.3862737540401
705,586.4397840759689
706,586.4891195569218
707,586.5348861495122
708,586.5777925314414
709,586.618457412407
710,586.6571744036188
711,586.693698030884
712,586.7271341868894
713,586.7560030896823
714,586.7784927133223
715,586.7928580482177
716,586.7978766811298
717,586.7932596864022
718,586.7799352231573
719,586.7601598855946
720,586.737456323842
721,586.716407516096
722,586.7023452791722
723,586.70095630162
724,586.7178130112022
725,586.7578411838242
726,586.8247663985846
727,586.9206190042594
728,587.0453958880776
729,587.1969617366345
730,587.3712246361002
731,587.5625566024254
732,587.7643713677795
733,587.9697394919051
734,588.1719241779015
735,588.3647542113205
736,588.542797949107
737,588.7013531489944
738,588.8363142089603
739,588.9440091016883
740,589.0211038499104
741,589.0646543724804
742,589.0723484611476
743,589.0429272268478
744,588.9767135847505
745,588.8761250419385
746,588.7460319676024
747,588.5938452003634
748,588.4292625843827
749,588.2636595591207
750,588.1091709413377
751,587.9775724400434
752,587.8791184823924
753,587.821516840521
754,587.8092093794536
755,587.8430741806734
756,587.9205788261819
757,588.0363266996263
758,588.1828711121035
759,588.351637769497
760,588.533804877866
761,588.7210399164766
762,588.9060519193837
763,589.0829503829004
764,589.2474038066418
765,589.3965941166581
766,589.5289894838213
767,589.6439946746843
768,589.7415622072485
769,589.8218506157849
770,589.8849982329747
771,589.931044562809
772,589.9599870079779
773,589.9719254780597
774,589.9672341304238
775,589.9467095981698
776,589.911669610668
777,589.8639993614653
778,589.8061472759455
779,589.741053450021
780,589.6719789916718
781,589.6022231129259
782,589.5347618417729
783,589.4718824023727
784,589.4148938338444
785,589.3639683488219
786,589.318128280605
787,589.2753595486565
788,589.2328153243475
789,589.1870743583252
790,589.1344296957514
791,589.0711938327664
792,588.9940093382719
793,588.9001530096524
794,588.7878215173325
795,588.656381879567
796,588.5065567027937
797,588.3405033515321
798,588.1617490931365
799,587.9749577572088
800,587.7855263285072
801,587.5990452391029
802,587.4206933727012
803,587.2546605589235
804,587.1036936682688
805,586.9688518637389
806,586.8495260014809
807,586.7437201523865
808,586.6485255107381
809,586.5606688518637
810,586.4770075952121
811,586.3948747530746
812,586.3122441104995
813,586.2277612358909
814,586.1407225461058
815,586.051058702007
816,585.9593172266032
817,585.8665976851655
818,585.7744045312902
819,585.6844295750288
820,585.598311690738
821,585.5174219989332
822,585.442701859188
823,585.374561697348
824,585.312837478606
825,585.2567937101227
826,585.2051610849809
827,585.1562108830523
828,585.1078870873923
829,585.0580202643763
830,585.004626189182
831,584.9462532326961
832,584.8823014230177
833,584.8132165416666
834,584.7404832327278
835,584.6663992496121
836,584.5936847609743
837,584.5250334885465
838,584.4627217172268
839,584.4083567751007
840,584.3627922751797
841,584.3261878263025
842,584.2981548448205
843,584.2779089157
844,584.2643487988049
845,584.2560107679238
846,584.2509038730209
847,584.2462984698793
848,584.2385848377318
849,584.2233166548751
850,584.1955081913407
851,584.1501859725629
852,584.0831236666833
853,583.9916266657417
854,583.875200849555
855,583.735954488659
856,583.5786376154631
857,583.4103017372233
858,583.2396468140154
859,583.0761883749133
860,582.9293975708727
861,582.8079314647512
862,582.719006352435
863,582.6679192376654
864,582.657717254169
865,582.6890345210295
866,582.7601206815392
867,582.8670561472081
868,583.0041053173297
869,583.1641320424766
870,583.3390049167771
871,583.51994998374
872,583.6978534644234
873,583.8635578574429
874,584.0082095639661
875,584.1236941522997
876,584.2031438122062
877,584.2414448158854
878,584.2356433956817
879,584.1851667417214
880,584.0918311913472
881,583.9596663273018
882,583.7946093551639
883,583.6041150587096
884,583.3967046636841
885,583.1814630447009
886,582.967493201075
887,582.7633485253592
888,582.5764843600299
889,582.4127901102058
890,582.276266694194
891,582.1688961244977
892,582.0907203640745
893,582.0401184927001
894,582.0142468948335
895,582.0095799648676
896,582.0224581789959
897,582.0495287200872
898,582.0879697391433
899,582.13543708121
900,582.189757861263
901,582.2484860584464
902,582.3084861998423
903,582.3657002080272
904,582.4151950812146
905,582.4515137511019
906,582.4692724119052
907,582.4638753298232
908,582.4321799959732
909,582.3729644512423
910,582.2871108751615
911,582.1774890386918
912,582.0485771496211
913,581.9058930995257
914,581.75533097722
915,581.6025095530666
916,581.4522370955284
917,581.3081707131696
918,581.1726993553004
