frame_number,force
0,613.1333600000213
1,613.0787942559904
2,613.027246681738
3,612.9815703936732
4,612.9443217872756
5,612.917677762495
6,612.9033932713733
7,612.9027746477534
8,612.9166469012401
9,612.9453129732474
10,612.9885199248699
11,613.0454411452611
12,613.1146610619568
13,613.1941346248107
14,613.2811043487369
15,613.3719915759839
16,613.4623198937873
17,613.5467484653175
18,613.6192703969712
19,613.6735811073104
20,613.7035816345849
21,613.703967733178
22,613.6708484244044
23,613.602316814987
24,613.4988713166626
25,613.3635867781096
26,613.2019767236043
27,613.0215571479482
28,612.831195878346
29,612.64038279001
30,612.458557327826
31,612.2945748518537
32,612.1563162335752
33,612.0503933043983
34,611.9818938815577
35,611.95413035562
36,611.9683899441123
37,612.0237236810187
38,612.1168402374344
39,612.2421742878623
40,612.3921752307838
41,612.5578208178098
42,612.7293139133827
43,612.8968798272732
44,613.0515586160767
45,613.185891156895
46,613.2944262769995
47,613.3740143338687
48,613.4238865116575
49,613.4455411055251
50,613.4424683429647
51,613.4197477585373
52,613.3835482186623
53,613.3405572619985
54,613.2973786841063
55,613.259962635885
56,613.233141274141
57,613.2203177496087
58,613.2233169171358
59,613.2423818801767
60,613.2762987742381
61,613.3226393204997
62,613.3781090164528
63,613.4389733507389
64,613.5015150536655
65,613.5624633810689
66,613.6193337989025
67,613.670620692489
68,613.7158023005568
69,613.7551574053664
70,613.7894502889213
71,613.8195802642585
72,613.8462885717047
73,613.8699806666658
74,613.8906894985829
75,613.908191131408
76,613.9222708221623
77,613.9331004963711
78,613.9416323081097
79,613.9498748882921
80,613.9609318453267
81,613.978744904088
82,614.0075673166581
83,614.0512645114904
84,614.1125823797122
85,614.1925369428672
86,614.2900579744585
87,614.4019611457551
88,614.5232498781962
89,614.6476923224625
90,614.7685866375737
91,614.8796013614011
92,614.97555702438
93,615.053023034061
94,615.1106492144577
95,615.1492123466354
96,615.1714061796026
97,615.1814293802843
98,615.1844371205208
99,615.1859278793323
100,615.1911400570968
101,615.2045245779016
102,615.229332846848
103,615.2673310267518
104,615.3186471914879
105,615.3817698018789
106,615.4537097513388
107,615.5303065374325
108,615.6066322484137
109,615.6774454392593
110,615.7376577032899
111,615.7827815483947
112,615.8093299238427
113,615.8151403088391
114,615.7995949662455
115,615.763704708291
116,615.7100342133052
117,615.6424810817224
118,615.5659539667761
119,615.4859971562688
120,615.4083840154744
121,615.3386814514892
122,615.2817935813139
123,615.2415188666746
124,615.2201816095954
125,615.2184107540228
126,615.2351278854737
127,615.267770079033
128,615.3127203695235
129,615.365864490031
130,615.423152660642
131,615.4810368141835
132,615.5366905690216
133,615.587993814869
134,615.6333421345746
135,615.6713878189388
136,615.700822577062
137,615.7202815877996
138,615.7283969198746
139,615.723971660906
140,615.7062072871223
141,615.6749097072499
142,615.6306178956879
143,615.5746288445725
144,615.508920263579
145,615.4359841451461
146,615.3585779053549
147,615.2793981336863
148,615.2007088085271
149,615.1239987786071
150,615.0497635394063
151,614.977482079814
152,614.9058038503131
153,614.8329050091351
154,614.7569417559279
155,614.6765238800567
156,614.5911401938756
157,614.5014796953577
158,614.4096062082688
159,614.3189592457303
160,614.2341700624802
161,614.160699035816
162,614.1043158199637
163,614.0704569252971
164,614.0635138307829
165,614.0861363298324
166,614.1386723138692
167,614.2188760842873
168,614.321973558176
169,614.4410815959982
170,614.5678850102291
171,614.6934267297655
172,614.8088819286442
173,614.9062430103413
174,614.9788933545985
175,615.022061395693
176,615.0331284059102
177,615.0117458911895
178,614.959731091276
179,614.8807541969982
180,614.7798824494455
181,614.6630714035598
182,614.5366792673341
183,614.407038988099
184,614.2800801514643
185,614.1609753737093
186,614.0538080949947
187,613.9613044303927
188,613.8846996348731
189,613.8237901356438
190,613.7771627949178
191,613.7425282141201
192,613.7170505024756
193,613.6975825534648
194,613.6807769983442
195,613.6631159601873
196,613.6409488054193
197,613.6106242332112
198,613.5687532283217
199,613.5125670287053
200,613.4402810030059
201,613.3513752405188
202,613.2467472231328
203,613.1287354360792
204,613.0010204609521
205,612.8683904439645
206,612.7363477587432
207,612.6105579525329
208,612.4961915953598
209,612.3972600364971
210,612.3160771783032
211,612.2529728189423
212,612.2063294799265
213,612.1729292407747
214,612.1485144128525
215,612.1284195407356
216,612.1081367426826
217,612.083719079509
218,612.0519819943415
219,612.0105148581366
220,611.9575565179341
221,611.8918101614208
222,611.8122646025838
223,611.718059877052
224,611.6084109132718
225,611.4826027721734
226,611.3400834300263
227,611.1806769587865
228,611.0049095936639
229,610.8143969967176
230,610.6122026047007
231,610.4030587774208
232,610.1933539245483
233,609.9908319443294
234,609.8040166251818
235,609.6414427459198
236,609.5108211580452
237,609.4182701256991
238,609.3677124350274
239,609.3604877616924
240,609.3951905423546
241,609.4677328232941
242,609.5716405219006
243,609.6985909527704
244,609.8391664580201
245,609.9837419331141
246,610.1233810729144
247,610.2506196658073
248,610.3600556324392
249,610.4487080911064
250,610.516131356389
251,610.5642843068865
252,610.5971756698613
253,610.6203310494117
254,610.6401491007744
255,610.6632305536612
256,610.6957763762779
257,610.743145175179
258,610.8096137453803
259,610.8983121669296
260,611.0112548992693
261,611.1493925096969
262,611.3126490489904
263,611.49995324629
264,611.7092944343068
265,611.9378294571977
266,612.182045075135
267,612.4379637749704
268,612.7013801379793
269,612.9681176404682
270,613.2342886537808
271,613.4965277079323
272,613.7521613021487
273,613.9992838838829
274,614.2367312047996
275,614.4639737797934
276,614.6809807906131
277,614.8881112468731
278,615.086065405989
279,615.2758878797794
280,615.4589817656849
281,615.6370846663979
282,615.8121670145692
283,615.9862368811471
284,616.1610738085149
285,616.3379532388723
286,616.5174409376467
287,616.6993248761279
288,616.8827141602574
289,617.0662827676208
290,617.248593540093
291,617.4284234624421
292,617.6050213582271
293,617.7782532377429
294,617.9486227374766
295,618.1171837864331
296,618.2853788779648
297,618.4548414956839
298,618.6272033222907
299,618.8039443808492
300,618.9863076572984
301,619.1752665172486
302,619.3715007305622
303,619.5753316187289
304,619.7865963350966
305,620.0044864371756
306,620.2274086130078
307,620.4529255405533
308,620.6778017070825
309,620.898138786464
310,621.1095729591724
311,621.3075269015493
312,621.4875275004314
313,621.6455856621458
314,621.778597263722
315,621.8847007338966
316,621.9635361511369
317,622.0163766067814
318,622.046116605319
319,622.0571009393154
320,622.0547846141467
321,622.0452471110741
322,622.0346304992152
323,622.02860329355
324,622.031951710611
325,622.0483662539043
326,622.080438791976
327,622.129833896334
328,622.1975618685693
329,622.284262160934
330,622.3904057972908
331,622.5163498191662
332,622.6622251962079
333,622.8276945533831
334,623.0116564518635
335,623.2119925194792
336,623.4254543979954
337,623.6477662529417
338,623.8739728757797
339,624.0990005623748
340,624.3183365127978
341,624.5286962645372
342,624.7285487608873
343,624.918392797649
344,625.1007118330234
345,625.2795795934784
346,625.4599537558839
347,625.6467699618777
348,625.8440109120572
349,626.0539494464197
350,626.2767285802475
351,626.5103477920197
352,626.7510154528921
353,626.9937563507165
354,627.2331490967814
355,627.4640852907977
356,627.6824570885988
357,627.8856839978334
358,628.073001776591
359,628.2454743447659
360,628.4057473989637
361,628.5576155035709
362,628.7054991319509
363,628.8539122172112
364,629.0069576823653
365,629.1678611802716
366,629.3385721137003
367,629.5194978675822
368,629.7094373201766
369,629.9057332368317
370,630.1046092153432
371,630.3016254765348
372,630.4921754628277
373,630.67194211958
374,630.8372408719194
375,630.9852016883203
376,631.1137880402144
377,631.2217065657736
378,631.3082967944551
379,631.3734762465507
380,631.4177642232281
381,631.4423591672758
382,631.4492216800293
383,631.4411092718965
384,631.4215140348839
385,631.3944820422032
386,631.3643408051486
387,631.3353936366428
388,631.3116282055915
389,631.2964492083499
390,631.2924269015025
391,631.3010746184999
392,631.3227086035834
393,631.3564630529648
394,631.4005056928181
395,631.4524292711815
396,631.5097145802507
397,631.5701178144071
398,631.6318657442281
399,631.6936360460969
400,631.7543945112828
401,631.8131952988372
402,631.8690230542577
403,631.9207122648131
404,631.9669551870878
405,632.0063990697893
406,632.0378105467744
407,632.0602475236691
408,632.0731608892937
409,632.0763808442508
410,632.0700070021387
411,632.0542669240165
412,632.029409167085
413,631.9956710253033
414,631.9533308583148
415,631.9028244085158
416,631.8448757284756
417,631.780582406321
418,631.711412395763
419,631.639100879651
420,631.565459557335
421,631.4921270834284
422,631.4203056089045
423,631.3505412820921
424,631.2826098586504
425,631.2155578951986
426,631.1479157856203
427,631.078039989618
428,631.0044852446277
429,630.9262895305286
430,630.8430847616116
431,630.7550052316383
432,630.6624273504704
433,630.5656187291015
434,630.4643921333002
435,630.3578516778389
436,630.2442966785902
437,630.1213220812034
438,629.98612132263
439,629.8359582894983
440,629.6687422580065
441,629.4836211519817
442,629.2814984282785
443,629.0653743566493
444,628.8404200353888
445,628.6137200956302
446,628.3936727011957
447,628.1891072383635
448,628.0082470577767
449,627.8576824116295
450,627.7415231226221
451,627.6608771857088
452,627.6137485280723
453,627.5953649632179
454,627.5988573814763
455,627.616146482491
456,627.6388702436767
457,627.6591974638035
458,627.6704102058508
459,627.6671952138138
460,627.6456517034335
461,627.6030860496084
462,627.5377098500801
463,627.4483745745991
464,627.3344521240676
465,627.1959047509723
466,627.0335025635693
467,626.8490841396373
468,626.6457431621858
469,626.4278522134686
470,626.2008794536603
471,625.9710038984017
472,625.7445862917973
473,625.5275898604835
474,625.3250509033028
475,625.14067325289
476,624.976580396646
477,624.8332243653457
478,624.7094327343352
479,624.6025721278838
480,624.508807563916
481,624.4234335311065
482,624.3412442419192
483,624.2569027234641
484,624.1652717351798
485,624.0616917110478
486,623.942223176589
487,623.8038858387432
488,623.6449027363245
489,623.4649107319607
490,623.2650689735312
491,623.0480087112803
492,622.8176120696464
493,622.5786602140221
494,622.3364294864755
495,622.0963210502238
496,621.8635834394811
497,621.6431417135494
498,621.4395021259877
499,621.2566771216627
500,621.0980845414653
501,620.9664109832304
502,620.8634652931058
503,620.7900584784952
504,620.7459318315563
505,620.7297373738362
506,620.7390683313688
507,620.7705377985126
508,620.8199033488238
509,620.8822356495607
510,620.9521300547582
511,621.023954088231
512,621.0921117576275
513,621.1513005668235
514,621.196744432427
515,621.2243992695895
516,621.2311396234567
517,621.2149347848151
518,621.1750058089987
519,621.1119340830367
520,621.0276893251876
521,620.9255590270999
522,620.8099704876838
523,620.6861936094107
524,620.5599146133924
525,620.4366957526292
526,620.3213835424222
527,620.2175727044637
528,620.1272407819373
529,620.0506315613322
530,619.9864073235863
531,619.9320329105911
532,619.8843091540707
533,619.8399519556688
534,619.7961269783818
535,619.7508885639994
536,619.7035030374732
537,619.6546328157712
538,619.6063284756876
539,619.5617682548669
540,619.5247330224694
541,619.4988910821867
542,619.4870396790312
543,619.4904699346558
544,619.5085835749436
545,619.5388170685563
546,619.5768568537053
547,619.6170793472342
548,619.6531235477295
549,619.6785034696212
550,619.6871924984524
551,619.6741422755942
552,619.6357080594153
553,619.5699422125637
554,619.4767147111127
555,619.3576406366609
556,619.2158287074021
557,619.0554910287375
558,618.8814639886424
559,618.6986927081399
560,618.5117385862533
561,618.3243803558915
562,618.139380377131
563,617.9584662129779
564,617.7825313453645
565,617.612003268345
566,617.4472854169143
567,617.2891673104186
568,617.1391165340524
569,616.9994066378065
570,616.8730785993339
571,616.7637609130599
572,616.6753765782869
573,616.6117576514946
574,616.5761942044377
575,616.5709698308938
576,616.5969572538587
577,616.6533458304
578,616.7375555800527
579,616.8453720393172
580,616.9713042865396
581,617.1091137384562
582,617.2524010970092
583,617.39511056346
584,617.5318355505775
585,617.6578782205698
586,617.769097091239
587,617.8616437968514
588,617.9317251449206
589,617.9755233296469
590,617.9893617304095
591,617.9701234572822
592,617.9158434258048
593,617.8263359877856
594,617.7037045085004
595,617.5526029824056
596,617.3801690017355
597,617.1956061698553
598,617.0094542925208
599,616.8326447663661
600,616.6754826166144
601,616.5467037760374
602,616.4527243956013
603,616.3971531721353
604,616.3806011218284
605,616.4007940595799
606,616.4529573328053
607,616.5304013335217
608,616.6252096403944
609,616.7289347041651
610,616.833232172145
611,616.9303946175698
612,617.0137673136876
613,617.0780453645121
614,617.1194666970533
615,617.1359243905864
616,617.1270165341771
617,617.0940317693704
618,617.0398448918681
619,616.9686860121074
620,616.8857607152017
621,616.7967367991581
622,616.7071607483056
623,616.6218995669058
624,616.5446987693623
625,616.4779046183445
626,616.4223476867292
627,616.3773626717035
628,616.3409336562861
629,616.309974571528
630,616.2807466353768
631,616.2493746893091
632,616.2123827033141
633,616.1671583517509
634,616.1122825309201
635,616.0476986816153
636,615.9747232631415
637,615.8959045961897
638,615.8147330786566
639,615.7352105732147
640,615.6613105507658
641,615.5963966382117
642,615.5427015828368
643,615.5009834451538
644,615.4704525509586
645,615.4490037731742
646,615.4337205983649
647,615.4215581450222
648,615.4100633092758
649,615.3979661531041
650,615.3855026296495
651,615.3744030021659
652,615.3675702328311
653,615.3685442797712
654,615.3808831647374
655,615.4075872537716
656,615.4506613393676
657,615.51086852454
658,615.5876909388678
659,615.6794729508649
660,615.7836851790998
661,615.8972291232493
662,616.0167144713711
663,616.138673923753
664,616.2597169480191
665,616.3766532675337
666,616.4866218015392
667,616.5872284663072
668,616.6766529476092
669,616.7536787853973
670,616.8176414570839
671,616.8683331351405
672,616.9059121657499
673,616.9308424357325
674,616.9438566670087
675,616.945916509814
676,616.9381386584433
677,616.9216710001323
678,616.897531317922
679,616.8664501927044
680,616.8287689967796
681,616.7844234091981
682,616.733010969505
683,616.6739252069758
684,616.606539620914
685,616.5304189097441
686,616.4455118398251
687,616.3522600370221
688,616.251568335923
689,616.1446308846292
690,616.0326701424456
691,615.9166916415276
692,615.7973640431559
693,615.6750953367673
694,615.5503041790694
695,615.4238069457009
696,615.2971846858476
697,615.1729859961329
698,615.0546786216181
699,614.9463658501884
700,614.8523745401181
701,614.7768475966606
702,614.7234340153476
703,614.6951020660795
704,614.6940467043904
705,614.7216485953996
706,614.7784694941176
707,614.8643026748183
708,614.9783025381544
709,615.1191958683438
710,615.2855481178241
711,615.4760286700993
712,615.6895975615182
713,615.9255450536316
714,616.1833618860812
715,616.4624758212916
716,616.7619287471507
717,617.080080236266
718,617.4144142301318
719,617.761499998977
720,618.1171197193933
721,618.4765323239141
722,618.8348135221992
723,619.1872063038858
724,619.5294293643791
725,619.8579106702058
726,620.1699350355059
727,620.4637137634381
728,620.7383900384369
729,620.9939842462501
730,621.2312756703882
731,621.4516227359367
732,621.6567326615797
733,621.8483935046235
734,622.0281878958593
735,622.1972255962933
736,622.3559454561478
737,622.5040306287477
738,622.6404597537694
739,622.7636951291622
740,622.8719900499716
741,622.9637753738263
742,623.0380599222083
743,623.0947663522112
744,623.1349397237881
745,623.1608033990562
746,623.1756704102066
747,623.1837299263636
748,623.1897253974721
749,623.1985458041391
750,623.2147725514178
751,623.2422465884671
752,623.2837269098245
753,623.3406996425268
754,623.4133665546949
755,623.5007947524111
756,623.6011612369075
757,623.7120047653776
758,623.8304217171674
759,623.9531992791956
760,624.0769268639908
761,624.1981336249604
762,624.3134735663226
763,624.4199457024847
764,624.5151066034924
765,624.5972139252113
766,624.6652533960278
767,624.718855220356
768,624.7581623604592
769,624.7837266228654
770,624.796475841959
771,624.7977493878498
772,624.789364944429
773,624.773662987841
774,624.7534778460478
775,624.7320039746737
776,624.712554167921
777,624.6982323583312
778,624.6915612712215
779,624.6941151889961
780,624.7062193122563
781,624.7267928208506
782,624.7534132667535
783,624.7826397755911
784,624.8105556553435
785,624.8334168557958
786,624.8482647351456
787,624.8533892646462
788,624.8485816270946
789,624.8351601134983
790,624.8157861635667
791,624.7941163576185
792,624.7743556019608
793,624.7607752942821
794,624.7572415232361
795,624.7667827124498
796,624.7912279547522
797,624.8309550227434
798,624.8847801130223
799,624.949999899878
800,625.0225762000968
801,625.0974429260399
802,625.1689115746705
803,625.2311501845937
804,625.2787072565563
805,625.3070431207318
806,625.3130144687296
807,625.295238463134
808,625.2542592130653
809,625.192468645187
810,625.1137881896458
811,625.0231678698184
812,624.9259859328974
813,624.8274429505888
814,624.7320510676482
815,624.6433064945212
816,624.5635774449829
817,624.4941570258169
818,624.4353754218879
819,624.3866740829292
820,624.3466045541406
821,624.3127838226675
822,624.2818766356638
823,624.2496736983361
824,624.2113122467367
825,624.1616596628446
826,624.0958526089074
827,624.0099481883559
828,623.9015986013225
829,623.7706192207967
830,623.6193080934739
831,623.4524105502691
832,623.2766970352484
833,623.1002059455259
834,622.931268332857
835,622.777467026497
836,622.644689175572
837,622.5364080907657
838,622.4532841192811
839,622.3931247016413
840,622.3512046764552
841,622.3209104336369
842,622.2946214979847
843,622.2646905538143
844,622.2243588900703
845,622.1684681255214
846,622.0938882011253
847,621.9996456874402
848,621.8867853364094
849,621.7580295931231
850,621.6173162287589
851,621.4692877815756
852,621.3187818980966
853,621.1703538343528
854,621.0278716278665
855,620.8942408696057
856,620.7712969993077
857,620.6598459132778
858,620.5597876499113
859,620.4702595976892
860,620.3897699427002
861,620.3163280722481
862,620.2476044150421
863,620.181162818153
864,620.1147915125455
865,620.0469071678122
866,619.9769384501665
867,619.9055515032402
868,619.8345979206961
869,619.7667504185421
870,619.7049028532965
871,619.6514921267006
872,619.6079162011099
873,619.574181127373
874,619.548840089707
875,619.5292186847611
876,619.5118694082993
877,619.4931625861701
878,619.4698937138832
879,619.4397793853607
880,619.401744179381
881,619.3559618995932
882,619.3036779651752
883,619.2468851932888
884,619.1879448072991
885,619.1292349836391
886,619.0728766849683
887,619.0205484671908
888,618.9733785363472
889,618.9319049099145
890,618.8961155007996
891,618.8655911347687
892,618.8397492257649
893,618.8181338036802
894,618.8006621902815
895,618.7877490430988
896,618.7802758798381
897,618.7794328020249
898,618.7865040181397
899,618.8026805254225
900,618.8289560834879
901,618.8661083987687
902,618.9147134786774
903,618.9751185980244
904,619.047321698888
905,619.1307582914847
906,619.2240534564353
907,619.3248293388293
908,619.4296483104415
909,619.5341231249186
910,619.6331726213407
911,619.7213792098065
912,619.7934100858059
913,619.8444702974444
914,619.8707502386168
915,619.8698228443258
916,619.8409430087997
917,619.7851994904283
