frame_number,force
0,692.0057300066967
1,692.108722915133
2,692.2114074766943
3,692.3134776667775
4,692.4146320693176
5,692.5145760932821
6,692.6130240894834
7,692.7097013423811
8,692.8043459163217
9,692.8967103399267
10,692.9865631154819
11,693.07369004241
12,693.1578953462865
13,693.2390026081233
14,693.316855492516
15,693.3913182769646
16,693.4622761877313
17,693.5296355497437
18,693.5933237591487
19,693.6532890875426
20,693.7095003274894
21,693.7619462900705
22,693.810635166494
23,693.8555937667153
24,693.8968666484686
25,693.9345151502355
26,693.9686163416808
27,693.9992619052111
28,694.0265569626623
29,694.0506188615524
30,694.0715759356365
31,694.0895662544569
32,694.1047363758605
33,694.1172401137669
34,694.1272373311618
35,694.1348927662367
36,694.1403748985008
37,694.1438548615175
38,694.1455054090258
39,694.1454999407811
40,694.1440115930421
41,694.1412123962392
42,694.1372724992351
43,694.1323594560833
44,694.1266375680766
45,694.1202672723423
46,694.1134045688372
47,694.1062004795368
48,694.0988005355789
49,694.0913442896613
50,694.0839648526611
51,694.0767884555805
52,694.0699340400663
53,694.0635128821733
54,694.0576282544374
55,694.0523751308142
56,694.0478399378179
57,694.0441003534312
58,694.0412251536038
59,694.0392741051608
60,694.0382979040432
61,694.0383381586804
62,694.0394274192645
63,694.0415892542007
64,694.0448383747091
65,694.049180807355
66,694.0546141123375
67,694.0611276432044
68,694.0687028419184
69,694.0773135622416
70,694.0869264142408
71,694.0975011232371
72,694.1089908976546
73,694.1213428019349
74,694.1344981326818
75,694.1483927977627
76,694.1629576985549
77,694.1781191149432
78,694.1937990918282
79,694.2099158255267
80,694.226384048743
81,694.2431154134551
82,694.2600188717281
83,694.2770010548662
84,694.2939666512365
85,694.3108187822742
86,694.3274593747274
87,694.3437895257431
88,694.3597098566743
89,694.3751208517069
90,694.3899231783628
91,694.4040179885097
92,694.4173072006395
93,694.429693766438
94,694.4410819264959
95,694.4513774612119
96,694.4604879437409
97,694.4683230022126
98,694.4747945981048
99,694.4798173266938
100,694.4833087445369
101,694.4851897283253
102,694.4853848686339
103,694.4838229001274
104,694.4804371665762
105,694.4751661155982
106,694.467953815308
107,694.4587504831338
108,694.4475130159727
109,694.4342055110144
110,694.4187997679584
111,694.4012757650872
112,694.3816221029302
113,694.3598364098746
114,694.3359257041171
115,694.3099067058113
116,694.2818060925038
117,694.2516606906271
118,694.2195175963366
119,694.1854342203137
120,694.1494782530942
121,694.111727549762
122,694.0722699348959
123,694.0312029298589
124,693.9886334048065
125,693.9446771577333
126,693.8994584231152
127,693.8531093134609
128,693.805769198023
129,693.7575840233153
130,693.7087055793655
131,693.6592907140491
132,693.6095004965065
133,693.5594993306066
134,693.5094540208554
135,693.4595327955296
136,693.4099042946835
137,693.3607365337364
138,693.3121958561381
139,693.2644458905539
140,693.2176465287032
141,693.1719529391521
142,693.1275146299618
143,693.0844745695982
144,693.04296837178
145,693.0031235468336
146,692.9650588202669
147,692.9288835189436
148,692.8946970261071
149,692.8625883075957
150,692.8326355120593
151,692.8049056476445
152,692.7794543368677
153,692.7563256506367
154,692.7355520219127
155,692.7171542393505
156,692.7011415210584
157,692.6875116678439
158,692.6762512940458
159,692.6673361330844
160,692.6607314146131
161,692.6563923101794
162,692.6542644442437
163,692.6542844674382
164,692.6563806890877
165,692.6604737654528
166,692.6664774381484
167,692.674299314076
168,692.6838416751314
169,692.6950023038596
170,692.7076753105687
171,692.7217519482011
172,692.7371214030259
173,692.7536715510086
174,692.7712896711259
175,692.7898631082035
176,692.8092798793197
177,692.8294292191274
178,692.8502020605653
179,692.8714914489543
180,692.8931928896478
181,692.9152046316924
182,692.9374278917746
183,692.959767023929
184,692.9821296409327
185,693.0044266928348
186,693.0265725069066
187,693.0484847920518
188,693.0700846100099
189,693.0912963160741
190,693.1120474734945
191,693.1322687471752
192,693.1518937822927
193,693.1708590718667
194,693.1891038154638
195,693.2065697706724
196,693.2232011001767
197,693.2389442194905
198,693.253747652782
199,693.2675619060082
200,693.2803393671884
201,693.2920342428372
202,693.3026025377507
203,693.312002082932
204,693.3201926133382
205,693.3271358932662
206,693.3327958832823
207,693.3371389397067
208,693.340134036454
209,693.341752999546
210,693.3419707463378
211,693.3407655233923
212,693.3381191382377
213,693.3340171809641
214,693.3284492323099
215,693.3214090557494
216,693.3128947719084
217,693.3029090141387
218,693.2914590642059
219,693.2785569670217
220,693.2642196235056
221,693.248468861067
222,693.2313314815389
223,693.2128392862318
224,693.1930290770481
225,693.1719426318059
226,693.1496266516098
227,693.1261326784003
228,693.1015169814876
229,693.0758404126962
230,693.0491682304992
231,693.02156989413
232,692.9931188292076
233,692.9638921670304
234,692.933970460059
235,692.9034373757511
236,692.8723793699913
237,692.8408853406936
238,692.8090462623103
239,692.7769548027358
240,692.7447049250743
241,692.7123914778239
242,692.6801097778506
243,692.647955190543
244,692.6160227105314
245,692.5844065447392
246,692.5531996978877
247,692.5224935592427
248,692.4923774885569
249,692.4629383990994
250,692.4342603364315
251,692.4064240528667
252,692.3795065787666
253,692.3535807928936
254,692.3287149950324
255,692.3049724848928
256,692.2824111516708
257,692.2610830789291
258,692.2410341702167
259,692.2223038021732
260,692.2049245129841
261,692.1889217339908
262,692.1743135708368
263,692.1611106386985
264,692.1493159550755
265,692.1389248934719
266,692.1299252013317
267,692.1222970852332
268,692.1160133655893
269,692.1110397021216
270,692.1073348903068
271,692.1048512280769
272,692.1035349511052
273,692.1033267334209
274,692.1041622476966
275,692.1059727768738
276,692.1086858663891
277,692.1122260044071
278,692.1165153161035
279,692.121474257028
280,692.1270222899944
281,692.1330785302913
282,692.13956234566
283,692.1463939001245
284,692.1534946337463
285,692.1607876734712
286,692.1681981734218
287,692.1756535860529
288,692.1830838683256
289,692.1904216295598
290,692.1976022299397
291,692.2045638405006
292,692.2112474766298
293,692.2175970179239
294,692.2235592278449
295,692.2290837865813
296,692.2341233490868
297,692.2386336370733
298,692.2425735693713
299,692.2459054306973
300,692.2485950753293
301,692.2506121595384
302,692.2519303947472
303,692.2525278122071
304,692.2523870293683
305,692.2514955077112
306,692.2498457914032
307,692.2474357158394
308,692.2442685751145
309,692.2403532379735
310,692.2357042031188
311,692.2303415871093
312,692.2242910411173
313,692.2175835956343
314,692.2102554342473
315,692.2023475987847
316,692.1939056288878
317,692.1849791400467
318,692.175621345909
319,692.1658885331143
320,692.1558394992043
321,692.1455349655978
322,692.1350369782431
323,692.1244083085644
324,692.1137118666429
325,692.1030101371731
326,692.0923646469256
327,692.0818354706246
328,692.0714807805036
329,692.0613564431999
330,692.0515156659652
331,692.0420086926466
332,692.0328825487646
333,692.0241808341439
334,692.0159435606258
335,692.0082070313829
336,692.0010037575054
337,691.9943624070695
338,691.9883077819197
339,691.982860818024
340,691.978038606401
341,691.9738544326796
342,691.9703178336354
343,691.9674346686984
344,691.9652072044953
345,691.9636342117471
346,691.9627110758821
347,691.9624299244955
348,691.9627797755846
349,691.9637467102699
350,691.9653140728634
351,691.9674627000015
352,691.9701711791981
353,691.9734161355482
354,691.9771725435365
355,691.9814140594058
356,691.9861133686007
357,691.9912425421189
358,691.9967733946121
359,692.0026778359738
360,692.0089282076933
361,692.0154975960324
362,692.0223601161106
363,692.0294911638663
364,692.0368676359025
365,692.0444681194185
366,692.0522730551758
367,692.0602648758988
368,692.0684281214417
369,692.0767495309759
370,692.0852181113441
371,692.0938251796244
372,692.1025643776168
373,692.1114316568668
374,692.1204252341871
375,692.1295455182317
376,692.1387950074818
377,692.1481781599725
378,692.1577012356465
379,692.1673721128465
380,692.1772000807435
381,692.1871956097553
382,692.1973701026988
383,692.2077356305042
384,692.2183046571926
385,692.2290897586521
386,692.2401033381868
387,692.2513573395843
388,692.2628629570977
389,692.2746303421803
390,692.2866683084947
391,692.2989840382837
392,692.3115827937896
393,692.3244676373735
394,692.337639164284
395,692.3510952529647
396,692.3648308386403
397,692.3788377157662
398,692.3931043735349
399,692.4076158666132
400,692.4223537216897
401,692.4372958800989
402,692.4524166775822
403,692.4676868631701
404,692.4830736595051
405,692.4985408665777
406,692.5140490099765
407,692.5295555334715
408,692.545015034316
409,692.5603795386066
410,692.5755988139018
411,692.5906207169735
412,692.605391575352
413,692.619856601577
414,692.63396033866
415,692.6476471343769
416,692.6608616408897
417,692.6735493350898
418,692.6856570541589
419,692.6971335401124
420,692.7079299864063
421,692.7180005789478
422,692.727303022936
423,692.7357990460414
424,692.7434548680903
425,692.7502416281881
426,692.7561357620906
427,692.7611193250489
428,692.765180257575
429,692.7683125930065
430,692.7705166063101
431,692.7717989037947
432,692.7721724540191
433,692.7716565615918
434,692.7702767874741
435,692.7680648211845
436,692.7650583114133
437,692.7613006617872
438,692.7568407978262
439,692.7517329097165
440,692.7460361737018
441,692.7398144529438
442,692.7331359769136
443,692.7260729971816
444,692.7187014171996
445,692.7111003941211
446,692.7033519113945
447,692.6955403214203
448,692.6877518582689
449,692.6800741217851
450,692.6725955364749
451,692.6654047907713
452,692.6585902636126
453,692.6522394452811
454,692.6464383585129
455,692.6412709848071
456,692.6368187002615
457,692.6331597254907
458,692.6303685950277
459,692.6285156519705
460,692.6276665723648
461,692.6278819211598
462,692.6292167391
463,692.631720159045
464,692.6354350511922
465,692.6403976987197
466,692.6466375073151
467,692.6541767531425
468,692.6630303740228
469,692.6732058083717
470,692.6847028860486
471,692.6975137746838
472,692.7116229840758
473,692.7270074298158
474,692.7436365555229
475,692.7614725113219
476,692.7804703849628
477,692.8005784816211
478,692.8217386485243
479,692.8438866402814
480,692.8669525199061
481,692.8908610895953
482,692.9155323450452
483,692.9408819475445
484,692.9668217089395
485,692.9932600854004
486,693.0201026763906
487,693.0472527250957
488,693.0746116159041
489,693.1020793639235
490,693.1295550915663
491,693.1569374878078
492,693.1841252462315
493,693.2110174782451
494,693.2375140981949
495,693.263516177828
496,693.2889262687394
497,693.3136486930994
498,693.3375898049654
499,693.360658226443
500,693.3827650644594
501,693.4038241147132
502,693.4237520594245
503,693.4424686648348
504,693.4598969831671
505,693.4759635623734
506,693.4905986657656
507,693.5037365023261
508,693.5153154669875
509,693.5252783887838
510,693.5335727838019
511,693.540151109228
512,693.5449710146205
513,693.5479955875181
514,693.5491935924774
515,693.5485397041343
516,693.5460147346685
517,693.5416058547578
518,693.5353068060854
519,693.5271181028535
520,693.517047218937
521,693.5051087562474
522,693.4913245890247
523,693.4757239782155
524,693.458343649512
525,693.4392278280051
526,693.418428222183
527,693.3960039506234
528,693.37202140615
529,693.346554054083
530,693.3196821629948
531,693.2914924679189
532,693.262077767444
533,693.2315364579357
534,693.1999720103819
535,693.167492397764
536,693.1342094827484
537,693.100238376496
538,693.0656967797569
539,693.0307043174922
540,692.9953818779898
541,692.9598509665965
542,692.9242330828855
543,692.88864912852
544,692.8532188513201
545,692.8180603290192
546,692.7832894941739
547,692.7490197001405
548,692.7153613271557
549,692.6824214270941
550,692.6503034050577
551,692.6191067354133
552,692.5889267093372
553,692.5598542106194
554,692.5319755165328
555,692.505372120916
556,692.4801205771568
557,692.456292359313
558,692.4339537397649
559,692.4131656812656
560,692.3939837403353
561,692.3764579783312
562,692.3606328766066
563,692.3465472527454
564,692.3342341757559
565,692.3237208796429
566,692.3150286769503
567,692.3081728757079
568,692.3031627036116
569,692.3000012422314
570,692.2986853726543
571,692.2992057333029
572,692.3015466909169
573,692.3056863264
574,692.3115964378799
575,692.3192425637703
576,692.3285840289487
577,692.3395740174498
578,692.3521596751177
579,692.366282245281
580,692.3818772396926
581,692.3988746457709
582,692.4171991695675
583,692.4367705122617
584,692.4575036770295
585,692.4793093030614
586,692.5020940237365
587,692.5257608462562
588,692.5502095508301
589,692.575337109014
590,692.6010381221621
591,692.6272052811922
592,692.6537298479551
593,692.6805021571789
594,692.7074121366788
595,692.7343498423674
596,692.761206003601
597,692.7878725735358
598,692.8142432784352
599,692.8402141595706
600,692.8656841017445
601,692.8905553434902
602,692.9147339652267
603,692.9381303526774
604,692.9606596334451
605,692.9822420849142
606,693.0028035120122
607,693.0222755940406
608,693.0405962007109
609,693.0577096784446
610,693.0735671087068
611,693.0881265403435
612,693.1013531975112
613,693.1132196640555
614,693.1237060443384
615,693.1328000993346
616,693.1404973552644
617,693.1468011807049
618,693.1517228274978
619,693.155281430627
620,693.1575039623729
621,693.1584251368214
622,693.1580872624078
623,693.1565400419624
624,693.1538403210095
625,693.1500517857991
626,693.1452446129766
627,693.1394950728156
628,693.1328850874582
629,693.125501745155
630,693.1174367716651
631,693.1087859605709
632,693.099648564424
633,693.0901266482147
634,693.0803244064449
635,693.0703474457704
636,693.0603020365795
637,693.050294338484
638,693.0404296062546
639,693.0308113840572
640,693.0215406967777
641,693.0127152479231
642,693.0044286343264
643,692.9967695884997
644,692.9898212593243
645,692.9836605404795
646,692.9783574539958
647,692.9739745944222
648,692.9705666377049
649,692.9681799178422
650,692.9668520735722
651,692.9666117669093
652,692.9674784751222
653,692.9694623574242
654,692.9725641971997
655,692.9767754201707
656,692.9820781884731
657,692.9884455701706
658,692.9958417833171
659,693.0042225130634
660,693.0135352990384
661,693.0237199884608
662,693.0347092489498
663,693.0464291344115
664,693.0587996974663
665,693.0717356421226
666,693.0851470105848
667,693.0989398982581
668,693.1130171912138
669,693.1272793204822
670,693.1416250274489
671,693.1559521343105
672,693.1701583129961
673,693.1841418452891
674,693.1978023665383
675,693.211041585736
676,693.2237639759647
677,693.235877431003
678,693.2472938857862
679,693.2579298999848
680,693.267707204714
681,693.2765532120702
682,693.2844014861611
683,693.291192173455
684,693.2968723900932
685,693.3013965639757
686,693.3047267294265
687,693.3068327721658
688,693.307692622458
689,693.3072923946199
690,693.30562647107
691,693.3026975284375
692,693.298516502202
693,693.2931024859996
694,693.2864825630531
695,693.2786915698703
696,693.2697717950558
697,693.2597726177514
698,693.2487500908671
699,693.2367664743018
700,693.223889722862
701,693.2101929327055
702,693.1957537491904
703,693.1806537384172
704,693.1649777247832
705,693.1488130976257
706,693.1322490912883
707,693.115376044422
708,693.0982846457096
709,693.0810651742498
710,693.063806743469
711,693.0465965576077
712,693.0295191895709
713,693.0126558884033
714,692.9960839241711
715,692.9798759776907
716,692.9640995821757
717,692.9488166234087
718,692.9340829045043
719,692.9199477806796
720,692.9064538685888
721,692.893636833861
722,692.881525259638
723,692.8701405977297
724,692.8594972019165
725,692.8496024399175
726,692.8404568775396
727,692.8320545265158
728,692.8243831468162
729,692.817424594496
730,692.8111552072171
731,692.8055462213326
732,692.8005642162884
733,692.7961715833779
734,692.7923270162105
735,692.7889860197364
736,692.7861014338711
737,692.7836239674435
738,692.7815027385401
739,692.7796858176713
740,692.7781207698877
741,692.7767551910034
742,692.7755372319615
743,692.7744161047862
744,692.7733425639506
745,692.7722693581367
746,692.7711516485521
747,692.7699473906054
748,692.7686176757568
749,692.7671270300572
750,692.7654436656798
751,692.7635396817795
752,692.7613912112112
753,692.7589785102497
754,692.7562859901108
755,692.7533021919603
756,692.7500197105163
757,692.7464350741471
758,692.7425485908877
759,692.73836417004
760,692.7338891281518
761,692.729133986184
762,692.7241122619641
763,692.7188402596389
764,692.7133368566317
765,692.707623288539
766,692.7017229329697
767,692.6956610940978
768,692.689464790277
769,692.6831625472489
770,692.676784199363
771,692.670360701065
772,692.663923950842
773,692.6575066298286
774,692.6511420570696
775,692.6448640627509
776,692.638706879563
777,692.6327050509673
778,692.6268933538787
779,692.6213067325579
780,692.6159802404593
781,692.6109489870958
782,692.6062480873476
783,692.6019126111846
784,692.5979775326861
785,692.5944776783723
786,692.5914476755281
787,692.5889219008715
788,692.5869344289125
789,692.585518978608
790,692.5847088569473
791,692.5845368983894
792,692.5850353988038
793,692.5862360416937
794,692.5881698136199
795,692.5908669054481
796,692.5943565964704
797,692.5986671196098
798,692.6038255076638
799,692.6098574222727
800,692.6167869682376
801,692.6246364956953
802,692.6334263921251
803,692.6431748661705
804,692.6538977262173
805,692.6656081582405
806,692.6783165088431
807,692.692030079935
808,692.7067529407811
809,692.7224857615646
810,692.739225671022
811,692.7569661397436
812,692.7756968902996
813,692.7954038350267
814,692.8160690417203
815,692.8376707267025
816,692.8601832739125
817,692.8835772778247
818,692.9078196072243
819,692.9328734865161
820,692.9586985916052
821,692.9852511583322
822,693.0124841023901
823,693.0403471500465
824,693.06878697889
825,693.0977473679328
826,693.127169357385
827,693.1569914199282
828,693.1871496463308
829,693.217577948232
830,693.2482082802758
831,693.278970883019
832,693.3097945471353
833,693.3406068980303
834,693.3713346981208
835,693.4019041625671
836,693.4322412842283
837,693.4622721650153
838,693.4919233525607
839,693.5211221822595
840,693.549797124992
841,693.5778781404609
842,693.6052970355298
843,693.6319878266422
844,693.6578871052515
845,693.682934404651
846,693.7070725654614
847,693.7302480956623
848,693.7524115199774
849,693.7735177129696
850,693.7935262105109
851,693.8124014952109
852,693.8301132523991
853,693.8466365938837
854,693.8619522467588
855,693.8760467040837
856,693.8889123336857
857,693.9005474410899
858,693.9109562828514
859,693.9201490272402
860,693.9281416599588
861,693.9349558331645
862,693.9406186568866
863,693.9451624333644
864,693.948624336684
865,693.9510460419093
866,693.9524733095924
867,693.9529555330063
868,693.9525452561713
869,693.9512976704838
870,693.9492700970161
871,693.9465214610217
872,693.9431117646141
873,693.9391015623424
874,693.9345514424522
875,693.9295215147489
876,693.9240709049258
877,693.9182572553509
878,693.9121362338188
879,693.9057610542691
880,693.8991820158798
881,693.8924460683027
882,693.88559641097
883,693.8786721338687
884,693.8717079064916
885,693.8647337211108
886,693.8577746959353
887,693.8508509427157
888,693.843977501885
889,693.8371643467452
890,693.8304164569328
891,693.823733960317
892,693.8171123413064
893,693.8105427122136
894,693.8040121431911
895,693.7975040455005
896,693.7909986026053
897,693.7844732438931
898,693.7779031566586
899,693.7712618325971
900,693.7645216447959
901,693.7576544501168
902,693.7506322104637
903,693.7434276250341
904,693.7360147645526
905,693.7283696979925
906,693.7204711023546
907,693.7123008462893
908,693.7038445387406
909,693.6950920348379
910,693.6860378930021
911,693.6766817790016
912,693.667028813902
913,693.6570898634776
914,693.646881766771
915,693.6364275009392
916,693.6257562785206
917,693.6149035725348
