frame_number,force
0,727.2255200070578
1,727.155658600055
2,727.0858695824368
3,727.0162251664792
4,726.9467972078276
5,726.8776570220955
6,726.8088751979267
7,726.7405214088803
8,726.6726642278225
9,726.6053709479751
10,726.5387074149619
11,726.4727378743635
12,726.4075248390748
13,726.3431289797236
14,726.2796090397848
15,726.2170217753595
16,726.1554219181915
17,726.094862159257
18,726.0353931489831
19,725.9770635089995
20,725.9199198498835
21,725.8640067899506
22,725.8093669715322
23,725.7560410728308
24,725.7040678149827
25,725.6534839651449
26,725.6043243370754
27,725.5566217905637
28,725.510407230147
29,725.4657096022709
30,725.4225558893743
31,725.380971099985
32,725.3409782553352
33,725.3025983740107
34,725.2658504560296
35,725.2307514670197
36,725.1973163226206
37,725.1655578729881
38,725.1354868870087
39,725.1071120358004
40,725.080439875781
41,725.055474832866
42,725.0322191905941
43,725.0106730860755
44,724.9908345186828
45,724.9726993767409
46,724.9562614862377
47,724.9415126828737
48,724.9284429057808
49,724.9170403093426
50,724.9072913893121
51,724.8991811205037
52,724.8926931048561
53,724.887809729837
54,724.8845123377002
55,724.8827814061686
56,724.8825967407153
57,724.8839376773487
58,724.8867832927266
59,724.8911126162825
60,724.896904837382
61,724.9041394991391
62,724.9127966696428
63,724.9228570816392
64,724.9343022334147
65,724.9471144461917
66,724.961276876143
67,724.9767734814988
68,724.993588946494
69,725.0117085640371
70,725.0311180788377
71,725.0518034931629
72,725.073750838309
73,725.0969459156553
74,725.121374011521
75,725.1470195901385
76,725.1738659691492
77,725.2018949824206
78,725.2310866360856
79,725.2614187655446
80,725.2928667028942
81,725.3254029647783
82,725.3589969698876
83,725.3936147941478
84,725.4292189708823
85,725.4657683432068
86,725.5032179762369
87,725.5415191364622
88,725.5806193440966
89,725.6204625015025
90,725.6609890977581
91,725.7021364866521
92,725.7438392327807
93,725.7860295179281
94,725.8286375980055
95,725.8715923000634
96,725.9148215491169
97,725.9582529149005
98,726.0018141684437
99,726.0454338375102
100,726.0890417493016
101,726.1325695492562
102,726.1759511863797
103,726.2191233577112
104,726.2620259066015
105,726.3046021711319
106,726.3467992801703
107,726.3885683953878
108,726.4298648983331
109,726.4706485227046
110,726.5108834334441
111,726.5505382561192
112,726.5895860616831
113,726.6280043123836
114,726.6657747741527
115,726.7028833998972
116,726.7393201875217
117,726.7750790164887
118,726.8101574668727
119,726.8445566246395
120,726.8782808759738
121,726.911337692151
122,726.9437374054896
123,726.9754929770245
124,727.0066197575999
125,727.0371352452423
126,727.0670588420509
127,727.0964116131496
128,727.1252160490168
129,727.1534958314604
130,727.1812756028696
131,727.2085807380654
132,727.2354371183271
133,727.2618709081113
134,727.2879083360409
135,727.313575481985
136,727.3388980712907
137,727.3639012764411
138,727.3886095268014
139,727.4130463287277
140,727.437234099999
141,727.4611940233202
142,727.4849459234044
143,727.5085081710242
144,727.5318976153185
145,727.5551295428253
146,727.5782176590942
147,727.6011740872934
148,727.624009378286
149,727.6467325279306
150,727.6693509994997
151,727.6918707516431
152,727.7142962743026
153,727.7366306354645
154,727.758875540625
155,727.7810314052564
156,727.8030974393324
157,727.8250717423515
158,727.8469514070928
159,727.8687326302353
160,727.8904108276411
161,727.9119807515038
162,727.9334366061695
163,727.9547721598667
164,727.9759808509976
165,727.9970558893933
166,728.0179903541892
167,728.0387772904027
168,728.0594098062127
169,728.0798811726789
170,728.1001849271547
171,728.1203149809188
172,728.1402657307566
173,728.160032173449
174,728.1796100214152
175,728.1989958172302
176,728.2181870445465
177,728.2371822329154
178,728.2559810539251
179,728.2745844060365
180,728.292994485553
181,728.3112148409841
182,728.3292504073352
183,728.3471075158803
184,728.3647938746185
185,728.382318515605
186,728.3996917077252
187,728.416924836672
188,728.434030257163
189,728.4510211249459
190,728.467911217037
191,728.4847147477539
192,728.5014461862914
193,728.5181200798903
194,728.5347508854431
195,728.551352811713
196,728.5679396742759
197,728.5845247656218
198,728.6011207429815
199,728.6177395361378
200,728.6343922768551
201,728.6510892505682
202,728.6678398696577
203,728.684652666607
204,728.7015353051946
205,728.7184946082477
206,728.7355366006465
207,728.7526665660276
208,728.7698891151996
209,728.7872082635926
210,728.8046275142324
211,728.8221499423231
212,728.8397782778073
213,728.8575149825647
214,728.8753623186448
215,728.8933224039218
216,728.9113972531313
217,728.9295888053502
218,728.9478989418623
219,728.9663294992968
220,728.9848822818044
221,729.0035590739881
222,729.0223616545348
223,729.0412918092981
224,729.0603513416692
225,729.0795420773013
226,729.0988658599416
227,729.1183245357321
228,729.1379199246888
229,729.1576537791883
230,729.1775277292487
231,729.197543213572
232,729.2177013950161
233,729.238003060046
234,729.2584485032064
235,729.2790373989756
236,729.2997686640458
237,729.3206403128081
238,729.3416493074172
239,729.3627914018493
240,729.3840609780018
241,729.4054508719596
242,729.4269521899445
243,729.4485541155744
244,729.4702437123655
245,729.4920057275432
246,729.5138224048095
247,729.5356733143129
248,729.5575352076263
249,729.5793819042485
250,729.6011842141565
251,729.6229098984567
252,729.6445236679464
253,729.6659872181418
254,729.687259299034
255,729.7082958179027
256,729.7290499733706
257,729.749472418307
258,729.7695114484284
259,729.7891132129234
260,729.8082219432507
261,729.8267801962761
262,729.8447291082562
263,729.8620086570824
264,729.8785579315299
265,729.8943154074483
266,729.9092192317031
267,729.9232075154829
268,729.9362186392921
269,729.9481915719613
270,729.9590662049462
271,729.9687837016434
272,729.9772868604977
273,729.9845204908708
274,729.9904318015995
275,729.9949708030015
276,729.9980907228661
277,729.9997484354378
278,729.9999049002197
279,729.998525605792
280,729.9955810134657
281,729.9910469961086
282,729.9849052680216
283,729.9771438017975
284,729.9677572275554
285,729.9567472086621
286,729.9441227859669
287,729.9299006801348
288,729.9141055397474
289,729.896770122398
290,729.8779353974937
291,729.8576505623541
292,729.8359729662511
293,729.8129679394468
294,729.7887085261466
295,729.7632751219566
296,729.7367550178819
297,729.7092418541962
298,729.6808349893122
299,729.651638791331
300,729.621761862261
301,729.5913162058695
302,729.5604163498182
303,729.5291784320507
304,729.4977192609081
305,729.4661553579805
306,729.4346019920418
307,729.4031722117835
308,729.3719758848798
309,729.341118751357
310,729.3107015001312
311,729.2808188785432
312,729.251558845421
313,729.2230017784948
314,729.1952197467076
315,729.1682758570403
316,729.142223684272
317,729.1171067913075
318,729.0929583476019
319,729.0698008532413
320,729.0476459755185
321,729.0264945032474
322,729.0063364220275
323,728.98715111134
324,728.9689076613746
325,728.951565303943
326,728.9350739485014
327,728.9193748120615
328,728.9044011309786
329,728.8900789428865
330,728.8763279275115
331,728.8630622951501
332,728.8501917113266
333,728.8376222461629
334,728.8252573377389
335,728.8129987601066
336,728.8007475879381
337,728.7884051503712
338,728.7758739665244
339,728.7630586550235
340,728.7498668100441
341,728.7362098366017
342,728.722003737874
343,728.707169847485
344,728.6916355005087
345,728.6753346384357
346,728.6582083446424
347,728.6402053071439
348,728.6212822046136
349,728.6014040106054
350,728.5805442103788
351,728.5586849250132
352,728.5358169387343
353,728.5119396276534
354,728.4870607910625
355,728.4611963891557
356,728.434370192851
357,728.4066133524927
358,728.3779638934822
359,728.3484661486868
360,728.3181701390773
361,728.2871309144987
362,728.255407865918
363,728.2230640198934
364,728.190165325912
365,728.1567799472961
366,728.1229775660948
367,728.0888287116678
368,728.0544041216682
369,728.019774142748
370,727.9850081764306
371,727.950174173646
372,727.9153381803046
373,727.8805639364724
374,727.8459125324447
375,727.8114421248773
376,727.7772077144848
377,727.7432609843728
378,727.7096501960369
379,727.676420138999
380,727.6436121296522
381,727.6112640547103
382,727.5794104545978
383,727.5480826423678
384,727.5173088542259
385,727.4871144279007
386,727.4575220043763
387,727.428551747152
388,727.4002215723015
389,727.3725473831056
390,727.345543304784
391,727.3192219167778
392,727.2935944809059
393,727.2686711632539
394,727.2444612469566
395,727.2209733331023
396,727.1982155273464
397,727.1761956093195
398,727.1549211805632
399,727.1343997858914
400,727.1146390039979
401,727.0956465055518
402,727.0774300793462
403,727.0599976281167
404,727.0433571359295
405,727.0275166097666
406,727.0124839993273
407,726.9982671002673
408,726.9848734463461
409,726.9723101952451
410,726.9605840115674
411,726.9497009492015
412,726.9396663341944
413,726.9304846488018
414,726.9221594173803
415,726.9146930948101
416,726.9080869576255
417,726.9023409969773
418,726.8974538116006
419,726.8934224986502
420,726.8902425407996
421,726.8879076894497
422,726.8864098460751
423,726.8857389459221
424,726.8858828493546
425,726.8868272458143
426,726.88855557439
427,726.8910489642834
428,726.8942861980237
429,726.8982436997093
430,726.9028955497946
431,726.9082135274117
432,726.9141671810756
433,726.9207239285682
434,726.9278491865039
435,726.935506529591
436,726.9436578791662
437,726.9522637203376
438,726.9612833467265
439,726.9706751309249
440,726.9803968176589
441,726.9904058361453
442,727.0006596284884
443,727.0111159914436
444,727.0217334286572
445,727.0324715093088
446,727.0432912274429
447,727.0541553551192
448,727.0650287825152
449,727.0758788389045
450,727.0866755891423
451,727.0973921005434
452,727.108004675083
453,727.1184930420001
454,727.128840506413
455,727.1390340506434
456,727.1490643863882
457,727.1589259573451
458,727.1686168933243
459,727.1781389181131
460,727.1874972139822
461,727.1967002455461
462,727.2057595452477
463,727.2146894628429
464,727.2235068820779
465,727.2322309086132
466,727.2408825335702
467,727.24948427703
468,727.2580598161417
469,727.2666336034758
470,727.2752304824188
471,727.2838753070004
472,727.2925925733387
473,727.3014060690548
474,727.3103385456884
475,727.319411417457
476,727.328644488138
477,727.3380557069764
478,727.3476609543646
479,727.3574738580417
480,727.3675056401787
481,727.3777649948689
482,727.38825799447
483,727.3989880223352
484,727.4099557291499
485,727.4211590105934
486,727.432593005042
487,727.4442501108914
488,727.456120023452
489,727.4681897913055
490,727.4804438917099
491,727.4928643242292
492,727.5054307215287
493,727.5181204764833
494,727.5309088850549
495,727.543769304069
496,727.556673322054
497,727.5695909406415
498,727.5824907644075
499,727.5953401981898
500,727.6081056519681
501,727.6207527537865
502,727.6332465711579
503,727.6455518415457
504,727.65763321309
505,727.669455497103
506,727.6809839331013
507,727.6921844650494
508,727.7030240250042
509,727.713470818913
510,727.7234946097362
511,727.7330669948025
512,727.7421616759887
513,727.7507547219583
514,727.7588248212842
515,727.7663535242609
516,727.773325469779
517,727.7797285919453
518,727.7855542998677
519,727.7907976241065
520,727.7954573249061
521,727.7995359597475
522,727.803039910281
523,727.8059793710345
524,727.8083683040466
525,727.8102243641475
526,727.8115687988711
527,727.8124263256179
528,727.8128249874648
529,727.8127959880993
530,727.8123735056345
531,727.8115944846403
532,727.8104984060707
533,727.8091270361233
534,727.8075241569123
535,727.8057352829017
536,727.8038073664827
537,727.8017884942743
538,727.7997275738069
539,727.7976740092413
540,727.7956773648929
541,727.7937870161423
542,727.7920517882969
543,727.7905195850276
544,727.7892370091622
545,727.7882489798104
546,727.7875983509505
547,727.7873255377115
548,727.7874681576114
549,727.7880606949051
550,727.7891341967269
551,727.7907160094555
552,727.7928295622498
553,727.7954942020193
554,727.7987250808227
555,727.8025330936049
556,727.8069248617161
557,727.8119027560035
558,727.817464952647
559,727.8236055153393
560,727.8303144985181
561,727.8375780675555
562,727.8453786326677
563,727.8536949938206
564,727.8625024944021
565,727.8717731819934
566,727.8814759749644
567,727.8915768338147
568,727.9020389363868
569,727.9128228563086
570,727.923886744122
571,727.9351865106524
572,727.9466760127648
573,727.9583072428991
574,727.9700305251464
575,727.9817947214151
576,727.9935474512591
577,728.0052353282608
578,728.0168042144845
579,728.0281994926638
580,728.0393663539126
581,728.0502500972582
582,728.0607964362704
583,728.0709518075275
584,728.0806636757634
585,728.0898808313189
586,728.098553676719
587,728.1066345004606
588,728.1140777374533
589,728.120840217232
590,728.1268814027746
591,728.1321636237664
592,728.1366523077317
593,728.1403162104987
594,728.1431276445448
595,728.1450627011203
596,728.1461014607723
597,728.146228187033
598,728.1454314987011
599,728.143704516591
600,728.1410449807311
601,728.1374553340004
602,728.1329427684217
603,728.127519231086
604,728.1212013878574
605,728.1140105442008
606,728.1059725235783
607,728.0971175050092
608,728.0874798225225
609,728.0770977300073
610,728.0660131352283
611,728.0542713066661
612,728.0419205565958
613,728.0290119036093
614,728.0155987177898
615,728.0017363519838
616,727.987481762756
617,727.9728931242573
618,727.9580294374898
619,727.9429501367536
620,727.9277146946465
621,727.912382226559
622,727.8970110948999
623,727.8816585128138
624,727.8663801477423
625,727.8512297270813
626,727.8362586505851
627,727.8215156158694
628,727.8070462636057
629,727.7928928478742
630,727.7790939354213
631,727.7656841361108
632,727.7526938660158
633,727.7401491441893
634,727.7280714241112
635,727.7164774613473
636,727.7053792201674
637,727.6947838231932
638,727.684693548782
639,727.6751058803045
640,727.6660136097813
641,727.657404995936
642,727.6492639743277
643,727.64157041551
644,727.6343004262433
645,727.6274266882544
646,727.6209188286169
647,727.6147438157967
648,727.6088663759077
649,727.6032494242917
650,727.5978545077413
651,727.5926422526512
652,727.5875728143919
653,727.5826063232373
654,727.5777033222518
655,727.5728251930927
656,727.5679345668426
657,727.5629957180718
658,727.5579749407252
659,727.5528409042901
660,727.5475649883988
661,727.5421215935352
662,727.5364884247984
663,727.5306467452621
664,727.5245815958873
665,727.5182819801073
666,727.5117410122181
667,727.5049560288545
668,727.4979286622315
669,727.4906648732087
670,727.4831749420025
671,727.4754734144116
672,727.4675790016103
673,727.4595144318316
674,727.4513062526768
675,727.4429845836381
676,727.4345828199873
677,727.4261372910505
678,727.4176868771638
679,727.4092725900368
680,727.4009371216264
681,727.3927243675481
682,727.3846789323431
683,727.3768456250693
684,727.3692689544383
685,727.3619926329108
686,727.3550590987201
687,727.3485090638013
688,727.3423810943181
689,727.3367112291187
690,727.3315326399356
691,727.3268753353506
692,727.3227659085685
693,727.3192273272668
694,727.316278762642
695,727.313935454514
696,727.3122086098161
697,727.3111053325603
698,727.3106285839336
699,727.3107771710926
700,727.3115457621553
701,727.3129249230593
702,727.3149011701692
703,727.3174570317316
704,727.3205711118815
705,727.3242181526612
706,727.3283690920481
707,727.3329911190896
708,727.3380477303796
709,727.343498794355
710,727.3493006307992
711,727.3554061130235
712,727.3617648001234
713,727.3683231066735
714,727.3750245169317
715,727.3818098495287
716,727.3886175763962
717,727.3953841965129
718,727.4020446614043
719,727.4085328456941
720,727.4147820530263
721,727.4207255459364
722,727.4262970877359
723,727.4314314845117
724,727.4360651155692
725,727.4401364414375
726,727.4435864804362
727,727.4463592474857
728,727.4484021513632
729,727.449666348369
730,727.450107051487
731,727.4496837947808
732,727.4483606528623
733,727.4461064149867
734,727.442894713188
735,727.4387041042398
736,727.4335181059555
737,727.4273251892678
738,727.4201187286528
739,727.4118969148814
740,727.4026626357052
741,727.392423331667
742,727.3811908353922
743,727.3689812030514
744,727.355814545949
745,727.3417148686557
746,727.3267099184676
747,727.3108310497953
748,727.2941131063368
749,727.2765943231436
750,727.2583162493884
751,727.2393236905835
752,727.219664666838
753,727.1993903823153
754,727.1785552006423
755,727.1572166213421
756,727.1354352531835
757,727.1132747812334
758,727.0908019248664
759,727.0680863839372
760,727.0452007701342
761,727.0222205203909
762,726.9992237888488
763,726.9762913131775
764,726.9535062505388
765,726.9309539785642
766,726.9087218571476
767,726.8868989472104
768,726.8655756828954
769,726.8448434943768
770,726.8247943797223
771,726.8055204254432
772,726.7871132761571
773,726.7696635547134
774,726.7532602358652
775,726.7379899789423
776,726.7239364273349
777,726.7111794846278
778,726.6997945788768
779,726.6898519277781
780,726.6814158182981
781,726.674543914663
782,726.6692866083218
783,726.6656864224788
784,726.6637774821933
785,726.6635850592053
786,726.6651251987241
787,726.6684044335692
788,726.673419589534
789,726.6801576846146
790,726.6885959231728
791,726.6987017838125
792,726.7104331973607
793,726.7237388099244
794,726.738558325888
795,726.7548229261042
796,726.7724557564694
797,726.7913724814423
798,726.8114818965903
799,726.832686594464
800,726.8548836787224
801,726.8779655216315
802,726.9018205594625
803,726.9263341194437
804,726.9513892715627
805,726.9768676988358
806,727.002650579969
807,727.0286194777518
808,727.0546572249864
809,727.0806487981826
810,727.1064821685826
811,727.132049120361
812,727.1572460264855
813,727.181974573304
814,727.2061424255731
815,727.2296638246596
816,727.2524601140681
817,727.2744601880772
818,727.29560086112
819,727.3158271576543
820,727.335092524379
821,727.3533589682179
822,727.3705971240743
823,727.3867862557812
824,727.4019141923097
825,727.4159771998851
826,727.4289797898
827,727.4409344614996
828,727.4518613809374
829,727.4617879952148
830,727.4707485859971
831,727.4787837658494
832,727.4859399230305
833,727.4922686210253
834,727.4978259593519
835,727.5026719025356
836,727.5068695848087
837,727.5104845988678
838,727.513584277608
839,727.5162369777952
840,727.5185113738762
841,727.5204757687117
842,727.5221974266711
843,727.5237419340183
844,727.5251725920666
845,727.5265498495102
846,727.5279307807609
847,727.5293686167338
848,727.5309123334827
849,727.5326063026512
850,727.5344900061762
851,727.5365978165781
852,727.5389588438244
853,727.5415968498944
854,727.5445302322208
855,727.5477720766828
856,727.5513302796303
857,727.5552077365459
858,727.5594025927666
859,727.5639085497338
860,727.5687152189107
861,727.5738085150224
862,727.5791710806428
863,727.5847827350406
864,727.5906209409447
865,727.5966612830686
866,727.6028779520251
867,727.6092442270977
868,727.6157329511864
869,727.6223169908619
870,727.6289696737674
871,727.6356651948673
872,727.6423789827014
873,727.6490880172944
874,727.6557710928688
875,727.66240902084
876,727.668984771467
877,727.67548355553
878,727.6818928498366
879,727.6882023720256
880,727.6944040116243
881,727.7004917259661
882,727.7064614107354
883,727.7123107545768
884,727.7180390853631
885,727.7236472133745
886,727.7291372747953
887,727.7345125777971
888,727.7397774525289
889,727.7449371050252
890,727.749997473504
891,727.7549650843514
892,727.7598469046859
893,727.7646501886968
894,727.7693823157648
895,727.7740506197096
896,727.7786622104653
897,727.7832237917554
898,727.7877414801701
899,727.7922206317877
900,727.7966656820068
901,727.8010800030131
902,727.8054657816931
903,727.8098239188702
904,727.8141539485999
905,727.8184539747004
906,727.8227206215066
907,727.8269489967769
908,727.8311326656665
909,727.8352636351312
910,727.8393323483123
911,727.8433276886415
912,727.8472369934344
913,727.851046076534
914,727.8547392593907
915,727.85829941026
916,727.861707992244
917,727.8649451224327
