frame_number,force
0,648.8021900000523
1,648.3257467619287
2,647.8675042236256
3,647.4437992334989
4,647.0675661046737
5,646.7473559055287
6,646.4870131063971
7,646.2859841143924
8,646.1401345388113
9,646.0428851387904
10,645.9864482166846
11,645.9629645249848
12,645.9653960535688
13,645.9880948355625
14,646.0270202918832
15,646.0796179823117
16,646.1444126703402
17,646.220411793637
18,646.3064494377186
19,646.4006075006463
20,646.4998249755699
21,646.5997622834283
22,646.6949419725141
23,646.7791460879947
24,646.8460153106004
25,646.8897657329408
26,646.9059158145957
27,646.8919077055343
28,646.847528506278
29,646.7750845360162
30,646.6793283682765
31,646.5671616302999
32,646.4471393949927
33,646.3288036348555
34,646.2218862854498
35,646.1354438787649
36,646.077006130552
37,646.0518345658483
38,646.0623900550033
39,646.1080951807974
40,646.1854481121709
41,646.2885024012272
42,646.4096721959955
43,646.5407571168942
44,646.6740242732589
45,646.8031665593095
46,646.9239873751671
47,647.0347206549333
48,647.1359565054044
49,647.2302061834919
50,647.3212098362537
51,647.4131438354634
52,647.5098854143845
53,647.6144349974563
54,647.7285217224054
55,647.8523748745181
56,647.9846432737088
57,648.1224550537627
58,648.2616042529108
59,648.3968348132053
60,648.5221912181469
61,648.6314262043363
62,648.7184811087607
63,648.7780548667115
64,648.8062398882495
65,648.8011428922964
66,648.7633624528986
67,648.6961911928596
68,648.6054527097583
69,648.4989583480094
70,648.3856597857081
71,648.2746537315052
72,648.1742261856806
73,648.0910837171876
74,648.0298362150475
75,647.9927268553128
76,647.9795783962278
77,647.987924145971
78,648.0132954064641
79,648.0496407465108
80,648.0898547841705
81,648.126388827187
82,648.1519041205297
83,648.1599202068517
84,648.145408450315
85,648.1052778044904
86,648.0386945065976
87,647.9471789098518
88,647.8344446897942
89,647.7059918131594
90,647.5685219075326
91,647.4292888481223
92,647.2955040792801
93,647.1738758967018
94,647.0702928464987
95,646.9896022489604
96,646.9354169137891
97,646.909907138769
98,646.9135774984812
99,646.9450673155019
100,647.0010414290391
101,647.0762460177365
102,647.1637824551542
103,647.2556014760991
104,647.3431589892556
105,647.4181303007348
106,647.4730705336386
107,647.5019359879675
108,647.5004266419471
109,647.4661519456666
110,647.3986469666654
111,647.2992747310225
112,647.1710523783058
113,647.0184339745754
114,646.8470621703716
115,646.6634681942137
116,646.4746824063484
117,646.2877422668181
118,646.1091421002162
119,645.9443147380448
120,645.7972345686744
121,645.6701964337825
122,645.5637874753415
123,645.4770419728039
124,645.4077480486379
125,645.3528581103704
126,645.3089447118155
127,645.2726432967416
128,645.2410332168973
129,645.2119216680221
130,645.1840048119922
131,645.1568894573655
132,645.1309750632931
133,645.1072203982394
134,645.0868436562652
135,645.0710176377761
136,645.0606173507041
137,645.0560605934404
138,645.0572592370512
139,645.0636724048518
140,645.0744246876109
141,645.0884305794493
142,645.1044639603717
143,645.1211371654548
144,645.1367974581335
145,645.1493866508466
146,645.1563284045054
147,645.154506147295
148,645.1403715607412
149,645.1101816198614
150,645.0603198815006
151,644.9876404773739
152,644.8897880513304
153,644.7654738088074
154,644.6146978906286
155,644.4388923932624
156,644.2409405062617
157,644.0250350991953
158,643.796376846398
159,643.5607546675907
160,643.3240797504697
161,643.0919512852557
162,642.8693140689236
163,642.660229209625
164,642.4677388867941
165,642.2937871110321
166,642.1391656442601
167,642.0034776619957
168,641.8851385143266
169,641.7814468311392
170,641.6887479180068
171,641.602686029127
172,641.5185287454555
173,641.4315508725108
174,641.337464517465
175,641.2328577365881
176,641.1155674684154
177,640.9848967296455
178,640.8416159491908
179,640.6877516209314
180,640.5262221480125
181,640.360405448347
182,640.1937218321038
183,640.0293020398117
184,639.8697883166402
185,639.7172879313109
186,639.573466359546
187,639.4397358306801
188,639.3174756816019
189,639.2082263711417
190,639.1138227042903
191,639.0364486839751
192,638.9785953830124
193,638.9429061501677
194,638.9319236814631
195,638.9477970517468
196,638.9920225223638
197,639.0652587835932
198,639.1672023200439
199,639.2964823143342
200,639.4505606374624
201,639.6256767947684
202,639.8169131619395
203,640.0184417187332
204,640.223954488671
205,640.4272097595668
206,640.6225832491738
207,640.8055136423544
208,640.9727646764668
209,641.1224727035088
210,641.2539961297927
211,641.3676222060321
212,641.4642104489326
213,641.5448572658229
214,641.6106549834353
215,641.6625936008209
216,641.7016148973458
217,641.7287811644898
218,641.7454845114571
219,641.7536169035211
220,641.7556462535819
221,641.7545854376067
222,641.7538808163905
223,641.7572667238591
224,641.7686228767328
225,641.7918426129753
226,641.8306943642912
227,641.8886510580229
228,641.968667810092
229,642.0728987780526
230,642.2023609723157
231,642.3565819158472
232,642.5333043501738
233,642.7283435493969
234,642.9356773071077
235,643.1477933081075
236,643.3562506856913
237,643.5523662234829
238,643.7279248846356
239,643.8758308055717
240,643.9906453616105
241,644.0689919703152
242,644.1098267240063
243,644.1145674845797
244,644.0870519962392
245,644.0332843885398
246,643.9609462286473
247,643.8786892593419
248,643.79527483328
249,643.7186610342252
250,643.6551547893986
251,643.608748313222
252,643.580748475639
253,643.5697719465688
254,643.5721121654595
255,643.5824056597157
256,643.5944677677593
257,643.6021528081028
258,643.6001192766873
259,643.5844262312511
260,643.5529305858065
261,643.5054869829443
262,643.4439691653218
263,643.3721277231963
264,643.29527655902
265,643.2197892710298
266,643.1524218265107
267,643.0995507214194
268,643.066470432965
269,643.0568863503449
270,643.0726804115194
271,643.1139554145063
272,643.1793062232166
273,643.266233849911
274,643.371616643189
275,643.4921686986845
276,643.6248267826202
277,643.7670096547691
278,643.9167041797637
279,644.0723621664032
280,644.2326323928648
281,644.3959893706941
282,644.5603488828277
283,644.722777455294
284,644.8793955257141
285,645.0255293217642
286,645.1560939574151
287,645.2661221230891
288,645.3513198508243
289,645.4085415148036
290,645.4361163940462
291,645.4340061738553
292,645.4038068921119
293,645.3486218987721
294,645.2728343623013
295,645.1818163342547
296,645.0816281433387
297,644.9787657920524
298,644.879984423154
299,644.792172486441
300,644.7222103326582
301,644.6767460099949
302,644.661859050743
303,644.6826403442703
304,644.7427636200412
305,644.8441341695914
306,644.9866703776316
307,645.168229282735
308,645.3846594096842
309,645.6299661005174
310,645.8965956713262
311,646.1758561202302
312,646.4584706941922
313,646.7352115374814
314,646.997514412514
315,647.2379648429632
316,647.4505823294479
317,647.6308943091722
318,647.7758526718292
319,647.8836790112143
320,647.9537242145877
321,647.9864017526736
322,647.9832167009994
323,647.946874415056
324,647.8814182533679
325,647.7923216821882
326,647.6864573615482
327,647.5718891458231
328,647.4574751596758
329,647.3523167915696
330,647.2651235072524
331,647.2035739235774
332,647.1737372783871
333,647.1795887422741
334,647.2226291397085
335,647.3016217268582
336,647.4124816490144
337,647.5483741077712
338,647.7000733092052
339,647.8566014485481
340,648.0061164353893
341,648.1369647821995
342,648.2387735261977
343,648.3034318339807
344,648.3258241038526
345,648.3042291870184
346,648.240373038147
347,648.1391771885694
348,648.0082658520731
349,647.8572899163489
350,647.6971113885728
351,647.5388806330885
352,647.3930479083415
353,647.268385569415
354,647.1711364446876
355,647.1044180543271
356,647.0679920367221
357,647.0584608120786
358,647.0698867126281
359,647.0947516674399
360,647.1251061017992
361,647.1537133700679
362,647.174993556815
363,647.1856168585563
364,647.1846899993885
365,647.1735890034414
366,647.1555671509075
367,647.1352726561204
368,647.118254719878
369,647.1104638227079
370,647.1177080285386
371,647.1450299837228
372,647.1960141069912
373,647.2721027866805
374,647.3720632207595
375,647.4917663715787
376,647.6243970973941
377,647.7611207490429
378,647.892121707725
379,648.0078442918754
380,648.1002312836185
381,648.1637717306801
382,648.1962209952541
383,648.198917231138
384,648.1766723972113
385,648.1372618079733
386,648.0905773672821
387,648.0475431189581
388,648.0189167848533
389,648.0141203988625
390,648.0402490866319
391,648.1013819383406
392,648.1982599891529
393,648.328326707005
394,648.4860747300349
395,648.663619990851
396,648.8514240735598
397,649.0390941951098
398,649.2161976461605
399,649.3730348369309
400,649.5013257349613
401,649.5947710468624
402,649.6494464224155
403,649.6639879610593
404,649.6395458041643
405,649.5795190506717
406,649.4891269913784
407,649.3749007161833
408,649.244180378617
409,649.1046774869678
410,648.9641221703249
411,648.8299776286676
412,648.7091817696756
413,648.6078754877368
414,648.531093542017
415,648.482423912518
416,648.4636814737161
417,648.4746742338746
418,648.5131420625995
419,648.5749152438424
420,648.6542928826244
421,648.7446009043209
422,648.8388625508613
423,648.930495346445
424,649.0139364739485
425,649.085103559127
426,649.1416283626253
427,649.1828489061401
428,649.2095920319713
429,649.2238109673887
430,649.2281592403563
431,649.2255795219421
432,649.2189608030758
433,649.2108849579964
434,649.2034671744012
435,649.1982928779348
436,649.1964448041864
437,649.1985909740173
438,649.2050850587596
439,649.2160334729095
440,649.2313109987834
441,649.250543532655
442,649.2730973109176
443,649.2981039655588
444,649.324522038023
445,649.3512146419134
446,649.3770227909724
447,649.4008267635592
448,649.4216024817342
449,649.4384905159178
450,649.4508949778832
451,649.4586135627635
452,649.4619772397389
453,649.4619638495426
454,649.4602509906612
455,649.4591878514673
456,649.4616857118524
457,649.4710399090657
458,649.4906913909736
459,649.523921308958
460,649.5734738631239
461,649.6411360064906
462,649.7273480630763
463,649.8309427377731
464,649.9490971776029
465,650.0775423551697
466,650.2110220043172
467,650.3439435329061
468,650.4711204468405
469,650.5884688704114
470,650.6935030252997
471,650.7855050101662
472,650.8653362268045
473,650.9349792078173
474,650.996979326731
475,651.0539439961186
476,651.1081742792664
477,651.1614227630088
478,651.2147402141502
479,651.2683888713336
480,651.3218345718666
481,651.3738519166544
482,651.4227629983218
483,651.4667831090043
484,651.5043943669401
485,651.5346421901266
486,651.557268436381
487,651.5726557279563
488,651.5816300105178
489,651.5852120859955
490,651.5844086704446
491,651.5801076890191
492,651.5731073346586
493,651.564260283432
494,651.5546574647517
495,651.545739483866
496,651.5392374203396
497,651.5369082360598
498,651.5401152834777
499,651.5493737723094
500,651.5640059264923
501,651.5820227116544
502,651.6002821208074
503,651.6148982515355
504,651.6218231740004
505,651.6175069696733
506,651.5995426172502
507,651.5671970255075
508,651.5217204835502
509,651.4663423527492
510,651.4059132919216
511,651.3462238883155
512,651.2930948133431
513,651.251388948667
514,651.2241313631503
515,651.2119149446104
516,651.2127056201709
517,651.2220624285475
518,651.2336968444628
519,651.240245604787
520,651.2341250945947
521,651.2083551466384
522,651.1572692607555
523,651.0770568563519
524,650.9661026093524
525,650.8251007335757
526,650.656942551711
527,650.4664042288213
528,650.2596816086865
529,650.0438258470234
530,649.8261364728662
531,649.6135694855282
532,649.4122128215521
533,649.2268728434665
534,649.0608060928579
535,648.9156157271394
536,648.7913108123892
537,648.6865075434372
538,648.5987427107248
539,648.5248692170699
540,648.4615005629836
541,648.4054606443196
542,648.3541853301614
543,648.306023266787
544,648.2603942239455
545,648.217779217573
546,648.1795403196634
547,648.1476024631545
548,648.1240628626044
549,648.1108063198491
550,648.1091909541298
551,648.1198381805522
552,648.1425246894498
553,648.1761459264047
554,648.2187140494301
555,648.2673703226886
556,648.318418156677
557,648.3674025203525
558,648.4092680186467
559,648.4386207696475
560,648.4500972637306
561,648.4388113011817
562,648.4008224291828
563,648.3335595352798
564,648.2361412039236
565,648.1095486379419
566,647.9566189197515
567,647.7818411386876
568,647.590966763037
569,647.3904858803985
570,647.187049732297
571,646.9869174972406
572,646.7954789215854
573,646.6168795740471
574,646.4537659735277
575,646.3071668141769
576,646.1765236050952
577,646.0598756723557
578,645.9541895462671
579,645.8558040047064
580,645.7609482381015
581,645.6662848188739
582,645.569421949653
583,645.46932489804
584,645.3665482815591
585,645.2632299986835
586,645.162836165962
587,645.069704531894
588,644.9884794486824
589,644.923550737298
590,644.8785950685896
591,644.8562765330345
592,644.8581098605727
593,644.8844451231081
594,644.9345106594628
595,645.0064569925408
596,645.0973785110127
597,645.2033440318221
598,645.3195159380533
599,645.4404427283794
600,645.5605565583141
601,645.6748195364888
602,645.779381316012
603,645.8720722544277
604,645.9525839612932
605,646.0222794453698
606,646.0836925545207
607,646.1398690061444
608,646.1937295761229
609,646.2475944472906
610,646.3029287735403
611,646.3603005602803
612,646.4195073605704
613,646.4798163105002
614,646.540251801796
615,646.5998580854756
616,646.6578786188538
617,646.7138317623821
618,646.7674994099023
619,646.8188611811445
620,646.8680057599028
621,646.9150431285476
622,646.9600277514088
623,647.0028886363872
624,647.0433648929456
625,647.0809689520123
626,647.1150215354999
627,647.1448005203525
628,647.1698191793972
629,647.1902044825567
630,647.2070867701854
631,647.2228574083258
632,647.241144911687
633,647.2664330518238
634,647.3033686514318
635,647.3559127158684
636,647.4265303682498
637,647.5155973106694
638,647.6211470344629
639,647.7390101925575
640,647.8633177013371
641,647.9872643816773
642,648.1039762977301
643,648.2073171903876
644,648.2925166431514
645,648.3565711276437
646,648.3984142991713
647,648.4188705241783
648,648.4204193639866
649,648.4068156204513
650,648.3826184551405
651,648.3526817786889
652,648.3216549436149
653,648.2935404281267
654,648.2713501232628
655,648.2568947474743
656,648.2507349147562
657,648.2523127549894
658,648.260258975092
659,648.2728303573183
660,648.288394126701
661,648.3058610380285
662,648.3249834963901
663,648.3464659059873
664,648.3718712370784
665,648.403346385433
666,648.4432191664773
667,648.493528497112
668,648.555541241628
669,648.629309613065
670,648.7133435385474
671,648.8044870622357
672,648.8980635549426
673,648.988291132346
674,649.0688941389428
675,649.1337792195994
676,649.177633352929
677,649.1963486569251
678,649.1872591581886
679,649.1492367637677
680,649.0827059550011
681,648.9896106275316
682,648.8733349868932
683,648.7385656722037
684,648.5910838887819
685,648.437481135857
686,648.2847916185459
687,648.1400327155663
688,648.0096527230978
689,647.8989114446135
690,647.8112632758235
691,647.7478557108977
692,647.7072676842241
693,647.6855727818054
694,647.6767348691664
695,647.6732634815754
696,647.6670036962607
697,647.6499201748649
698,647.6147530853734
699,647.555467551268
700,647.4674822796791
701,647.3477325475731
702,647.1946689142114
703,647.0082926655978
704,646.7902843413925
705,646.5442118181845
706,646.2757340690681
707,645.9926755430349
708,645.7048530941416
709,645.4235848706024
710,645.1608788714294
711,644.9283753090742
712,644.7361873341102
713,644.5918235797732
714,644.4993634426613
715,644.4589992774719
716,644.4669893062938
717,644.5160083311586
718,644.5958439698791
719,644.6943574674004
720,644.7986154016686
721,644.8961017436419
722,644.9759119780382
723,645.0297953941581
724,645.0528836112181
725,645.0439761448504
726,645.0053492479748
727,644.9421587444081
728,644.8615720913334
729,644.771783095225
730,644.6810519844354
731,644.5968871725422
732,644.5254483452844
733,644.4712054859773
734,644.436839271983
735,644.4233292759808
736,644.4301656903368
737,644.4556377361546
738,644.4971737314366
739,644.5517103764316
740,644.6160515111752
741,644.687158849196
742,644.7623215390897
743,644.8391862313288
744,644.915677438957
745,644.9898681451895
746,645.0598592608283
747,645.1237081137891
748,645.1794272537838
749,645.2250575390367
750,645.2588056593925
751,645.2792322995354
752,645.285477453921
753,645.2774983845813
754,645.2562691219715
755,645.223864233898
756,645.1833517196837
757,645.1384697921662
758,645.0931468108121
759,645.0509970619504
760,645.014942778586
761,644.9870639584342
762,644.9686877539169
763,644.9606396345642
764,644.9635254713492
765,644.9779173821852
766,645.0043723549426
767,645.0432929627021
768,645.0947090665869
769,645.1580920793032
770,645.2322933798827
771,645.3156324606725
772,645.4060892162584
773,645.5015232457105
774,645.5998550311431
775,645.6991700773285
776,645.797728915301
777,645.8938894499056
778,645.9859820007805
779,646.0722107203123
780,646.1506606737579
781,646.2194522272199
782,646.2770223177107
783,646.3224622504641
784,646.3558233623128
785,646.3783109120606
786,646.3923124197304
787,646.4012409482419
788,646.4092071468064
789,646.4205588910462
790,646.439345084008
791,646.468775533517
792,646.5107603735871
793,646.5656131482322
794,646.6319851113444
795,646.7070606453635
796,646.7869878172576
797,646.8674602765157
798,646.9443313561939
799,647.0141438497119
800,647.074494355138
801,647.1241983018339
802,647.1632607403043
803,647.1926827416207
804,647.2141492437754
805,647.2296555605446
806,647.2411340146084
807,647.2501350562949
808,647.2575978329097
809,647.2637195253889
810,647.2679152712378
811,647.2688616696006
812,647.2646284861298
813,647.2529061545341
814,647.231322007209
815,647.1978127480509
816,647.1509972996475
817,647.090482300418
818,647.017035436523
819,646.9325773622136
820,646.8399686996762
821,646.7426063626488
822,646.6438936768617
823,646.5466961803149
824,646.4529094908896
825,646.3632326312714
826,646.277181060507
827,646.193318123419
828,646.1096388194525
829,646.0240055702537
830,645.934526583635
831,645.839797924911
832,645.7389927330887
833,645.6318465456832
834,645.5186208351959
835,645.4001050409687
836,645.2776550456789
837,645.1532099264928
838,645.0292141615637
839,644.9083952454336
840,644.7933859165827
841,644.6862278000383
842,644.5878474274107
843,644.497638064356
844,644.4132808933321
845,644.3308846215704
846,644.2454364219429
847,644.1514790185216
848,644.0438862272863
849,643.9186077410641
850,643.7732834659198
851,643.6076694758457
852,643.4238508712332
853,643.2262319835131
854,643.0212998980884
855,642.8171672015632
856,642.6229183152387
857,642.4478074306296
858,642.3003841079332
859,642.1876538353558
860,642.114402421992
861,642.0827992602643
862,642.092328417443
863,642.1400013546472
864,642.220738224238
865,642.3278062796477
866,642.4532605876384
867,642.5883948844067
868,642.724235905773
869,642.8520931799835
870,642.9641307810097
871,643.0538906889782
872,643.1166921269455
873,643.1498607696712
874,643.1527859276027
875,643.1268322656268
876,643.0751336956536
877,643.0022897027033
878,642.913992039251
879,642.8166299124327
880,642.716930826481
881,642.6216756356863
882,642.5374853327554
883,642.4706348268843
884,642.4268314814805
885,642.4109189002544
886,642.4265162104185
887,642.4756454174985
888,642.5584153983215
889,642.6728315869199
890,642.8147962261895
891,642.978346299633
892,643.1561351964021
893,643.340109746712
894,643.5222906642074
895,643.695549038238
896,643.854281916724
897,643.9949127574232
898,644.1161667810795
899,644.2190906007042
900,644.3068007413781
901,644.3839676180327
902,644.4560760132248
903,644.5285393828784
904,644.6057751070904
905,644.6903771190814
906,644.7825422614363
907,644.8798832251035
908,644.9776845860484
909,645.0695683044837
910,645.14846823946
911,645.2077695262163
912,645.2424389651371
913,645.2499643540766
914,645.2309425487656
915,645.1892027592603
916,645.1314144965031
917,645.0662056878571
