frame_number,force
0,722.6165200054488
1,722.6370843872019
2,722.657750255221
3,722.6786183294655
4,722.6997878111272
5,722.7213556564814
6,722.7434158869846
7,722.7660589426329
8,722.7893710832234
9,722.8134338405125
10,722.8383235229713
11,722.8641107736973
12,722.8908601810313
13,722.918629940363
14,722.9474715642008
15,722.9774296359795
16,723.0085416020287
17,723.0408375964664
18,723.0743402954951
19,723.1090647996144
20,723.1450185436966
21,723.1822012356488
22,723.2206048250429
23,723.2602135037328
24,723.3010037408689
25,723.3429443548073
26,723.38599662442
27,723.4301144422508
28,723.4752445116511
29,723.5213265895503
30,723.5682937761809
31,723.6160728530141
32,723.6645846700371
33,723.7137445829989
34,723.7634629403655
35,723.8136456187038
36,723.8641946042551
37,723.9150086177306
38,723.9659837788348
39,724.0170143061631
40,724.0679932462054
41,724.1188132221852
42,724.1693671903665
43,724.2195491896338
44,724.2692550702973
45,724.3183831898695
46,724.3668350659973
47,724.4145159792953
48,724.461335521697
49,724.5072080892886
50,724.5520533215937
51,724.5957964907537
52,724.6383688436707
53,724.679707898757
54,724.719757697591
55,724.7584690112365
56,724.7957995013033
57,724.8317138364276
58,724.8661837649435
59,724.899188143875
60,724.93071292343
61,724.9607510856403
62,724.9893025360573
63,725.0163739481911
64,725.0419785610912
65,725.0661359307489
66,725.0888716359646
67,725.1102169391356
68,725.1302084021341
69,725.1488874572024
70,725.1662999329554
71,725.1824955364342
72,725.1975272937434
73,725.2114509537779
74,725.2243243614427
75,725.2362068084472
76,725.2471583712983
77,725.2572392475076
78,725.2665091020608
79,725.2750264365557
80,725.2828479930125
81,725.2900282033798
82,725.2966186943945
83,725.3026678554841
84,725.3082204747271
85,725.3133174451334
86,725.3179955413354
87,725.3222872649369
88,725.326220754625
89,725.3298197549713
90,725.3331036366319
91,725.3360874610498
92,725.3387820844185
93,725.3411942975148
94,725.3433269990499
95,725.345179400276
96,725.3467472581688
97,725.3480231338212
98,725.348996671782
99,725.3496548953341
100,725.3499825126958
101,725.3499622297393
102,725.3495750655663
103,725.3488006679094
104,725.3476176259871
105,725.346003779064
106,725.343936519247
107,725.3413930869821
108,725.3383508577058
109,725.3347876187241
110,725.3306818366351
111,725.3260129168618
112,725.3207614573827
113,725.3149094984653
114,725.3084407695953
115,725.3013409341411
116,725.2935978315916
117,725.285201716381
118,725.27614549148
119,725.2664249340185
120,725.2560389090228
121,725.2449895660393
122,725.2332825126535
123,725.2209269593303
124,725.2079358316504
125,725.1943258484033
126,725.1801175663362
127,725.1653353939777
128,725.1500075776344
129,725.1341661627148
130,725.1178469333256
131,725.1010893324653
132,725.0839363637515
133,725.0664344737348
134,725.048633412301
135,725.0305860680161
136,725.0123482753723
137,724.9939785910465
138,724.9755380360963
139,724.957089801151
140,724.9386989133792
141,724.9204318675827
142,724.902356227672
143,724.884540207211
144,724.8670522382779
145,724.8499605374606
146,724.8333326771058
147,724.8172351688365
148,724.8017330645449
149,724.7868895778688
150,724.7727657272588
151,724.7594200006455
152,724.7469080414063
153,724.735282355386
154,724.7245920386652
155,724.7148825255308
156,724.7061953560519
157,724.6985679630567
158,724.6920334787397
159,724.6866205610437
160,724.682353239287
161,724.6792507776735
162,724.6773275547534
163,724.6765929567549
164,724.6770512829787
165,724.6787016622876
166,724.681537981133
167,724.6855488250694
168,724.6907174366039
169,724.6970216923505
170,724.7044341023475
171,724.7129218345792
172,724.722446768038
173,724.7329655772195
174,724.744429849406
175,724.756786234195
176,724.7699766236076
177,724.7839383611532
178,724.7986044788565
179,724.8139039615467
180,724.8297620372052
181,724.8461004910941
182,724.8628380005503
183,724.8798904873926
184,724.8971714856169
185,724.9145925224739
186,724.9320635105577
187,724.949493147732
188,724.9667893217353
189,724.9838595176669
190,725.0006112286644
191,725.0169523717366
192,725.0327917111313
193,725.0480392908156
194,725.0626068761658
195,725.0764084034923
196,725.0893604351177
197,725.1013826174304
198,725.1123981392451
199,725.1223341875922
200,725.1311223978324
201,725.1386992947009
202,725.1450067202885
203,725.1499922443531
204,725.1536095524572
205,725.155818808356
206,725.1565869880195
207,725.1558881829327
208,725.1537038700133
209,725.1500231449563
210,725.1448429150137
211,725.1381680462148
212,725.1300114595948
213,725.1203941716519
214,725.1093452756245
215,725.0969018615541
216,725.0831088742975
217,725.0680189098009
218,725.0516919506709
219,725.0341950418199
220,725.0156019059547
221,724.9959924980077
222,724.9754524980002
223,724.9540727430767
224,724.9319486009605
225,724.9091792884605
226,724.8858671398673
227,724.8621168314054
228,724.838034569511
229,724.8137272519766
230,724.7893016111607
231,724.7648633478897
232,724.7405162647881
233,724.7163614092738
234,724.6924962385211
235,724.6690138200516
236,724.6460020818297
237,724.6235431251956
238,724.6017126129528
239,724.5805792432849
240,724.5602043176906
241,724.5406414080785
242,724.521936125105
243,724.5041259869939
244,724.4872403853732
245,724.4713006422938
246,724.4563201509277
247,724.4423045914364
248,724.4292522130585
249,724.4171541736517
250,724.4059949287297
251,724.3957526630351
252,724.3863997586133
253,724.3779032942961
254,724.37022557228
255,724.3633246674599
256,724.3571549941533
257,724.3516678834791
258,724.3468121638025
259,724.342534736729
260,724.3387811418045
261,724.3354961036337
262,724.3326240550152
263,724.3301096292624
264,724.3278981151688
265,724.3259358696826
266,724.3241706856859
267,724.3225521143077
268,724.321031742572
269,724.3195634281865
270,724.3181034942442
271,724.3166108875059
272,724.3150473043279
273,724.3133772878627
274,724.311568298754
275,724.3095907594791
276,724.3074180706984
277,724.3050265974385
278,724.3023956239057
279,724.2995072776714
280,724.2963464260808
281,724.2929005491628
282,724.2891595936029
283,724.2851158116706
284,724.2807635878412
285,724.2760992545926
286,724.2711208980776
287,724.2658281546893
288,724.2602220008808
289,724.254304540117
290,724.2480787918089
291,724.2415484875482
292,724.2347178803242
293,724.227591572676
294,724.2201743693345
295,724.2124711585391
296,724.204486824412
297,724.1962261911707
298,724.1876939987244
299,724.1788949081882
300,724.1698335350492
301,724.1605145072075
302,724.1509425447765
303,724.1411225578642
304,724.1310597571766
305,724.1207597703979
306,724.1102287556033
307,724.0994735020262
308,724.0885015086226
309,724.0773210321556
310,724.0659410989311
311,724.0543714774186
312,724.0426226119638
313,724.0307055199759
314,724.018631656447
315,724.0064127509529
316,723.9940606236449
317,723.9815869878531
318,723.9690032470713
319,723.9563202929321
320,723.9435483088218
321,723.9306965822028
322,723.9177733281939
323,723.9047855272057
324,723.8917387795636
325,723.8786371795929
326,723.8654832109133
327,723.8522776642149
328,723.8390195785494
329,723.8257062067897
330,723.8123330052927
331,723.7988936473889
332,723.7853800606008
333,723.7717824883256
334,723.7580895773693
335,723.7442884926463
336,723.7303650597642
337,723.7163039355914
338,723.7020888062629
339,723.687702611014
340,723.6731277886679
341,723.6583465421202
342,723.6433411154701
343,723.6280940785399
344,723.6125886137099
345,723.5968087995906
346,723.5807398852105
347,723.5643685480665
348,723.5476831301901
349,723.5306738480829
350,723.5133329743649
351,723.495654990986
352,723.4776367158562
353,723.4592774066828
354,723.4405788471855
355,723.4215454209373
356,723.4021841766167
357,723.3825048858773
358,723.362520092143
359,723.342245146155
360,723.3216982224792
361,723.3009003105933
362,723.2798751746105
363,723.2586492770157
364,723.2372516636186
365,723.2157138087531
366,723.1940694212428
367,723.172354212794
368,723.1506056313432
369,723.1288625626657
370,723.1071650043659
371,723.0855537172048
372,723.0640698594503
373,723.0427546105009
374,723.0216487902786
375,723.0007924807104
376,722.9802246551424
377,722.959982820978
378,722.9401026802049
379,722.9206178117212
380,722.9015593784927
381,722.8829558617491
382,722.8648328238471
383,722.8472127011105
384,722.8301146277887
385,722.8135542922097
386,722.7975438263892
387,722.7820917308944
388,722.7672028373088
389,722.7528783105456
390,722.7391156922009
391,722.7259089846154
392,722.7132487743015
393,722.7011223933516
394,722.6895141180419
395,722.678405404358
396,722.6677751601491
397,722.6576000528172
398,722.6478548498236
399,722.6385127869902
400,722.6295459571877
401,722.6209257104205
402,722.6126230561024
403,722.6046090590969
404,722.5968552221232
405,722.5893338480367
406,722.5820183763152
407,722.5748836888667
408,722.5679063811416
409,722.5610649956734
410,722.5543402164544
411,722.547715023513
412,722.5411748076085
413,722.5347074453256
414,722.5283033350978
415,722.5219553948493
416,722.5156590224374
417,722.509412021276
418,722.5032144949688
419,722.4970687154904
420,722.4909789689984
421,722.4849513823017
422,722.4789937323684
423,722.4731152413416
424,722.4673263599027
425,722.4616385421422
426,722.4560640156219
427,722.450615551257
428,722.4453062387296
429,722.4401492740229
430,722.4351577663294
431,722.4303445721465
432,722.4257221643114
433,722.4213025421593
434,722.4170971858631
435,722.4131170545311
436,722.4093726249575
437,722.4058739661742
438,722.402630843675
439,722.3996528462307
440,722.3969495278676
441,722.3945305580281
442,722.3924058738414
443,722.39058582923
444,722.3890813361022
445,722.3879039934446
446,722.3870662009572
447,722.3865812548217
448,722.3864634240338
449,722.3867280064748
450,722.3873913646606
451,722.3884709417446
452,722.3899852585147
453,722.3919538915816
454,722.3943974320099
455,722.3973374230444
456,722.4007962757287
457,722.4047971618663
458,722.4093638846614
459,722.4145207285928
460,722.4202922915531
461,722.4267033034234
462,722.4337784355642
463,722.4415421052153
464,722.4500182780897
465,722.4592302721422
466,722.4692005658094
467,722.4799506144528
468,722.4915006787108
469,722.5038696680102
470,722.5170750018927
471,722.531132491025
472,722.5460562387912
473,722.5618585635718
474,722.57854994142
475,722.5961389685997
476,722.6146323429138
477,722.6340348617831
478,722.6543494340165
479,722.675577101418
480,722.6977170657194
481,722.7207667155108
482,722.7447216469923
483,722.7695756719644
484,722.7953208068379
485,722.8219472375563
486,722.8494432569476
487,722.877795173037
488,722.9069871891885
489,722.937001259375
490,722.967816924088
491,722.9994111339969
492,723.0317580691984
493,723.0648289617061
494,723.0985919282523
495,723.1330118201819
496,723.1680500974218
497,723.20366473385
498,723.2398101613337
499,723.2764372589478
500,723.313493392618
501,723.350922509301
502,723.3886652891521
503,723.4266593584628
504,723.4648395648857
505,723.5031383146768
506,723.5414859696588
507,723.5798112995558
508,723.6180419835539
509,723.6561051535421
510,723.6939279702044
511,723.7314382216881
512,723.7685649332401
513,723.8052389755725
514,723.841393660119
515,723.8769653105983
516,723.9118938017356
517,723.946123056971
518,723.9796014975554
519,724.0122824362603
520,724.0441244104187
521,724.0750914508097
522,724.1051532842874
523,724.1342854686267
524,724.1624694579764
525,724.1896925971455
526,724.2159480433554
527,724.2412346154838
528,724.26555657307
529,724.2889233298755
530,724.3113491088512
531,724.3328525463762
532,724.3534562536466
533,724.3731863427397
534,724.3920719248231
535,724.4101445882819
536,724.4274378647189
537,724.443986690556
538,724.4598268715539
539,724.4749945572389
540,724.4895257319491
541,724.5034557289816
542,724.5168187744581
543,724.5296475680587
544,724.5419729081656
545,724.5538233684906
546,724.5652250317967
547,724.5762012843908
548,724.5867726733551
549,724.5969568271493
550,724.6067684390001
551,724.6162193109668
552,724.6253184544037
553,724.6340722397518
554,724.6424845857606
555,724.6505571763282
556,724.6582896929233
557,724.6656800520233
558,724.672724639552
559,724.6794185371248
560,724.685755737378
561,724.6917293471686
562,724.6973317776587
563,724.7025549196017
564,724.7073903014228
565,724.7118292277856
566,724.7158628973268
567,724.7194824996052
568,724.7226792924913
569,724.7254446621652
570,724.7277701685367
571,724.7296475790904
572,724.7310688937597
573,724.7320263625542
574,724.7325124965038
575,724.7325200715048
576,724.7320421244306
577,724.7310719415981
578,724.7296030409177
579,724.727629150352
580,724.7251441866398
581,724.722142239373
582,724.7186175657969
583,724.7145646008712
584,724.7099779857351
585,724.7048526164281
586,724.6991837137244
587,724.6929669141163
588,724.686198381131
589,724.6788749351266
590,724.6709941986537
591,724.6625547537762
592,724.6535563074486
593,724.6439998607678
594,724.6338878774127
595,724.6232244462047
596,724.6120154326935
597,724.600268614519
598,724.5879937947335
599,724.5752028868927
600,724.5619099663405
601,724.5481312835917
602,724.5338852373669
603,724.5191923061077
604,724.5040749376655
605,724.4885573976916
606,724.4726655786051
607,724.456426772917
608,724.4398694165317
609,724.4230228088497
610,724.4059168170829
611,724.3885815723748
612,724.3710471650186
613,724.3533433451953
614,724.3354992345027
615,724.3175430525629
616,724.2995018624298
617,724.2814013382406
618,724.2632655583964
619,724.2451168273311
620,724.2269755284776
621,724.2088600100134
622,724.1907865031714
623,724.172769070838
624,724.1548195828678
625,724.136947714483
626,724.119160964694
627,724.1014646921712
628,724.083862166338
629,724.0663546318766
630,724.0489413852123
631,724.0316198615287
632,724.0143857305986
633,723.9972329997288
634,723.9801541225585
635,723.9631401127509
636,723.9461806613891
637,723.9292642565852
638,723.9123783040586
639,723.8955092482058
640,723.8786426940253
641,723.8617635312162
642,723.844856063238
643,723.8279041458943
644,723.8108913409878
645,723.7938010897998
646,723.7766169088509
647,723.7593226079144
648,723.7419025286865
649,723.7243418020906
650,723.7066266223492
651,723.6887445358452
652,723.6706847417439
653,723.6524383992554
654,723.6339989340719
655,723.6153623351566
656,723.5965274332857
657,723.5774961539822
658,723.5582737387653
659,723.5388689293682
660,723.519294109747
661,723.4995654007217
662,723.4797027024833
663,723.4597296811904
664,723.4396736975831
665,723.4195656781296
666,723.3994399323291
667,723.3793339221501
668,723.3592879900416
669,723.3393450507482
670,723.3195502506857
671,723.2999505981552
672,723.2805945685412
673,723.2615316904253
674,723.2428121203257
675,723.2244862146218
676,723.2066041067312
677,723.1892152960314
678,723.1723682529537
679,723.156110042897
680,723.1404859709097
681,723.1255392498641
682,723.1113106964759
683,723.0978384605321
684,723.0851577919017
685,723.0733008472712
686,723.0622965350699
687,723.0521703941265
688,723.0429445001561
689,723.0346373941085
690,723.0272640269087
691,723.0208357157422
692,723.0153601080114
693,723.0108411506253
694,723.0072790641142
695,723.0046703226283
696,723.0030076417717
697,723.002279976176
698,723.0024725280637
699,723.0035667675783
700,723.0055404658222
701,723.0083677420967
702,723.012019127501
703,723.016461647759
704,723.021658928853
705,723.0275713295371
706,723.0341561047246
707,723.0413676027351
708,723.0491574974492
709,723.0574750540518
710,723.0662674248889
711,723.0754799704746
712,723.085056600236
713,723.094940128238
714,723.1050726404095
715,723.1153958706755
716,723.1258515832102
717,723.1363819570076
718,723.1469299678761
719,723.1574397623742
720,723.1678570182803
721,723.178129286713
722,723.1882063117487
723,723.1980403243213
724,723.2075863083044
725,723.2168022374748
726,723.2256492820583
727,723.2340919826686
728,723.2420983879193
729,723.2496401504499
730,723.2566925757088
731,723.2632346194952
732,723.2692488336119
733,723.2747212625841
734,723.2796412970259
735,723.2840014907421
736,723.2877973492494
737,723.2910270973566
738,723.2936914332159
739,723.2957932763774
740,723.2973375177359
741,723.2983307792865
742,723.2987811906978
743,723.2986981878362
744,723.2980923362028
745,723.2969751804941
746,723.2953591203094
747,723.2932573111044
748,723.290683588678
749,723.2876524149843
750,723.2841788432738
751,723.2802785013973
752,723.2759675925494
753,723.2712629117968
754,723.2661818747371
755,723.2607425528294
756,723.2549637092723
757,723.2488648297723
758,723.2424661437145
759,723.2357886325075
760,723.2288540226662
761,723.2216847616276
762,723.21430397524
763,723.2067354080112
764,723.1990033500246
765,723.1911325565543
766,723.1831481667457
767,723.1750756262826
768,723.1669406167722
769,723.1587689924846
770,723.1505867230884
771,723.1424198390054
772,723.1342943745425
773,723.1262363036476
774,723.1182714640443
775,723.110425467373
776,723.1027235954273
777,723.0951906848709
778,723.0878510041948
779,723.0807281270052
780,723.0738448056617
781,723.0672228492376
782,723.0608830096504
783,723.0548448794327
784,723.0491268042689
785,723.0437458133537
786,723.0387175705579
787,723.0340563488528
788,723.0297750294844
789,723.0258851264763
790,723.0223968364726
791,723.0193191134658
792,723.0166597670543
793,723.0144255812994
794,723.0126224493945
795,723.0112555179417
796,723.0103293338958
797,723.0098479868388
798,723.0098152389645
799,723.0102346354066
800,723.0111095890002
801,723.0124434362596
802,723.014239464313
803,723.0165009104003
804,723.0192309358121
805,723.0224325755373
806,723.026108664478
807,723.0302617414717
808,723.0348939332783
809,723.0400068215384
810,723.0456012961787
811,723.051677399064
812,723.0582341623208
813,723.0652694467749
814,723.0727797869795
815,723.0807602500591
816,723.0892043159271
817,723.0981037860346
818,723.1074487264099
819,723.1172274487067
820,723.1274265311772
821,723.1380308803604
822,723.1490238336693
823,723.160387302811
824,723.17210195801
825,723.1841474527731
826,723.1965026875326
827,723.2091461077318
828,723.2220560287464
829,723.2352109777017
830,723.2485900413022
831,723.262173208953
832,723.27594170125
833,723.2898782750647
834,723.3039674980533
835,723.3181959874789
836,723.3325526102616
837,723.3470286422611
838,723.361617884493
839,723.3763167331203
840,723.3911242001416
841,723.4060418832348
842,723.4210738851876
843,723.4362266844131
844,723.4515089580367
845,723.4669313585678
846,723.4825062448133
847,723.4982473677445
848,723.5141695128377
849,723.5302881021552
850,723.5466187617678
851,723.5631768623251
852,723.5799770420066
853,723.5970327217215
854,723.614355622822
855,723.6319552981647
856,723.6498386875563
857,723.6680097078307
858,723.6864688863311
859,723.7052130453212
860,723.7242350440771
861,723.7435235845845
862,723.7630630854329
863,723.7828336267497
864,723.802810967284
865,723.8229666335019
866,723.843268080067
867,723.8636789210677
868,723.8841592310678
869,723.9046659140137
870,723.9251531363094
871,723.945572818239
872,723.9658751757003
873,723.9860093024336
874,724.0059237820396
875,724.0255673190097
876,724.0448893780571
877,724.0638408204397
878,724.082374524561
879,724.1004459766634
880,724.1180138167892
881,724.1350403257766
882,724.1514918407921
883,724.1673390895646
884,724.18255743688
885,724.1971270405847
886,724.2110329177045
887,724.2242649240982
888,724.2368176536837
889,724.2486902658942
890,724.2598862522849
891,724.2704131544343
892,724.2802822450997
893,724.2895081835011
894,724.2981086546495
895,724.3061040023721
896,724.3135168656735
897,724.3203718273529
898,724.3266950818501
899,724.3325141265957
900,724.3378574788125
901,724.3427544184151
902,724.3472347571236
903,724.3513286334379
904,724.3550663324435
905,724.358478128757
906,724.3615941506214
907,724.3644442633231
908,724.3670579706745
909,724.3694643342698
910,724.3716919113847
911,724.373768713004
912,724.3757221829053
913,724.3775791975135
914,724.3793660855227
915,724.3811086665115
916,724.3828323081456
917,724.3845620009123
