frame_number,force
0,831.5167800000751
1,831.604075291701
2,831.6856657034309
3,831.7562099561051
4,831.8110939268508
5,831.8467669122592
6,831.8610032010498
7,831.8530489159562
8,831.8236307538834
9,831.7748082835809
10,831.7096602052397
11,831.631835006929
12,831.5450564126317
13,831.4527080676887
14,831.3576007846028
15,831.261959387639
16,831.1675864949354
17,831.0761013130049
18,830.9891344026048
19,830.9083850828084
20,830.8355033967914
21,830.7718249868661
22,830.7180411631207
23,830.6739089926566
24,830.6380988229479
25,830.6082525977043
26,830.5812887501834
27,830.5539305163417
28,830.5233558679153
29,830.4877964045936
30,830.4468948000043
31,830.4016945932522
32,830.3542621961643
33,830.3070651811814
34,830.262288840844
35,830.221247688759
36,830.1839800723126
37,830.1490564981029
38,830.1136080047864
39,830.0735787252679
40,830.0242010482079
41,829.9606591775688
42,829.878848830996
43,829.776092417232
44,829.6516685334744
45,829.5070633515697
46,829.3459162359011
47,829.1736857763323
48,828.9971051728269
49,828.8235313548516
50,828.660304937522
51,828.5142083539841
52,828.3910468698325
53,828.2953231038654
54,828.2299659502155
55,828.1961102737451
56,828.1929740749499
57,828.2179034188985
58,828.2666291148165
59,828.3337211670272
60,828.4131791586718
61,828.4990796817626
62,828.5862001771623
63,828.670530025005
64,828.7495698957372
65,828.8223380759122
66,828.8890625363283
67,828.9506200400136
68,829.0078539359565
69,829.0609371054255
70,829.1089383506268
71,829.1497018919684
72,829.1800710311583
73,829.1963985836204
74,829.1952152075686
75,829.1738950916223
76,829.1311757168271
77,829.0674445293031
78,828.9847744461393
79,828.8867474607832
80,828.7781399390761
81,828.6645518033107
82,828.5520465354385
83,828.4468386553884
84,828.355033549201
85,828.2824029553168
86,828.2341726869162
87,828.2148042428171
88,828.2277624082934
89,828.2752707887828
90,828.3580667109339
91,828.4751844713314
92,828.6238231791643
93,828.7993739306314
94,828.9956659539835
95,829.2054390475489
96,829.4209853090655
97,829.6348576395866
98,829.840525695103
99,830.0328666256521
100,830.2084114742529
101,830.3653339338365
102,830.5032442038705
103,830.622893096467
104,830.7258780627991
105,830.8143940287262
106,830.8910282888045
107,830.958586697434
108,831.019952424929
109,831.0779879700781
110,831.1354748690084
111,831.1950597026329
112,831.2591703372685
113,831.3298865959167
114,831.4087740748995
115,831.4967069274464
116,831.5937195003937
117,831.6989364802304
118,831.8106218441484
119,831.9263516909854
120,832.0432755420586
121,832.1584148963548
122,832.2689615847312
123,832.3725604646063
124,832.4675718644386
125,832.553304892834
126,832.6301980529366
127,832.6999086641861
128,832.7652691787358
129,832.8300796248238
130,832.8987262871993
131,832.9756480000843
132,833.064715910163
133,833.1686357990751
134,833.2884957770826
135,833.4235545765852
136,833.571312869619
137,833.7278526153456
138,833.8883745530087
139,834.0478170293325
140,834.2014168842934
141,834.3450924417253
142,834.4755908652153
143,834.5904250797399
144,834.6876918735305
145,834.7658861202513
146,834.8238078192173
147,834.860613511828
148,834.8760017412541
149,834.8704586096998
150,834.845456262462
151,834.8035226082173
152,834.7481693105256
153,834.6837198063416
154,834.6150801282954
155,834.5474596896731
156,834.4860211996083
157,834.4354466610546
158,834.3994499625005
159,834.3803196628795
160,834.3785993151321
161,834.3929873874097
162,834.4204807717613
163,834.4567278996371
164,834.4965224652353
165,834.5343607015516
166,834.5649931604733
167,834.5839111007834
168,834.5877147256181
169,834.5743277313563
170,834.5430575193413
171,834.4945375560396
172,834.4306008801382
173,834.3541146223256
174,834.2687788491709
175,834.1788858485836
176,834.0890463077089
177,834.0038994790248
178,833.9278316001953
179,833.8647321632467
180,833.8178111192951
181,833.7894768926878
182,833.7812500715569
183,833.7936765078226
184,833.8262098766905
185,833.8770593542015
186,833.9430409378683
187,834.0195116590589
188,834.1004754802805
189,834.1789124937694
190,834.2473121846601
191,834.298325953256
192,834.3254305594064
193,834.3235145720766
194,834.289337248637
195,834.2218393505689
196,834.1222980461914
197,833.9943126868119
198,833.8435955738443
199,833.6775395809184
200,833.5045555736612
201,833.3332208797777
202,833.171347002639
203,833.0251312446511
204,832.8985620283735
205,832.7931815052453
206,832.7081995206967
207,832.6408630427278
208,832.5869608402604
209,832.5413751336145
210,832.4986359251541
211,832.4534595363134
212,832.4012582149452
213,832.3385996424726
214,832.2635820869474
215,832.1760844447468
216,832.0778566566194
217,831.9724293395466
218,831.8648361661941
219,831.761161548517
220,831.6679487460799
221,831.59151545194
222,831.5372207751017
223,831.5087346447924
224,831.5073976431216
225,831.5317987434053
226,831.5776948875691
227,831.6383395160416
228,831.7052024978626
229,831.7689814641669
230,831.8207452786838
231,831.8530270654104
232,831.8606987024432
233,831.841501312187
234,831.7961655052604
235,831.72812206569
236,831.6428683691246
237,831.5471096035354
238,831.4478285349262
239,831.3514381656888
240,831.2631302738346
241,831.1864691567695
242,831.1232281012723
243,831.0734414138187
244,831.0356357620366
245,831.0071948822017
246,830.984797698722
247,830.9648591161529
248,830.9439073288536
249,830.9188574403919
250,830.8871768663582
251,830.8469635529384
252,830.7969675592317
253,830.7365857365298
254,830.6658472636173
255,830.5853846942379
256,830.4963683517194
257,830.4003884862585
258,830.2992913450329
259,830.1949920435851
260,830.0892933435762
261,829.9837418293204
262,829.8795520977601
263,829.7776178266156
264,829.6786042048268
265,829.5830897036362
266,829.4917101869543
267,829.4052610301617
268,829.3247288462874
269,829.2512424015742
270,829.1859439897019
271,829.1297913783939
272,829.083316981597
273,829.0463968775089
274,829.0181037959384
275,828.9967165181024
276,828.9799245391853
277,828.9652088262071
278,828.9503187794858
279,828.9337297806856
280,828.9149737123398
281,828.894781481297
282,828.8750340947483
283,828.85855840674
284,828.8488164828598
285,828.8495347226938
286,828.864314045263
287,828.8962559540624
288,828.9476245161977
289,829.0195479866609
290,829.1117624481594
291,829.2224149270206
292,829.3479616881943
293,829.4832083456275
294,829.6215334639754
295,829.755309751457
296,829.8764958405875
297,829.9773362261233
298,830.0510863597938
299,830.0926732104452
300,830.0992092066556
301,830.0703013081571
302,830.0081302984022
303,829.9173018543047
304,829.804483149791
305,829.6778495592552
306,829.5463879006752
307,829.4191277098141
308,829.3043859793826
309,829.2091114586901
310,829.1384041226561
311,829.0952600192085
312,829.080550971626
313,829.0932056652167
314,829.1305330095978
315,829.1886270918847
316,829.2628021310254
317,829.3480120532181
318,829.4392160414818
319,829.5316650391461
320,829.6211023376429
321,829.7038938347839
322,829.7771284877339
323,829.8387374541055
324,829.8876512686893
325,829.923959381531
326,829.9489921270117
327,829.9652394094344
328,829.9760565639519
329,829.9851751369689
330,829.9961145987822
331,830.0116458529575
332,830.0334523817985
333,830.062064401382
334,830.0970453448657
335,830.1373428005278
336,830.1816997882844
337,830.2290358184385
338,830.2787224271498
339,830.330695670129
340,830.3853846871215
341,830.4434845185797
342,830.5056366603355
343,830.5720936281566
344,830.6424466057667
345,830.7154878218302
346,830.789243137685
347,830.8611473800762
348,830.9282849699447
349,830.9876205382117
350,831.0361927372112
351,831.0712946741813
352,831.0906794504443
353,831.0928094817314
354,831.0771356547024
355,831.0443639979736
356,830.9966492309508
357,830.9376501488811
358,830.8723995897681
359,830.8069856298998
360,830.748094427114
361,830.7024953993125
362,830.6765364528384
363,830.6756791389508
364,830.7040773934541
365,830.7642044507165
366,830.8565487432904
367,830.9794134372626
368,831.1288601655069
369,831.2988392885057
370,831.4815395131873
371,831.667952424746
372,831.8485906811219
373,832.0142597126676
374,832.1567843010861
375,832.2696176620732
376,832.3482840962589
377,832.3906186985097
378,832.3967831302785
379,832.3690672897662
380,832.3115202070064
381,832.229469821782
382,832.1289947378057
383,832.0164143550969
384,831.8978590304843
385,831.7789581977762
386,831.664653879423
387,831.5591290569552
388,831.4658361914771
389,831.3876073817759
390,831.3268141608863
391,831.2855254719829
392,831.2656011446738
393,831.2686681751146
394,831.2959614372919
395,831.348058868285
396,831.4245805141011
397,831.5239304564203
398,831.6431420249269
399,831.7778568226582
400,831.9224391554035
401,832.0702059795407
402,832.2137457459139
403,832.3453076115499
404,832.45725307457
405,832.5425611074861
406,832.5953585029532
407,832.6114126638373
408,832.588493944752
409,832.526518408322
410,832.4274327444931
411,832.29488194226
412,832.1337682436741
413,831.9498322129854
414,831.7493508141695
415,831.538971605702
416,831.3256278336802
417,831.116443914881
418,830.918554237002
419,830.7388040810184
420,830.5833596924389
421,830.4573078558285
422,830.3643458438404
423,830.3066261051438
424,830.2847460460304
425,830.2978176076508
426,830.3435484590301
427,830.4183033175732
428,830.5171585188277
429,830.6339927825765
430,830.761659963879
431,830.8922673952694
432,831.0175545584891
433,831.1293468089135
434,831.2200482814161
435,831.2831372303085
436,831.3136398668522
437,831.3085727711589
438,831.2673328611809
439,831.1919745619708
440,831.0872807429557
441,830.9605455739893
442,830.8210477035025
443,830.6792668228192
444,830.5459439265139
445,830.4310949344942
446,830.3430826868515
447,830.2878513933063
448,830.2684157224148
449,830.2846558396211
450,830.3334176178398
451,830.4088896474499
452,830.5032282483743
453,830.6073953319011
454,830.7121391703184
455,830.8089992064307
456,830.891186956659
457,830.9542100312505
458,830.9961649149298
459,831.0177014061092
460,831.0217175541644
461,831.0128550045961
462,830.9968531595887
463,830.9798250452942
464,830.9675372208873
465,830.9647784263757
466,830.9748769484022
467,830.9993966654029
468,831.0380249750691
469,831.0886573163571
470,831.1476677499792
471,831.2103291155435
472,831.2713195053464
473,831.3252373784874
474,831.367056318369
475,831.3924833904923
476,831.398224575269
477,831.3821806633981
478,831.3435858538472
479,831.283071246
480,831.202615802464
481,831.1053628877423
482,830.9953212959354
483,830.8769981945983
484,830.7550104671822
485,830.6337120648412
486,830.5168815719816
487,830.4075279697066
488,830.3078635538221
489,830.219446681759
490,830.1434371757499
491,830.0808729938368
492,830.0328825111358
493,830.0007767851978
494,829.9860005776844
495,829.9899518523321
496,830.0137085654152
497,830.0577278530492
498,830.1215940448511
499,830.2038757380834
500,830.3021152415089
501,830.4129386756865
502,830.5322564776731
503,830.6555193260272
504,830.777995211113
505,830.8950344827537
506,831.0022916567874
507,831.0958830986931
508,831.172484989876
509,831.2294080994451
510,831.2647033872843
511,831.2773363574017
512,831.2674184482037
513,831.236428209258
514,831.1873338313155
515,831.1245582697147
516,831.053783062806
517,830.9816259137865
518,830.91523378961
519,830.8618211798638
520,830.8281714084485
521,830.8201177808668
522,830.8420322172461
523,830.8963643954232
524,830.9832841287111
525,831.1004812588368
526,831.2431738632158
527,831.4043633089933
528,831.5753404220695
529,831.7463878418456
530,831.9075699946011
531,832.049499726627
532,832.1640232580197
533,832.2448172692458
534,832.2878909185349
535,832.2919432172778
536,832.2584992637878
537,832.191774777526
538,832.0982837185588
539,831.9862633367153
540,831.8650111670535
541,831.7442139068839
542,831.6333249888345
543,831.5410313604564
544,831.4748391128983
545,831.4407966560026
546,831.4433577716203
547,831.4853609039926
548,831.5680711378697
549,831.6912169497682
550,831.8529733961686
551,832.049892216329
552,832.2768288406819
553,832.526939049628
554,832.7918086655351
555,833.0617521671431
556,833.3262861718182
557,833.5747558651244
558,833.7970656997347
559,833.9844458915065
560,834.1301795126923
561,834.2302132492217
562,834.2835698254861
563,834.2924879023008
564,834.2622579293928
565,834.2007865216718
566,834.1179667811807
567,834.0249362963604
568,833.9332814796738
569,833.8542227797016
570,833.797809982579
571,833.7721733976483
572,833.7829008642271
573,833.8326244665459
574,833.9208943832449
575,834.0443834575384
576,834.1974020248467
577,834.3726260195631
578,834.5618919876631
579,834.7569178971831
580,834.9498566952109
581,835.1336480899965
582,835.3021831923738
583,835.4503320932329
584,835.5739028880975
585,835.6695976493038
586,835.7350081228192
587,835.7686596163392
588,835.7700766758525
589,835.7398226010242
590,835.6794673652075
591,835.5914611960847
592,835.4789188038862
593,835.3453435602215
594,835.1943417925308
595,835.0293850020366
596,834.8536560481899
597,834.6699733356867
598,834.4807620978539
599,834.2880537319883
600,834.093518432286
601,833.8985392705649
602,833.7043154314089
603,833.5119621862866
604,833.3225759175922
605,833.1372575581115
606,832.95711910574
607,832.7833040855221
608,832.6170231519942
609,832.4595683580987
610,832.3122604324735
611,832.1763124540139
612,832.0526398315016
613,831.94167780942
614,831.843265714663
615,831.7566290629852
616,831.6804555498177
617,831.6130357890204
618,831.5524318049864
619,831.4966404512076
620,831.4437276734836
621,831.3919228460252
622,831.339679447623
623,831.2857194576022
624,831.2290729927497
625,831.1691029291433
626,831.1054848175687
627,831.0381164752625
628,830.9669600520212
629,830.8918503974829
630,830.8123165705276
631,830.7274590254972
632,830.6359180974849
633,830.5359639176241
634,830.4257211308551
635,830.3035086732101
636,830.1682414600286
637,830.0198207157449
638,829.8594283889256
639,829.6896419536438
640,829.5143213938438
641,829.3382908093454
642,829.166898641861
643,829.005552478271
644,828.8592977042647
645,828.7324821206021
646,828.6285346775836
647,828.5498699251126
648,828.4979020650615
649,828.473130515024
650,828.4752591378449
651,828.5033233652728
652,828.5558001655951
653,828.6306616362492
654,828.7253279340354
655,828.8365045008513
656,828.9599461392626
657,829.0902401986443
658,829.220711611003
659,829.3435250272602
660,829.4500181939196
661,829.5312617357392
662,829.5787999676559
663,829.5854852325787
664,829.5462921329746
665,829.4590012271898
666,829.3246648747582
667,829.1477958039438
668,828.936251298297
669,828.7008246519736
670,828.4545873957759
671,828.2120384533055
672,827.9881194502409
673,827.7971646968009
674,827.6518674183061
675,827.5623455010755
676,827.5353749732359
677,827.5738395591416
678,827.6764335186538
679,827.8376514514651
680,828.0480928619285
681,828.2950942360924
682,828.5636717170102
683,828.8377110717806
684,829.1012904983002
685,829.3399879424946
686,829.5420219026549
687,829.69909972655
688,829.8068881994265
689,829.8650715909605
690,829.8770189732218
691,829.8491308528613
692,829.789957902957
693,829.7091869506751
694,829.6165925062695
695,829.521062938237
696,829.4298147500501
697,829.3478893852373
698,829.2779807716807
699,829.2205827136091
700,829.174395469463
701,829.1369004324239
702,829.1049966575997
703,829.0755926741126
704,829.0460682741983
705,829.0145611976342
706,828.9800774377591
707,828.9424601294343
708,828.9022780894252
709,828.8607013007116
710,828.8194040518712
711,828.780488546089
712,828.7463884519746
713,828.7197179179711
714,828.7030686731646
715,828.6987957305344
716,828.7088429876105
717,828.7346380494271
718,828.7770506653789
719,828.8363866986117
720,828.9123881373403
721,829.0042210371671
722,829.1104488323724
723,829.2290084184906
724,829.3572299819115
725,829.491951676218
726,829.6297531121664
727,829.7672712864946
728,829.9015124143891
729,830.0300750034239
730,830.1512472677005
731,830.2639921960334
732,830.3678560099652
733,830.4628333246553
734,830.5492100879432
735,830.6273947095317
736,830.6977451960566
737,830.7604026877757
738,830.8151431954572
739,830.8612654787398
740,830.8975503372569
741,830.922336241068
742,830.9337314160578
743,830.9299305081571
744,830.9095632513419
745,830.8720004886854
746,830.8175735330532
747,830.7477013121315
748,830.6649423977389
749,830.5729830158537
750,830.4765458547555
751,830.3811879098699
752,830.2929681736528
753,830.2179930662932
754,830.1618684560275
755,830.1291044357683
756,830.1225402896694
757,830.1428733241331
758,830.1883748872933
759,830.2548621194151
760,830.3359702197727
761,830.4237337144115
762,830.5094328533847
763,830.5846018000351
764,830.642047701004
765,830.6767146008192
766,830.6862554586219
767,830.6712407055782
768,830.6350051653086
769,830.5831884339502
770,830.5230469564041
771,830.4626216777066
772,830.409851242283
773,830.3717281112423
774,830.3535909244333
775,830.3586255515672
776,830.3876164764607
777,830.4389585554486
778,830.5089124742834
779,830.5920664377014
780,830.6819481354569
781,830.7717129274743
782,830.8548221126875
783,830.9256285621509
784,830.9798125802338
785,831.0146563248304
786,831.0291924121359
787,831.0242813456715
788,831.0026432218833
789,830.968805087459
790,830.9288699515112
791,830.8900122811451
792,830.8596738435616
793,830.8445438349469
794,830.8495011876178
795,830.8767318494097
796,830.9252030502357
797,830.9905986559094
798,831.0657260096206
799,831.141327916358
800,831.2071855873959
801,831.2533664065443
802,831.2714450459633
803,831.2555214268243
804,831.2028921566343
805,831.1143002982986
806,830.9937682176004
807,830.8480827252157
808,830.686035841832
809,830.517534438941
810,830.3526943635293
811,830.2010314773422
812,830.0708377713211
813,829.9687795349834
814,829.8996993072848
815,829.8665769760703
816,829.8706131550887
817,829.9114108403855
818,829.9872267544977
819,830.0952531062036
820,830.2318912433298
821,830.3929863226406
822,830.5739991733064
823,830.7701077477425
824,830.9762629868936
825,831.187255694526
826,831.3978570918603
827,831.6030686487261
828,831.7984671835934
829,831.9805786100488
830,832.1471853196502
831,832.2974878864213
832,832.4320900258194
833,832.5528227959356
834,832.662447717725
835,832.7642819671413
836,832.8617876238276
837,832.9581701560659
838,833.0560343441055
839,833.1571403008822
840,833.2622859579449
841,833.3713178927768
842,833.4832441032124
843,833.5963983462407
844,833.7085974363906
845,833.817251473093
846,833.9194316410365
847,834.0119449088317
848,834.091473261491
849,834.1548003316291
850,834.199100833169
851,834.2222400476259
852,834.2230293062461
853,834.2013985049219
854,834.158465884286
855,834.096500426897
856,834.0187786219515
857,833.9293378689621
858,833.8326354006798
859,833.7331429944969
860,833.6349366134635
861,833.5413578152594
862,833.454815183044
863,833.3767581570718
864,833.3078071318179
865,833.2479845404548
866,833.1969758442981
867,833.1543545879222
868,833.1197212385887
869,833.0927236709406
870,833.0729472947029
871,833.0596885726324
872,833.0516573380455
873,833.0466855385305
874,833.0415441279995
875,833.0319699724033
876,833.0129640128881
877,832.9793474368605
878,832.9264886382051
879,832.8510706021407
880,832.7517608172375
881,832.6296649295248
882,832.4884826964726
883,832.334331631974
884,832.1752520994128
885,832.0204557015636
886,831.8794236220059
887,831.7609887995945
888,831.67253118235
889,831.6193821819118
890,831.6044869937427
891,831.6283215902204
892,831.6890180038461
893,831.7826385602715
894,831.9035600518769
895,832.0449487975362
896,832.1992937926938
897,832.3589309225378
898,832.5164807105245
899,832.6651567891647
900,832.7989619898403
901,832.9128353464079
902,833.0028164207473
903,833.0662510234054
904,833.1020084561007
905,833.1106560886576
906,833.0945469460094
907,833.057791192015
908,833.0060876428712
909,832.9464033213769
910,832.886522195058
911,832.8345213163125
912,832.7982425451925
913,832.7848066098795
914,832.8001936677877
915,832.8489149130735
916,832.9338068731684
917,833.0559634039889
