frame_number,force
0,600.9005700000347
1,600.9448844415081
2,600.987913622377
3,601.0288236380486
4,601.0675256392993
5,601.1047129146502
6,601.1416387398983
7,601.1797288439311
8,601.2201753833399
9,601.263643597277
10,601.3101545748387
11,601.3591351978674
12,601.4095864900985
13,601.4603173082231
14,601.5102020686392
15,601.5584339763435
16,601.6047584819607
17,601.6496828768744
18,601.6946544637419
19,601.7421780104023
20,601.7958194990284
21,601.8600402771808
22,601.9398352172528
23,602.0402005256735
24,602.165505507545
25,602.318867504118
26,602.5016277552147
27,602.7130051024762
28,602.9499725747753
29,603.2073684712292
30,603.4782268109725
31,603.7542944170654
32,604.0266900535112
33,604.2866481908627
34,604.5262720719674
35,604.7392068456008
36,604.9211514561733
37,605.070159275237
38,605.1867116895214
39,605.2735714121567
40,605.3354377776221
41,605.3784419120657
42,605.4095356029776
43,605.4358400665237
44,605.4640224920549
45,605.4997549266839
46,605.5472867637466
47,605.6091396218887
48,605.6859251010413
49,605.7762981987727
50,605.8770741601245
51,605.983524620047
52,606.0898283352833
53,606.1896145636729
54,606.2765305462315
55,606.3447823732681
56,606.389615072551
57,606.407700191584
58,606.3973948346925
59,606.3588359299154
60,606.2938439365824
61,606.20563653605
62,606.0983949979279
63,605.9767695920349
64,605.8454297041804
65,605.7087423978384
66,605.5706104068607
67,605.4344441156351
68,605.3032041815751
69,605.179443769656
70,605.0653030804054
71,604.9624511275455
72,604.8720090436481
73,604.7945058706358
74,604.7299014728703
75,604.6776723657223
76,604.6369278947659
77,604.6065297961793
78,604.5852108785189
79,604.5716940618787
80,604.5647928227627
81,604.5634499664183
82,604.566670665793
83,604.5733389745221
84,604.5819617576261
85,604.5904305734113
86,604.595902103827
87,604.5948645448826
88,604.5834015549792
89,604.5576152117571
90,604.5141400678497
91,604.4506728511845
92,604.3664488667323
93,604.2626051925474
94,604.1423771318141
95,604.0110837434166
96,603.875878714158
97,603.7452732160141
98,603.6284654190728
99,603.5345260967672
100,603.4714959696051
101,603.445465102762
102,603.4597347300682
103,603.5141887558204
104,603.6049991925605
105,603.72474996191
106,603.8629991797335
107,604.0072270392619
108,604.1440515238733
109,604.2605566900963
110,604.3455768773052
111,604.3907998608337
112,604.3915698015694
113,604.3472885383381
114,604.2613529965741
115,604.1406315317377
116,603.9945539756458
117,603.8339517238196
118,603.6698219987369
119,603.5121893622633
120,603.3691999903356
121,603.2465347727069
122,603.1471816542422
123,603.0715594426508
124,603.0179328756341
125,602.9830188777754
126,602.9626698855508
127,602.9525267403852
128,602.9485517000675
129,602.947381840604
130,602.9464880041471
131,602.9441781574255
132,602.9395257863396
133,602.9323089511347
134,602.9230064075515
135,602.9128352555726
136,602.9037663972892
137,602.8984451202882
138,602.8999734489895
139,602.9115558596756
140,602.9360469905699
141,602.9754634686644
142,603.0305397849465
143,603.1004206589847
144,603.1825762367496
145,603.272991021937
146,603.3666163192283
147,603.4580038321978
148,603.5419788115944
149,603.6141963985558
150,603.6714730014995
151,603.7118739741009
152,603.7346149808933
153,603.7398558259362
154,603.7284410437678
155,603.7016161361535
156,603.660751883789
157,603.6071268455515
158,603.5418153448418
159,603.4656937388606
160,603.3795313304324
161,603.2841021065403
162,603.180258767503
163,603.0689504020467
164,602.9512140956035
165,602.8281963519021
166,602.701249609109
167,602.5721124085348
168,602.4431348633441
169,602.3174687810404
170,602.1991257728678
171,602.0928348430343
172,602.003691057227
173,601.9366441819335
174,601.8959087492378
175,601.8843858333861
176,601.903180914915
177,601.9512879765326
178,602.0254888792931
179,602.1204901530822
180,602.2292918866733
181,602.3437591517926
182,602.4553429797054
183,602.5558739065913
184,602.6383333332342
185,602.697507153947
186,602.7304444241977
187,602.7366734666505
188,602.718163090087
189,602.6790529851083
190,602.625202263911
191,602.5636082315485
192,602.5017350487713
193,602.446780978222
194,602.4049191440592
195,602.3805755342283
196,602.3758445045077
197,602.3901553220413
198,602.4202727661642
199,602.4606529099809
200,602.504114608095
201,602.5427465263795
202,602.5689425732032
203,602.5764356439669
204,602.5611849603812
205,602.5219796899789
206,602.4606611047374
207,602.3819325511013
208,602.2927986162757
209,602.2017281332052
210,602.117665783776
211,602.0490340601709
212,602.0028690784743
213,601.9842034244365
214,601.9957459345956
215,602.0378412831051
216,602.1086527557655
217,602.2045039952052
218,602.3203240915512
219,602.4501503407138
220,602.5876468268968
221,602.7265945726554
222,602.8613086541906
223,602.9869480916325
224,603.0997024279079
225,603.1968531824525
226,603.2767135262401
227,603.3384509726839
228,603.3818046242455
229,603.4067266353521
230,603.4130031057932
231,603.3999261675425
232,603.3660840484429
233,603.3093154685766
234,603.2268489092077
235,603.1156158813445
236,602.9726947435739
237,602.795824049026
238,602.5839267383451
239,602.3375921579806
240,602.0594558347832
241,601.7543993450814
242,601.4294834032158
243,601.0935535341299
244,600.7565301436888
245,600.428482584658
246,600.118639582002
247,599.834487682372
248,599.5810773676752
249,599.3606187228634
250,599.1724104725009
251,599.0131052292478
252,598.8772744244426
253,598.7582037798687
254,598.648823883097
255,598.5426630764988
256,598.4347072294522
257,598.3220608137188
258,598.2043219815245
259,598.0836182391605
260,597.9643044642169
261,597.8523875707397
262,597.7547893915387
263,597.6785781240553
264,597.630285725957
265,597.6153858075908
266,597.6379445171168
267,597.7004018907631
268,597.8034273789589
269,597.945833106127
270,598.1245888387435
271,598.335006418799
272,598.5711210198281
273,598.8262218138027
274,599.0934340002951
275,599.3662633390895
276,599.6390670777939
277,599.9074578347954
278,600.1686421695111
279,600.4216601092229
280,600.6674685410837
281,600.9088181945325
282,601.1499003883613
283,601.395773445729
284,601.6516174276798
285,601.9219087697468
286,602.2096399918258
287,602.5157112411615
288,602.8385844383264
289,603.1742382990241
290,603.5164186682299
291,603.8571537343165
292,604.1874893457804
293,604.4983736328306
294,604.7815737612534
295,605.0304695305202
296,605.2405797366192
297,605.4097463906741
298,605.5379959006282
299,605.6271673246727
300,605.6804177447663
301,605.7016914810108
302,605.6952031233919
303,605.6649613224529
304,605.614361197621
305,605.5458883576399
306,605.4609843781099
307,605.360104332978
308,605.2429545289698
309,605.1088553327693
310,604.9571510169981
311,604.7875888053873
312,604.6006046913815
313,604.397479459677
314,604.1803610076362
315,603.9521759167388
316,603.7164601018736
317,603.4771284019794
318,603.2381938744456
319,603.0034494097168
320,602.7761342642351
321,602.5586223603669
322,602.3521823582565
323,602.156859143428
324,601.9715050896566
325,601.7939561062399
326,601.6213184598446
327,601.4503198063201
328,601.2776839220387
329,601.1005023071895
330,600.9165823242774
331,600.7247492224628
332,600.5250775783659
333,600.3190282492184
334,600.1094655257738
335,599.9005314327228
336,599.6973687966159
337,599.5057067284922
338,599.331343353503
339,599.1795832556752
340,599.0547089425801
341,598.9595698835383
342,598.8953479251999
343,598.8615144091348
344,598.8559537543438
345,598.8752041882645
346,598.9147581624726
347,598.9693702014985
348,599.0333418572745
349,599.1007878557065
350,599.1659142841003
351,599.2233414290056
352,599.2684822535658
353,599.2979540432012
354,599.3099660732012
355,599.3046026819615
356,599.2839226427039
357,599.2518257400667
358,599.2136827920593
359,599.175768596539
360,599.1445724068863
361,599.1260867782602
362,599.1251837823553
363,599.1451676516539
364,599.1875488727895
365,599.2520325053443
366,599.3366724498437
367,599.4381307150161
368,599.5519983655394
369,599.6731606785471
370,599.7961963054055
371,599.915787119874
372,600.0271045859773
373,600.1261468484588
374,600.2100191125486
375,600.2771549178696
376,600.3274590206266
377,600.3623318656888
378,600.3845360669676
379,600.3978931622846
380,600.4068404156877
381,600.4159136217502
382,600.4292380614615
383,600.4500994132665
384,600.4806351371383
385,600.521651756628
386,600.5725514719735
387,600.6313479760236
388,600.6947625878962
389,600.7584111405996
390,600.8171076430538
391,600.8653056121157
392,600.8976622821614
393,600.9096584477785
394,600.8981709604396
395,600.861899776387
396,600.8015900426367
397,600.7200334178926
398,600.6218582313135
399,600.5131274659259
400,600.4007762524286
401,600.2919439141036
402,600.1932767709675
403,600.1102837486108
404,600.0468175510201
405,600.0047360167879
406,599.9837736910458
407,599.9816256537931
408,599.9942238203705
409,600.016173259935
410,600.0413005334366
411,600.0632443016628
412,600.0760122485733
413,600.0744547742157
414,600.054646785544
415,600.0141910177853
416,599.9524487189243
417,599.8706798217979
418,599.7720527634516
419,599.661476379484
420,599.5452198539145
421,599.4303228164197
422,599.3238497424741
423,599.2320924109525
424,599.1598468962567
425,599.1098785265086
426,599.0826536619987
427,599.0763749721979
428,599.0873086027749
429,599.1103453440531
430,599.1397105482309
431,599.169730237271
432,599.1955588505018
433,599.2137742390923
434,599.2227615714163
435,599.2228453922547
436,599.2161725341377
437,599.2063778571992
438,599.1980760718697
439,599.1962303029964
440,599.2054684969081
441,599.2294507545421
442,599.2704053927166
443,599.3289187749498
444,599.403993497744
445,599.4933264859244
446,599.5937306367568
447,599.7016182123318
448,599.8134640696799
449,599.9261795611218
450,600.0373628772654
451,600.1454303573474
452,600.249647525167
453,600.3500683228419
454,600.4473843611879
455,600.542702942593
456,600.6373027906956
457,600.7324335248547
458,600.8292118041384
459,600.92862440984
460,601.0315928770804
461,601.1390173614504
462,601.2517294411117
463,601.3703388221847
464,601.4950157135186
465,601.6252777385488
466,601.7598512667238
467,601.896665320482
468,602.0330109419247
469,602.1658526363432
470,602.292218586957
471,602.409552685438
472,602.5159179261132
473,602.610005050595
474,602.6909894149439
475,602.7583373314412
476,602.8116569834485
477,602.8506358866961
478,602.875054890941
479,602.8848492165495
480,602.8801905399018
481,602.8615623093618
482,602.8297873468434
483,602.7859662625881
484,602.7313145074701
485,602.6669296090282
486,602.5935487645565
487,602.5113588553618
488,602.4199089057417
489,602.318163559008
490,602.2047199697214
491,602.0781760482319
492,601.9375903568023
493,601.7829370080655
494,601.6154504413756
495,601.4377724926196
496,601.2538475995387
497,601.0685596468179
498,600.8871627986499
499,600.7146071916177
500,600.5548740349715
501,600.4104158970055
502,600.2817720419379
503,600.1674110231909
504,600.0638348437232
505,599.9659470805044
506,599.8676420315086
507,599.7625280836726
508,599.6446748945078
509,599.5092814323691
510,599.3531939134976
511,599.1752373392688
512,598.9763421197127
513,598.7594520322397
514,598.5292141673901
515,598.2914838394936
516,598.0527091709953
517,597.8192746895121
518,597.5968867544351
519,597.3900871016631
520,597.2019768754719
521,597.0342004353582
522,596.8871701624332
523,596.7604395506053
524,596.6530935994227
525,596.5640398082852
526,596.4921366969328
527,596.4361663023626
528,596.3947168766608
529,596.3660655544476
530,596.3481316041816
531,596.3385353000658
532,596.33477234874
533,596.3344939649447
534,596.3358517582824
535,596.3378323616582
536,596.3404946397152
537,596.3450449152822
538,596.3537289955098
539,596.3695592023306
540,596.3959210331268
541,596.4361233748923
542,596.49296501733
543,596.5683766666996
544,596.6631671515315
545,596.7768784458026
546,596.9077499392356
547,597.0527987464092
548,597.2080232422375
549,597.368723693302
550,597.5299084376973
551,597.6867254845489
552,597.8348449112627
553,597.9707331550353
554,598.0918012845611
555,598.1964458726668
556,598.2840080153104
557,598.3546623449332
558,598.409242734997
559,598.4490260011295
560,598.4755116145897
561,598.4902316291982
562,598.4946012520672
563,598.4898003357002
564,598.4766770429721
565,598.4556823745039
566,598.4268638352081
567,598.3899538751621
568,598.3445732990242
569,598.2905370260505
570,598.2282185805389
571,598.158911647275
572,598.0851187542949
573,598.0106966904349
574,597.94080275745
575,597.881619861689
576,597.839881677614
577,597.8222547013047
578,597.8346553193344
579,597.8815915648611
580,597.9656209868141
581,598.0869972918345
582,598.2435341692184
583,598.4306642142953
584,598.6416471890308
585,598.8678981955265
586,599.0994396232711
587,599.3254924177961
588,599.535195257584
589,599.7183959647199
590,599.8664328844628
591,599.9728238753441
592,600.0337894378896
593,600.0485463958619
594,600.0193309038623
595,599.951147845876
596,599.8512821629765
597,599.7286319775678
598,599.5929336777521
599,599.4539507783402
600,599.3206945124966
601,599.2007386266785
602,599.099687669253
603,599.020853481494
604,598.9651773803988
605,598.9314010505464
606,598.9164499247665
607,598.9159676918174
608,598.924936539177
609,598.9383250175541
610,598.9517068509778
611,598.9617849819728
612,598.9667532669506
613,598.9664497775068
614,598.9622923456683
615,598.9570234104522
616,598.9543243983762
617,598.9583840239927
618,598.9735023506846
619,599.0037773240613
620,599.0528733189473
621,599.1238398693871
622,599.2189458430814
623,599.3395142030602
624,599.4857683906769
625,599.6567163067001
626,599.8500964073436
627,600.0624000353822
628,600.2889763021382
629,600.5242265749365
630,600.7618988890033
631,600.9954853781719
632,601.2187038219466
633,601.4260174098882
634,601.6131268587723
635,601.7773606384857
636,601.917893846856
637,602.0357488043549
638,602.1335691305076
639,602.215197218766
640,602.2851071428756
641,602.3477565185276
642,602.4069371161328
643,602.4652252120128
644,602.523638059416
645,602.5815717274583
646,602.6370338872666
647,602.6871225439288
648,602.7286588833061
649,602.758858957561
650,602.7759236138405
651,602.779445468114
652,602.7705764063279
653,602.7519554234237
654,602.7274433718123
655,602.701731039718
656,602.6798788234923
657,602.6668287188459
658,602.6669221097484
659,602.6834605066153
660,602.7183502946218
661,602.7718719579924
662,602.8426090336505
663,602.9275589911705
664,603.0224243494114
665,603.1220511089591
666,603.220952807202
667,603.3138440323994
668,603.39611167894
669,603.4641688486759
670,603.5156616977049
671,603.5495376841551
672,603.5660209183204
673,603.5665453721837
674,603.5536619877317
675,603.5308911633106
676,603.5024752172772
677,603.4730140711417
678,603.4470256552905
679,603.4285170482956
680,603.420650522277
681,603.4255452824922
682,603.4441991029621
683,603.4764764507553
684,603.521113040181
685,603.5757240929748
686,603.636843238859
687,603.700038815058
688,603.7601565086264
689,603.8117265121646
690,603.8495404984683
691,603.8693418057776
692,603.8685021732861
693,603.8465238336128
694,603.8052333134103
695,603.7486089327078
696,603.6822741670918
697,603.6127657824862
698,603.5467295152774
699,603.4901977792161
700,603.448068302245
701,603.4238419418017
702,603.4196072682226
703,603.4362000476995
704,603.4734369284607
705,603.5303303009648
706,603.6052306618191
707,603.6959002047223
708,603.799569108623
709,603.9130355615448
710,604.032839111612
711,604.1554918910183
712,604.2777275693556
713,604.3967359637148
714,604.5103729931524
715,604.6173398043146
716,604.717302289113
717,604.8108973225005
718,604.8995764766025
719,604.9852795037509
720,605.0699889102934
721,605.1552624772311
722,605.2418483031364
723,605.3294564651142
724,605.4167186669958
725,605.5013350887156
726,605.5803805208932
727,605.6507093769555
728,605.7093760586047
729,605.753992052606
730,605.7829655455577
731,605.7955954122207
732,605.7920207115507
733,605.7730636372065
734,605.7400293165655
735,605.6945183064001
736,605.6382772985952
737,605.5730918485157
738,605.5007239110167
739,605.4228975539634
740,605.3413209483448
741,605.2577145028006
742,605.17381880321
743,605.0913817057162
744,605.0121434046068
745,604.9378274982149
746,604.8701129777081
747,604.8105423261187
748,604.7603444242516
749,604.7202113166875
750,604.6901237078889
751,604.6693258891086
752,604.6564945221626
753,604.6500606439141
754,604.6485801729361
755,604.6510320343829
756,604.656949666741
757,604.6663417311937
758,604.6794155998671
759,604.6961750583963
760,604.716013355809
761,604.7374444606697
762,604.7580839961411
763,604.7749041536289
764,604.7846830758039
765,604.7845063418287
766,604.7721847715961
767,604.7465108570838
768,604.7073448978784
769,604.6555686654369
770,604.592959644507
771,604.5220284115138
772,604.4458316963354
773,604.3677369289187
774,604.2911002892995
775,604.2188527408813
776,604.1530515269503
777,604.0945033456535
778,604.0425681556234
779,603.9952124243114
780,603.9493210557654
781,603.9012210639952
782,603.847331531423
783,603.784836184021
784,603.7122713257069
785,603.6299307877924
786,603.5400149035543
787,603.4464928825665
788,603.3547017218632
789,603.2707582847722
790,603.2008935151478
791,603.1508108158619
792,603.1251323185231
793,603.1269576855549
794,603.1575416877467
795,603.2160962860527
796,603.2997279004627
797,603.4035227699167
798,603.5207907669737
799,603.6434732826076
800,603.7627137248936
801,603.8695713684509
802,603.9558241286841
803,604.0147628625396
804,604.0418503300945
805,604.0351171702952
806,603.9952006929678
807,603.9250037253635
808,603.8290480796805
809,603.7126751405148
810,603.5812604704063
811,603.4395689470002
812,603.2913271977735
813,603.1390524344645
814,602.9841359059966
815,602.8271246811718
816,602.6680986226133
817,602.5070309220781
818,602.3440541365376
819,602.1796026979227
820,602.0144392343132
821,601.8495885208806
822,601.6862089259301
823,601.525436067889
824,601.3682355884225
825,601.2152932692027
826,601.0669515769184
827,600.9231859181969
828,600.7836115426878
829,600.6475188409242
830,600.5139422863252
831,600.3817704864887
832,600.2498968191392
833,600.1173950928262
834,599.9836955325351
835,599.8487379260886
836,599.7130788615755
837,599.5779207778778
838,599.4450261328366
839,599.3164998713459
840,599.1944651638022
841,599.0806965465849
842,598.976290577901
843,598.8814485444407
844,598.7954292247626
845,598.7167010517389
846,598.6432786445221
847,598.5731826613992
848,598.5049328363293
849,598.4379735933381
850,598.3729377590633
851,598.3116854975326
852,598.2571125385215
853,598.2127792161862
854,598.1824425951432
855,598.1695753518418
856,598.176941692072
857,598.2062813743017
858,598.2581295456729
859,598.3317772614154
860,598.4253597359597
861,598.5360459782206
862,598.6602943669312
863,598.7941364522558
864,598.9334556955314
865,599.0742330019419
866,599.2127314773612
867,599.3455968578684
868,599.469873974805
869,599.582981441841
870,599.6827168059403
871,599.7673529883118
872,599.8358339470632
873,599.8880150083118
874,599.9248617242383
875,599.9485356172676
876,599.9623338388794
877,599.9704817915442
878,599.9777928825064
879,599.9892143703893
880,600.0092825213803
881,600.0415253632834
882,600.0878836890007
883,600.1482565376853
884,600.2202846266514
885,600.299444807201
886,600.3794551276771
887,600.4529201885421
888,600.5121100993227
889,600.5497683748767
890,600.5598673150317
891,600.5382515476426
892,600.483121180403
893,600.3953113295938
894,600.2783346610115
895,600.1381703089619
896,599.982805052312
897,599.8215610191332
898,599.6642735092998
899,599.5204023036483
900,599.3981633029914
901,599.3037576906207
902,599.2407659815264
903,599.2097764435491
904,599.2083234364212
905,599.2311929946557
906,599.2710941985156
907,599.3196139945685
908,599.36830550815
909,599.4097306776991
910,599.4382945298139
911,599.4507615465776
912,599.4464137792114
913,599.4268723710534
914,599.3956416902017
915,599.3574473343722
916,599.3174433080243
917,599.280377745534
