acceleration,velocity,displacement
-0.03933935562377708,0.0,0.0
-0.03343638471922195,-3.6387870171499515e-05,-1.8193935085749757e-08
-0.027761707961809087,-6.698691651201504e-05,-6.988132842750705e-08
-0.022515564825926697,-9.212555290588293e-05,-1.4943756313645605e-07
-0.01784758257456894,-0.00011230712660613075,-2.516539028924629e-07
-0.013843409336713812,-0.00012815262256177213,-3.718837774764143e-07
-0.010521553555041956,-0.00014033510400765002,-5.061276407611254e-07
-0.007839156211122631,-0.00014951545889073232,-6.510529222103166e-07
-0.005704273953363416,-0.00015628717397297534,-8.039542386421705e-07
-0.003992089895100108,-0.0001611353558972071,-9.626655035772617e-07
-0.0025626656118972182,-0.00016441273365070576,-1.1254395483512181e-06
-0.001278039199172342,-0.00016633308605624054,-1.2908124582046913e-06
-1.6758106407213486e-05,-0.00016698048470903032,-1.4574692435873267e-06
0.0013155378283905954,-0.00016633109484803863,-1.6241250333658612e-06
0.0027801727582580085,-0.00016428323955471432,-1.7894322005672377e-06
0.004404120942720499,-0.00016069109270422507,-1.9519193666967075e-06
0.006182770406799772,-0.00015539764702946494,-2.1099637365635525e-06
0.00808595972557652,-0.0001482632819632768,-2.2617942010599235e-06
0.010066400497943393,-0.00013918710185151684,-2.4055193929673202e-06
0.012069323203600232,-0.00012811924000074502,-2.539172563893451e-06
0.014041678936651404,-0.0001150637389306192,-2.660764053359133e-06
0.01593905596538609,-0.00010007337147960045,-2.768332608564243e-06
0.01772912796745209,-8.323927951318135e-05,-2.8599889340606336e-06
0.019391659647013976,-6.467888570594831e-05,-2.9339480166701984e-06
0.020916079219687352,-4.452501627259765e-05,-2.9885499676594714e-06
0.02229791386791012,-2.291801972879891e-05,-3.0222714856601695e-06
0.023535125961269453,-1.4998142091200142e-09,-3.0337312454316734e-06
0.024625071109837183,2.40785987213442e-05,-3.021692695978106e-06
0.02556271589884389,4.917249222568474e-05,-2.9850671505045916e-06
0.026340758728157092,7.512422953918523e-05,-2.9229187896221566e-06
0.02695207667303394,0.00010177064723978076,-2.8344713512326737e-06
0.02739430291290897,0.0001289438370327522,-2.7191141090964074e-06
0.027675413746314735,0.00015647869536236406,-2.5764028428988493e-06
0.02781837796277175,0.0001842255912169073,-2.4060506996092138e-06
0.027862733233940166,0.00021206614681526325,-2.2079048305931285e-06
0.027861698046652544,0.0002399283624555596,-1.981907575957717e-06
0.02787492196533075,0.00026779667246155123,-1.7280450584991616e-06
0.027958570336456715,0.00029571341861244497,-1.4462900129621636e-06
0.028155380333822717,0.0003237703939475847,-1.1365481066821487e-06
0.028487342348792966,0.00035209175528889253,-7.986170320639101e-07
0.02895297929858862,0.0003808119161125833,-4.321651963631722e-07
0.029530020330459143,0.00041005341592710717,-3.673253034332697e-08
0.03018273324727226,0.0004399097927159729,3.8824907397821307e-07
0.030871746774899022,0.0004704370327270585,8.434224866997288e-07
0.03156349269809684,0.0005016546524635564,1.3294683292950363e-06
0.03223670979717956,0.0005335547537111946,1.8470730323824117e-06
0.032884581609808526,0.0005661153994146887,2.396908108945353e-06
0.033512595591600663,0.0005993139880153932,2.979622802660394e-06
0.03413356779210414,0.0006331370697072456,3.5958483315217135e-06
0.034761921298881095,0.0006675848142527382,4.246209273501705e-06
0.03540900331427939,0.0007026702765593185,4.931336818907734e-06
0.0360803021800278,0.0007384149293064721,5.651879421840629e-06
0.036774499708754974,0.0007748423302508635,6.408508051619297e-06
0.03748375292020013,0.0008119714565653411,7.2019149450274e-06
0.038194478504495484,0.0008498105722776889,8.032805959448914e-06
0.03888814737940716,0.0008883518852196402,8.90188718819758e-06
0.03954206299191635,0.0009275669904053019,9.80984662601005e-06
0.040130479599844365,0.0009674032617011822,1.0757331752063292e-05
0.04062641480588288,0.0010077817089040458,1.1744924237365907e-05
0.04100423088367533,0.001048597031748825,1.2773113607692343e-05
0.04124286620649477,0.0010897205802939101,1.384227241371371e-05
0.04132952677448614,0.0011310067767844006,1.4952636092252865e-05
0.041263357823838255,0.001172303219083563,1.6104291090186847e-05
0.041058053421874206,0.0012134639247064192,1.729717466208184e-05
0.04074207377877578,0.0012543639883067443,1.8531088618588422e-05
0.04035563682350117,0.0012949128436078828,1.9805727034545737e-05
0.039944718561817104,0.0013350630213005419,2.112071496699995e-05
0.03955326334240953,0.0013748120122526553,2.2475652483776547e-05
0.03921528137771711,0.0014141962846127185,2.3870156632209234e-05
0.038948516861117236,0.0014532781837321357,2.530389386638166e-05
0.03875098574618525,0.001492127935035787,2.677659692576562e-05
0.038601023576347704,0.0015308039396970535,2.8288062863132042e-05
0.03846083725935897,0.001569334870114907,2.9838132268038022e-05
0.038283122807513933,0.0016077068501483434,3.1426653128169644e-05
0.03801993168390231,0.0016458583773940516,3.3053435741940845e-05
0.03763238453986976,0.0016836845355059377,3.471820719839084e-05
0.037099181180584306,0.0017210503183661648,3.642057462532689e-05
0.036421691225400586,0.0017578107545691572,3.816000516179455e-05
0.035624166790534456,0.0017938336835771247,3.993582738086769e-05
0.03474907488265703,0.0018290203044137204,4.174725437486312e-05
0.03384888366944784,0.0018633192836897728,4.3593424168914864e-05
0.03297618209937128,0.0018967318165741824,4.547344971904684e-05
0.032173845499672095,0.001929306830373704,4.738646904252079e-05
0.03146660008871871,0.0019611270531678993,4.9331685984291593e-05
0.030855095581383676,0.0019922879010029503,5.1308393461377016e-05
0.030313435116828446,0.0020228721663520565,5.331597349505452e-05
0.02979084508145144,0.0020529243064511963,5.535387173145615e-05
0.029217606412899378,0.0020824285321983716,5.7421548150780935e-05
0.028514569912681587,0.0021112946203611623,5.9518409727060705e-05
0.027604892004338577,0.0021393543513196726,6.164373421290112e-05
0.026426284527408035,0.0021663699395855457,6.379659635835373e-05
0.024941909725767892,0.0021920540367121335,6.597580834650257e-05
0.02314797143967387,0.0022160989772948545,6.817988485350607e-05
0.021076408772445206,0.0022382111674009142,7.040703992585396e-05
0.01879212718481857,0.0022581454353795462,7.265521822724419e-05
0.01638550152029759,0.0022757342497321045,7.492215806980002e-05
0.013961898082961605,0.002290907949533734,7.720547916943294e-05
0.011630414589361702,0.002303704105869896,7.950278519713475e-05
0.009493736184391623,0.0023142661812567728,8.181177034069808e-05
0.007639981873639153,0.002322833040285788,8.413031995146937e-05
0.006136288316532077,0.0023297211753808738,8.64565970593027e-05
0.0050234408381617055,0.0023353010399582205,8.878910816697225e-05
0.00431130237123294,0.002339968411562918,9.112674289273283e-05
0.003975605124430133,0.0023441118653107496,9.346878303116966e-05
0.003957198200346597,0.002348078266973138,9.581487809731159e-05
0.0041647569314910695,0.002352139244539057,9.816498685306769e-05
0.004481386301133805,0.0023564623161553694,0.0001005192876334149
0.004774851184314195,0.0023610904348980934,0.00010287806400894163
0.004910524489837154,0.002365933122735169,0.00010524157578775827
0.0047654987135472655,0.0023707711343368613,0.00010760992791629429
0.004241745610459753,0.002375274756498865,0.00010998295086171215
0.0032761499232660226,0.0023790337042657278,0.00011236010509209445
0.0018459908764124806,0.002381594774665567,0.0001147404193315601
-3.0247387265643107e-05,0.00238250264641014,0.00011712246804209797
-0.0022956514196806567,0.002381339697006667,0.00011950438921380637
-0.004859689327329992,0.0023777620266331617,0.00012188394007562628
-0.007603998195002196,0.0023715301828719955,0.00012425858618037887
-0.010389145862565227,0.002362533610843212,0.00012662561807723647
-0.013063163579013761,0.0023508074561224223,0.0001289822886107193
-0.01547250323417107,0.0023365396227158297,0.0001313259621501384
-0.017475005243983984,0.0023200658684767524,0.0001336542648957347
-0.01895325288795898,0.002301851739410781,0.00013596522369967845
-0.01982622523821,0.0022824620003476966,0.0001382573805695577
-0.020057625742678428,0.0022625200748572524,0.00014052987160716017
-0.019660090039641722,0.002242661216966092,0.00014278246225307183
-0.0186950743647231,0.00222348363476391,0.00014501553467893683
-0.017268530702099938,0.0022055018322304984,0.00014723002741243404
-0.01552271601193449,0.002189106208873481,0.00014942733143298603
-0.013624684571745128,0.0021745325085816415,0.0001516091507917136
-0.011752111248402898,0.0021618441106715674,0.0001537773391013402
-0.010077335969601583,0.0021509293870625654,0.00015593372585020728
-0.008751135322311294,0.002141515151416609,0.00015807994811944687
-0.007888374115050197,0.002133195396697928,0.00016021730339350415
-0.0075577868385500345,0.002125472316221128,0.0001623466372499637
-0.0077775397653288905,0.0021178046529191884,0.00016446827573453384
-0.008517190261863783,0.002109657287905592,0.00016658200670494622
-0.009705450818192183,0.002100545967365564,0.0001686871083325818
-0.011242003574379197,0.0020900722401692782,0.00017078241743634923
-0.013010881963445887,0.0020779457974003657,0.00017286642645513405
-0.014893034662390276,0.0020639938390874476,0.00017493739627337794
-0.016776568216873296,0.0020481590376478158,0.00017699347271174558
-0.01856423526705952,0.0020304886359058492,0.0001790327965485224
-0.02017832373249263,0.0020111173564060733,0.00018105359954467836
-0.021563067817834423,0.0019902466606309096,0.00018305428155319687
-0.022684555566663545,0.0019681228489386604,0.00018503346630798165
-0.023528427374287668,0.0019450163574681848,0.00018699003591118507
-0.02409638386223922,0.0019212039518499214,0.00018892314606584412
-0.02440297508434312,0.00189695427237663,0.0001908322251779574
-0.024473788426239727,0.0018725158906213388,0.0001927169602594564
-0.024345158486091523,0.0018481064171651732,0.00019457727141334964
-0.02406453608161157,0.0018239015698813218,0.0001964132754068729
-0.02369019507421841,0.0018000242043034068,0.00019822523829396524
-0.023289161094301264,0.001776534526219147,0.00020001351765922652
-0.022932950125999368,0.0017534234706089967,0.00020177849665764058
-0.02269150317886039,0.001730611243956567,0.00020352051401492337
-0.022626163734039535,0.001707952410500117,0.00020523979584215172
-0.02278260639067465,0.0016852480254377598,0.00020693639606012067
-0.023184591253460222,0.0016622644266156923,0.0002086101522861474
-0.02382946812579784,0.0016387573969260632,0.00021026066319791828
-0.024686333454811863,0.0016144994961357583,0.0002118872916444492
-0.025697486585461764,0.0015893075861156214,0.00021348919518557487
-0.026783396539582408,0.0015630671445530993,0.00021506538255090923
-0.0278508710699652,0.0015357500107483256,0.00021661479112855994
-0.028803528451894145,0.001507422810987396,0.0002181363775394278
-0.029553117950804456,0.0014782444877860467,0.0002196292111888145
-0.030029943165468153,0.0014484529572279105,0.00022109255991132148
-0.030190713608711322,0.0014183426288408207,0.00022252595770435584
-0.030022530760378457,0.001388236006656276,0.0002239292470221044
-0.029542407350343133,0.001358453537600915,0.00022530259179423298
-0.02879271156261412,0.0013292859781444365,0.00022664646155210567
-0.027833884212861735,0.0013009726802566985,0.00022796159088130623
-0.02673615489122196,0.0012736876607046567,0.0002292489210517869
-0.025571621829392405,0.0012475337723443496,0.0002305095317683114
-0.02440738586040792,0.0012225442684994493,0.0002317445707887333
-0.023299994932171608,0.0011986905781031596,0.0002329551882120346
-0.022291450461679668,0.001175894855406234,0.0002341424809287893
-0.021407196780577037,0.0011540455317851056,0.00023530745112238495
-0.020656428794577825,0.0011330137189975282,0.00023645098074777626
-0.020034515037916437,0.001112668247081281,0.00023757382173081567
-0.019526657295955232,0.0010928876609143452,0.00023867659968481347
-0.019111685753305404,0.001073568489389715,0.0002397598277599655
-0.018765362970342397,0.001054629965027891,0.0002408239269871743
-0.018463309823653865,0.001036015628630893,0.0002418692497840037
-0.018183976885659436,0.0010176919852762363,0.00024289610359095728
-0.01791172465019454,0.0009996441345083093,0.00024390477165084956
-0.017639473633268794,0.0009818685353665776,0.000244895527985787
-0.017370130763183347,0.0009643637331683515,0.0002458686441200545
-0.017116265274253296,0.0009471205351496332,0.0002468243862542135
-0.016898016754485094,0.000930113394135264,0.0002477630032188559
-0.01673960587108504,0.0009132945828224789,0.0002486847072073348
-0.016664943664281263,0.0008965923080547957,0.0002495896506527734
-0.016692830247548116,0.0008799134210988811,0.0002504779035173502
-0.01683232460965709,0.0008631508436702785,0.0002513494356497348
-0.01707908888972917,0.0008461951369205854,0.00025220410864003025
-0.01741362746405236,0.0008289487787436947,0.0002530416805978624
-0.017802137223181472,0.0008113408964000778,0.0002538618254354343
-0.01820017738663431,0.0007933397390951698,0.0002546641657531819
-0.01855866208748051,0.0007749603193581124,0.00025544831578240855
-0.018830915567004586,0.0007562655305308699,0.000256213928707353
-0.018979024552463954,0.0007373605604711356,0.00025696074175285405
-0.018977861374018683,0.0007183821175078943,0.00025768861309184357
-0.018816032949508753,0.0006994851703461306,0.0002583975467357706
-0.018494254458792315,0.0006808300266419801,0.00025908770433426465
-0.018022558547119167,0.0006625716201390244,0.0002597594051576552
-0.017417818879902562,0.0006448514314255135,0.00026041311668343746
-0.016702379260465045,0.0006277913323553297,0.0002610494380653279
-0.015903664505201025,0.0006114883104724967,0.00026166907788674183
-0.015054029008117713,0.0005960094637158373,0.000262272826773836
-0.014190077146959244,0.0005813874106382988,0.00026286152521101306
-0.013351202851709034,0.0005676167706389647,0.0002634360273016517
-0.012577648360481515,0.0005546523450328695,0.0002639971618594876
-0.011908488965587927,0.0005424092763698348,0.00026454569267018893
-0.011379680808571347,0.0005307651914827551,0.0002650822799041152
-0.011022102817784405,0.0005195642996695773,0.00026560744464969137
-0.010859539674494559,0.0005086234784234377,0.0002661215385387379
-0.01090655879667691,0.000497740429187852,0.00026662472049254353
-0.01116616787982015,0.0004867040658496035,0.00026711694274006225
-0.01162730043755833,0.00047530733169091427,0.0002675979484388325
-0.012262638029456114,0.00046336236245740706,0.0002680672832859067
-0.013027603535064318,0.00045071724167514686,0.00026852432308797295
-0.013861230253356283,0.0004372728247809366,0.000268968318121201
-0.014689233177441023,0.0004229975930655379,0.00026939845333012426
-0.015429277469399382,0.0004079383377421177,0.0002698139212955281
-0.015998168645039303,0.00039222461468489835,0.00027021400277174156
-0.016320343799874338,0.0003760653584624415,0.0002705981477583152
-0.01633654125536659,0.00035973691593482103,0.00027096604889551387
-0.016011058749788074,0.0003435631159322437,0.0002713176989114474
-0.015336067490214204,0.00032788955281224253,0.00027165342524581963
-0.014332206257390848,0.00031305541593844,0.000271973897730195
-0.013045588315251757,0.0002993665186521187,0.00027228010869749026
-0.011541850467815988,0.00028707279926058483,0.0002725733283564466
-0.009898091724859209,0.00027635282816424725,0.00027285504117015904
-0.00819388328914032,0.00026730684065724746,0.0002731268710045698
-0.006502894761884344,0.0002599584516317351,0.00027339050365071427
-0.004886573082436738,0.00025426371770957457,0.0002736476147353849
-0.0033905431946467364,0.00025012515957103284,0.00027389980917402523
-0.0020435069964550453,0.0002474081344754819,0.0002741485758210485
-0.0008580564152037034,0.00024595735276965256,0.00027439525856467106
0.00016708051264891513,0.0002456118648183752,0.0002746410431734651
0.0010438283548282877,0.0002462173192521138,0.00027488695776550033
0.001791224130472757,0.0002476348454947643,0.0002751338838478738
0.0024320768307652873,0.00024974649597538334,0.00027538257451860886
0.002989893186866595,0.0002524574809841993,0.00027563367650708864
0.0034860070918784356,0.0002556954311235718,0.0002758877529631425
0.003937470358921683,0.0002594071698489719,0.00027614530426362877
0.004356848102774504,0.00026355432907981997,0.00027640678501309314
0.004754562924021976,0.0002681100345932182,0.00027667261719492965
0.005143075857786386,0.0002730588539841224,0.0002769432016392183
0.0055411952517053385,0.00027840098953886826,0.0002772189315609798
0.005976836390525044,0.00028416000535998344,0.0002775002120584292
0.006487264386354288,0.0002903920557484231,0.00027778748808898344
0.007116628388498619,0.0002971940021358496,0.0002780812811179256
0.007911164655025282,0.0003047078986576115,0.00027838223206832233
0.008912826822507491,0.0003131198943963779,0.00027869114596484933
0.010152328952097962,0.00032265247228368063,0.00027900903214818937
0.011642641508765634,0.0003335499575141124,0.00027933713336308826
0.013373892366746623,0.00034605822445186855,0.00027967693745407126
0.015310468087604698,0.0003604004046790442,0.00028003016676863673
0.017390884965269467,0.0003767510812054813,0.000280398742511579
0.019530654955792696,0.00039521185116601237,0.00028078472397776474
0.021627969433947583,0.0004157911633608825,0.0002811902254850282
0.023571735409046772,0.00043839101578237963,0.0002816173165745998
0.025251371567114534,0.0004628025692704603,0.00028206791336712623
0.026567602712763438,0.0004887120564103993,0.00028254367067996665
0.02744310994072587,0.000515717412737144,0.0002830458854145404
0.027831514875702953,0.0005433547251453584,0.00028357542148348163
0.027723222625563888,0.0005711320938959918,0.0002841326648930023
0.027147223247871888,0.0005985673168327097,0.00028471751459836666
0.026168698556509516,0.0006252252777349005,0.0002853294108956505
0.024882778456336095,0.0006507510162413233,0.0002859673990426386
0.023405004380585123,0.0006748949076597839,0.00028663022200458915
0.021859303800084127,0.0006975270617501186,0.0002873164329892941
0.020364712619953464,0.0007186390699601374,0.0002880245160551492
0.019022456909086525,0.0007383326547246574,0.0002887530019174916
0.01790504731762915,0.0007567964068380152,0.00028950056644827293
0.01704877472856042,0.00077427331786111,0.0002902661013106225
0.01645062747662971,0.000791023018963705,0.0002910487494790349
0.01607024771691662,0.0008072834565604782,0.000291847902716797
0.015836956769064294,0.0008232370588034687,0.000292663162974479
0.015661041791844656,0.0008389860580839232,0.0002934942745329227
0.015447692170376368,0.0008545404250650337,0.0002943410377744972
0.015111540595939317,0.0008698200414481915,0.0002952032180077538
0.014589699357112348,0.0008846706614247173,0.00029608046335919026
0.013851365435913109,0.0008988911938212301,0.0002969722442868132
0.012902588968274583,0.0009122681710233239,0.0002978778239692355
0.0117856753104228,0.0009246123031626726,0.0002987962642063285
0.010573571283715156,0.0009357919264597416,0.00029972646632113974
0.009360164923090983,0.0009457587945631447,0.00030066724168165116
0.008247849686286701,0.0009545628018678335,0.00030161740247986666
0.007334190475674402,0.000962353821948814,0.000302575860791775
0.006699856228967714,0.0009693708453011351,0.0003035417231254
0.006399678178716879,0.0009759206125049774,0.00030451436885430304
0.006457670830161497,0.0009823492870094166,0.0003054935038040602
0.006865660246921695,0.0009890109525479583,0.0003064791839238389
0.007584518170080795,0.0009962360417564596,0.0003074718074209911
0.00854715305770738,0.0010043018773703536,0.0003084720763805545
0.009662987515854085,0.0010134069476571343,0.00030948093079306827
0.010824067241868034,0.0010236504750359954,0.0003104994595044148
0.011912948610769542,0.0010350189829623142,0.000311528794233414
0.012812276403730415,0.001047381595469564,0.00031256999452262995
0.013415637717345007,0.0010604955525301018,0.00031362393309662976
0.013638772497411508,0.00107402275763748,0.00031469119225171354
0.013429589580157933,0.001087556938676265,0.0003157719820998704
