frame_number,force
0,861.169500008922
1,861.1540947695482
2,861.1386781021196
3,861.1232391895898
4,861.1077684186607
5,861.092257936028
6,861.0767021507487
7,861.0610981677954
8,861.0454461417944
9,861.0297495445545
10,861.0140153442078
11,860.9982540967148
12,860.9824799518788
13,860.966710576602
14,860.950966999066
15,860.9352733791529
16,860.9196567120678
17,860.9041464729977
18,860.8887742108533
19,860.8735730991856
20,860.8585774524287
21,860.8438222153036
22,860.8293424323281
23,860.8151727034966
24,860.8013466323534
25,860.7878962742195
26,860.7748515944495
27,860.7622399481356
28,860.750085593101
29,860.7384092474068
30,860.7272277014728
31,860.7165534937154
32,860.7063946572895
33,860.6967545434591
34,860.6876317242695
35,860.6790199740776
36,860.6709083268819
37,860.663281204908
38,860.6561186136983
39,860.64939639936
40,860.6430865637519
41,860.6371576330356
42,860.6315750746008
43,860.6263017569787
44,860.6212984466526
45,860.61652433463
46,860.6119375847614
47,860.6074958955924
48,860.6031570680599
49,860.5988795722889
50,860.5946231077621
51,860.5903491521932
52,860.5860214952951
53,860.5816067538449
54,860.5770748637326
55,860.5723995435529
56,860.5675587234896
57,860.5625349330911
58,860.5573156420195
59,860.5518935489497
60,860.5462668154772
61,860.5404392437426
62,860.5344203978675
63,860.5282256697977
64,860.5218762898428
65,860.5153992816569
66,860.5088273611337
67,860.5021987786315
68,860.49555710371
69,860.4889509512515
70,860.4824336480483
71,860.4760628400189
72,860.4699000417384
73,860.4640101312809
74,860.4584607942842
75,860.4533219219463
76,860.4486649686024
77,860.4445622752197
78,860.4410863651589
79,860.4383092181201
80,860.436301528321
81,860.4351319540984
82,860.4348663674792
83,860.4355671126858
84,860.4372922820622
85,860.4400950175432
86,860.4440228460911
87,860.4491170581475
88,860.4554121387139
89,860.4629352612501
90,860.4717058552022
91,860.4817352582642
92,860.4930264637433
93,860.5055739711385
94,860.5193637444515
95,860.5343732786706
96,860.5505717713279
97,860.5679203935208
98,860.5863726529014
99,860.6058748392137
100,860.6263665410659
101,860.6477812216896
102,860.6700468421913
103,860.6930865228796
104,860.7168192353743
105,860.74116051938
106,860.7660232181044
107,860.791318225649
108,860.8169552386807
109,860.8428435034839
110,860.8688925484203
111,860.8950128913674
112,860.9211167123034
113,860.9471184827889
114,860.9729355458886
115,860.9984886413131
116,861.0237023713571
117,861.0485056041679
118,861.0728318123134
119,861.0966193463161
120,861.1198116444754
121,861.1423573817226
122,861.164210561289
123,861.1853305536976
124,861.2056820881273
125,861.2252352012774
126,861.2439651480777
127,861.2618522772091
128,861.2788818733407
129,861.2950439678772
130,861.3103331206719
131,861.3247481761948
132,861.3382919989591
133,861.3509711943991
134,861.3627958222964
135,861.3737791096567
136,861.3839371685305
137,861.3932887220875
138,861.4018548400462
139,861.4096586829826
140,861.4167252541818
141,861.42308115713
142,861.4287543561381
143,861.4337739371543
144,861.4381698658812
145,861.441972740912
146,861.4452135406914
147,861.4479233645
148,861.4501331689693
149,861.4518735025491
150,861.4531742412134
151,861.4540643299296
152,861.4545715357718
153,861.4547222192615
154,861.4545411303558
155,861.454051235
156,861.4532735776223
157,861.452227184225
158,861.4509290096275
159,861.4493939310272
160,861.4476347882195
161,861.4456624683918
162,861.4434860307592
163,861.4411128643715
164,861.4385488716493
165,861.4357986703262
166,861.4328658070218
167,861.4297529762941
168,861.4264622394237
169,861.4229952373
170,861.4193533917511
171,861.415538089688
172,861.4115508448253
173,861.4073934330048
174,861.4030679995312
175,861.3985771399225
176,861.3939239580744
177,861.3891121072857
178,861.3841458199191
179,861.3790299311396
180,861.3737699015014
181,861.368371842347
182,861.3628425470303
183,861.357189529754
184,861.3514210721747
185,861.3455462761708
186,861.3395751196886
187,861.3335185116538
188,861.3273883417398
189,861.3211975215798
190,861.3149600155979
191,861.3086908610074
192,861.3024061767775
193,861.296123160778
194,861.2898600739893
195,861.2836362112175
196,861.2774718589271
197,861.2713882418257
198,861.265407460313
199,861.2595524208905
200,861.2538467615243
201,861.2483147740268
202,861.2429813255122
203,861.2378717803286
204,861.2330119222507
205,861.2284278743994
206,861.2241460119311
207,861.2201928606514
208,861.2165949741521
209,861.2133787836779
210,861.2105704184507
211,861.2081954979985
212,861.2062789004968
213,861.2048445119407
214,861.203914960953
215,861.2035113442411
216,861.2036529484515
217,861.2043569749954
218,861.2056382745457
219,861.2075090972426
220,861.2099788637835
221,861.2130539620267
222,861.2167375734604
223,861.2210295333302
224,861.2259262269962
225,861.23142052323
226,861.237501743284
227,861.2441556634182
228,861.2513645486079
229,861.2591072158
230,861.267359125133
231,861.2760924965128
232,861.2852764475522
233,861.2948771480698
234,861.304857986374
235,861.3151797431418
236,861.3258007696492
237,861.3366771683568
238,861.3477629751751
239,861.3590103436616
240,861.3703697318704
241,861.3817900930836
242,861.393219072384
243,861.4046032115654
244,861.415888164906
245,861.4270189279615
246,861.4379400811569
247,861.4485960501106
248,861.4589313854884
249,861.4688910660071
250,861.4784208280496
251,861.4874675240181
252,861.4959795095787
253,861.5039070577225
254,861.511202795712
255,861.5178221602132
256,861.5237238660912
257,861.5288703842587
258,861.5332284228115
259,861.5367694039825
260,861.5394699280173
261,861.541312214255
262,861.5422845094017
263,861.5423814531575
264,861.5416043919658
265,861.5399616327246
266,861.5374686297298
267,861.5341480996901
268,861.5300300610191
269,861.5251517946174
270,861.5195577241178
271,861.5132992141664
272,861.5064342856768
273,861.4990272471827
274,861.4911482418171
275,861.482872710735
276,861.4742807763893
277,861.465456552725
278,861.456487392859
279,861.4474630868702
280,861.4384750226419
281,861.4296153219719
282,861.4209759632739
283,861.4126479016109
284,861.4047201966072
285,861.3972791586747
286,861.3904075236336
287,861.3841836651869
288,861.3786808540169
289,861.3739665714545
290,861.3701018844579
291,861.3671408870732
292,861.3651302120327
293,861.3641086148269
294,861.3641066312565
295,861.3651463079854
296,861.3672410041106
297,861.3703952606412
298,861.3746047346989
299,861.3798561965061
300,861.3861275890569
301,861.3933881514198
302,861.4015986064834
303,861.4107114133895
304,861.420671084502
305,861.4314145661988
306,861.4428716816917
307,861.4549656326794
308,861.4676135555352
309,861.4807271272991
310,861.4942132167469
311,861.5079745756016
312,861.5219105643183
313,861.5359179060541
314,861.5498914616913
315,861.5637250181557
316,861.5773120820335
317,861.5905466708192
318,861.6033240947079
319,861.6155417221296
320,861.6270997220646
321,861.6379017759501
322,861.64785575215
323,861.6568743366907
324,861.6648756152435
325,861.6717836029453
326,861.6775287203632
327,861.6820482153965
328,861.6852865319398
329,861.6871956267183
330,861.6877352359311
331,861.6868730930304
332,861.6845850983333
333,861.6808554409141
334,861.6756766737047
335,861.6690497433099
336,861.6609839760595
337,861.6514970212669
338,861.6406147518868
339,861.6283711219512
340,861.6148079794624
341,861.5999748331051
342,861.5839285713324
343,861.5667331328882
344,861.5484591283259
345,861.5291834123575
346,861.5089886071745
347,861.4879625778146
348,861.4661978622196
349,861.44379106006
350,861.4208421850005
351,861.3974539850054
352,861.3737312351411
353,861.3497800075602
354,861.3257069242139
355,861.3016183993689
356,861.2776198806432
357,861.2538150980342
358,861.2303053296281
359,861.2071886906281
360,861.184559449957
361,861.1625073769238
362,861.1411171196472
363,861.1204676168453
364,861.1006315449034
365,861.0816748027509
366,861.0636560381816
367,861.0466262207335
368,861.0306282676397
369,861.0156967301705
370,861.0018575476071
371,860.98912787519
372,860.9775159909638
373,860.9670212850054
374,860.9576343335237
375,860.9493370597755
376,860.9421029831631
377,860.9358975567844
378,860.9306785921952
379,860.9263967686206
380,860.9229962224381
381,860.9204152110075
382,860.9185868425762
383,860.9174398616045
384,860.9168994773985
385,860.9168882237483
386,860.9173268375673
387,860.9181351442945
388,860.9192329371141
389,860.9205408368856
390,860.9219811205753
391,860.9234785073166
392,860.9249608922623
393,860.9263600191306
394,860.9276120833921
395,860.9286582598008
396,860.9294451502005
397,860.9299251497268
398,860.9300567315723
399,860.9298046526612
400,860.9291400847818
401,860.928040677319
402,860.9264905581305
403,860.9244802782749
404,860.9220067044199
405,860.9190728600647
406,860.9156877139606
407,860.9118659125184
408,860.9076274531523
409,860.902997297092
410,860.8980049226246
411,860.8926838224064
412,860.8870709507106
413,860.8812061278595
414,860.8751314099194
415,860.8688904325788
416,860.8625277391244
417,860.8560881032296
418,860.8496158574716
419,860.8431542381628
420,860.836744756504
421,860.8304266053788
422,860.8242361101612
423,860.8182062306253
424,860.8123661195565
425,860.8067407421422
426,860.8013505586507
427,860.7962112711557
428,860.7913336331264
429,860.7867233189991
430,860.7823808499882
431,860.7783015724945
432,860.7744756858659
433,860.7708883165026
434,860.7675196355997
435,860.764345018626
436,860.761335245812
437,860.7584567437464
438,860.7556718678148
439,860.7529392233918
440,860.7502140213566
441,860.7474484620722
442,860.7445921423
443,860.7415924813793
444,860.7383951652374
445,860.7349446079304
446,860.7311844295061
447,860.7270579464218
448,860.7225086677402
449,860.7174807879902
450,860.7119196666258
451,860.7057722846043
452,860.6989876703818
453,860.6915172898495
454,860.6833153968281
455,860.6743393423195
456,860.664549841738
457,860.6539112000631
458,860.6423914958107
459,860.6299627262553
460,860.6166009182248
461,860.6022862103202
462,860.5870029129887
463,860.5707395522068
464,860.5534889008686
465,860.5352479999983
466,860.5160181703488
467,860.4958050143334
468,860.4746184084684
469,860.4524724866689
470,860.429385613851
471,860.4053803476539
472,860.3804833851009
473,860.3547254916061
474,860.3281414114676
475,860.3007697607952
476,860.2726529050559
477,860.2438368239258
478,860.2143709658263
479,860.1843080933822
480,860.1537041196608
481,860.1226179344031
482,860.0911112198332
483,860.0592482563043
484,860.0270957182009
485,859.9947224602847
486,859.9621992946721
487,859.9295987590895
488,859.8969948773401
489,859.8644629125149
490,859.8320791127296
491,859.7999204489342
492,859.7680643448665
493,859.7365884001699
494,859.7055701089008
495,859.6750865771995
496,859.6452142454172
497,859.6160286205541
498,859.5876040240872
499,859.5600133586386
500,859.5333278952636
501,859.5076170816274
502,859.4829483697835
503,859.4593870606375
504,859.4369961608884
505,859.4158362479748
506,859.3959653395939
507,859.3774387661412
508,859.3603090460741
509,859.3446257655582
510,859.3304354651
511,859.3177815371467
512,859.3067041390635
513,859.297240124945
514,859.2894229977835
515,859.283282881541
516,859.2788465111495
517,859.2761372372414
518,859.2751750415331
519,859.2759765586434
520,859.2785551007918
521,859.2829206827911
522,859.2890800455787
523,859.2970366771982
524,859.3067908308863
525,859.318339540836
526,859.3316766370318
527,859.3467927608735
528,859.3636753831425
529,859.3823088257731
530,859.4026742894946
531,859.4247498907037
532,859.4485107120261
533,859.4739288710504
534,859.5009736103863
535,859.5296114099554
536,859.5598061198853
537,859.5915191103178
538,859.6247094335823
539,859.6593339946412
540,859.6953477265891
541,859.7327037682152
542,859.771353640111
543,859.8112474153638
544,859.8523338814043
545,859.894560691085
546,859.937874502726
547,859.982221109829
548,860.027545561355
549,860.0737922733528
550,860.1209051326368
551,860.1688275932744
552,860.2175027669132
553,860.2668735084545
554,860.3168824989408
555,860.3674723273064
556,860.4185855716353
557,860.4701648793248
558,860.522153044918
559,860.5744930845106
560,860.6271283056707
561,860.680002370853
562,860.7330593505296
563,860.786243760811
564,860.8395005802234
565,860.8927752418598
566,860.9460135999266
567,860.9991618730195
568,861.052166569474
569,861.1049744021304
570,861.1575322001904
571,861.2097868243986
572,861.2616850892906
573,861.3131736939625
574,861.364199161694
575,861.4147077889854
576,861.4646456055902
577,861.5139583481412
578,861.5625914507078
579,861.610490056188
580,861.6575990526538
581,861.7038631383997
582,861.7492269186473
583,861.7936350360352
584,861.8370323361644
585,861.8793640684369
586,861.9205761213211
587,861.9606152901862
588,861.9994295748533
589,862.036968502843
590,862.0731834732397
591,862.108028115566
592,862.1414586579401
593,862.1734342985357
594,862.2039175737615
595,862.2328747159647
596,862.2602759933458
597,862.2860960255257
598,862.3103140698041
599,862.33291427516
600,862.353885902833
601,862.3732235135307
602,862.3909271219845
603,862.4070023198839
604,862.4214603681769
605,862.4343182593555
606,862.4455987498957
607,862.4553303625986
608,862.4635473578675
609,862.4702896718054
610,862.4756028178019
611,862.4795377474229
612,862.4821506659682
613,862.4835027980774
614,862.483660099543
615,862.4826929131738
616,862.480675568949
617,862.4776859314791
618,862.4738049008629
619,862.46911587633
620,862.4637041948782
621,862.4576565583994
622,862.4510604621682
623,862.4440036359266
624,862.4365735071976
625,862.4288566951827
626,862.420938542361
627,862.4129026895321
628,862.4048306985129
629,862.3968017248864
630,862.3888922411397
631,862.3811758087515
632,862.3737228967825
633,862.3666007442034
634,862.359873263108
635,862.3536009798304
636,862.3478410106765
637,862.3426470684386
638,862.3380694952139
639,862.3341553166209
640,862.3309483124073
641,862.3284890982405
642,862.3268152129315
643,862.3259612051189
644,862.3259587143614
645,862.3268365433577
646,862.328620719556
647,862.3313345451179
648,862.3349986345568
649,862.339630940179
650,862.3452467668059
651,862.3518587786891
652,862.3594770027831
653,862.3681088336685
654,862.3777590461723
655,862.3884298216387
656,862.4001207929398
657,862.4128291121577
658,862.4265495436053
659,862.4412745831877
660,862.4569946030228
661,862.4736980184218
662,862.491371473333
663,862.5100000398915
664,862.5295674271663
665,862.5500561936026
666,862.5714479574756
667,862.5937235999816
668,862.6168634561241
669,862.6408474893578
670,862.6656554472115
671,862.6912669966571
672,862.7176618394833
673,862.7448198093047
674,862.7727209530287
675,862.8013456003789
676,862.8306744252814
677,862.860688502701
678,862.8913693638752
679,862.9226990517475
680,862.9546601768925
681,862.9872359727847
682,863.0204103482233
683,863.0541679341093
684,863.0884941215551
685,863.1233750886973
686,863.1587978145943
687,863.1947500797111
688,863.2312204530043
689,863.2681982654617
690,863.3056735698466
691,863.3436370869563
692,863.3820801397321
693,863.4209945775127
694,863.4603726932125
695,863.5002071360291
696,863.5404908213703
697,863.5812168384068
698,863.622378354657
699,863.6639685166723
700,863.7059803459634
701,863.7484066294855
702,863.7912398040779
703,863.8344718341457
704,863.8780940817935
705,863.9220971691259
706,863.9664708337503
707,864.011203780315
708,864.0562835324159
709,864.1016962898118
710,864.1474267955768
711,864.193458217267
712,864.2397720459527
713,864.2863480170232
714,864.3331640565891
715,864.3801962566921
716,864.4274188811428
717,864.4748044018106
718,864.5223235630818
719,864.5699454702172
720,864.6176376955165
721,864.6653663951206
722,864.7130964299546
723,864.7607914870002
724,864.8084142005796
725,864.855926275929
726,864.9032886183428
727,864.9504614708031
728,864.9974045618301
729,865.0440772638301
730,865.0904387612587
731,865.1364482279254
732,865.1820650137105
733,865.2272488423838
734,865.271960023381
735,865.3161596806093
736,865.3598100003634
737,865.4028744986588
738,865.4453183064217
739,865.4871084695133
740,865.5282142596975
741,865.5686074923406
742,865.6082628467195
743,865.6471581851798
744,865.6852748676746
745,865.7225980577382
746,865.7591170142169
747,865.794825360563
748,865.8297213213835
749,865.8638079149955
750,865.8970930907324
751,865.9295898001992
752,865.9613159926799
753,865.9922945271062
754,866.0225529966099
755,866.0521234659707
756,866.0810421260448
757,866.1093488717978
758,866.1370868118597
759,866.164301717961
760,866.1910414225302
761,866.2173551724858
762,866.2432929471067
763,866.2689047478513
764,866.2942398678504
765,866.3193461482155
766,866.3442692275206
767,866.3690517906736
768,866.3937328245355
769,866.4183468899457
770,866.4429234222911
771,866.4674860742571
772,866.4920521140616
773,866.5166318902316
774,866.5412283705485
775,866.5658367592462
776,866.5904441938649
777,866.615029521944
778,866.63956315776
779,866.6640070197101
780,866.6883145489396
781,866.7124308096002
782,866.7362926712053
783,866.7598290735425
784,866.7829613735729
785,866.8056037716084
786,866.8276638118462
787,866.8490429509613
788,866.8696371878134
789,866.8893377468053
790,866.9080318067654
791,866.9256032667428
792,866.941933540457
793,866.9569023725071
794,866.9703886710269
795,866.9822713521957
796,866.9924301914941
797,867.0007466751911
798,867.0071048439512
799,867.0113921192458
800,867.0135001028087
801,867.0133253398263
802,867.0107700376635
803,867.0057427333768
804,866.9981589047967
805,866.9879415216506
806,866.9750215349744
807,866.9593383044088
808,866.9408399633052
809,866.9194837209986
810,866.8952361009231
811,866.8680731132163
812,866.8379803612032
813,866.804953082137
814,866.768996123215
815,866.7301238541195
816,866.688360017723
817,866.6437375215083
818,866.596298173269
819,866.5460923651362
820,866.4931787100243
821,866.4376236346551
822,866.3795009335528
823,866.3188912886324
824,866.2558817592562
825,866.1905652479608
826,866.1230399472951
827,866.0534087731834
828,865.9817787900438
829,865.9082606326804
830,865.8329679295051
831,865.7560167307898
832,865.6775249447512
833,865.597611783835
834,865.5163972235362
835,865.4340014759431
836,865.3505444795893
837,865.2661454064096
838,865.1809221860461
839,865.0949910476069
840,865.0084660791804
841,864.9214588059198
842,864.8340777880471
843,864.7464282401389
844,864.6586116722763
845,864.5707255526062
846,864.4828629904001
847,864.3951124393616
848,864.3075574225751
849,864.220276282175
850,864.1333419573255
851,864.0468217931145
852,863.9607773814508
853,863.8752644341494
854,863.7903326884372
855,863.7060258458887
856,863.6223815469764
857,863.5394313844196
858,863.4572009587094
859,863.3757099783728
860,863.2949724060903
861,863.2149966503384
862,863.1357858013566
863,863.0573379100396
864,862.9796463081374
865,862.902699967097
866,862.826483891168
867,862.7509795390982
868,862.6761652682951
869,862.6020167950819
870,862.5285076642052
871,862.4556097204213
872,862.3832935751703
873,862.3115290616996
874,862.2402856722576
875,862.1695329716038
876,862.0992409825332
877,862.0293805409615
878,861.9599236194905
879,861.8908436191294
880,861.8221156293088
881,861.7537166565661
882,861.6856258223023
883,861.6178245301106
884,861.5502966037388
885,861.4830283976809
886,861.41600888351
887,861.3492297161796
888,861.2826852853639
889,861.216372757162
890,861.1502921109017
891,861.0844461745849
892,861.018840661252
893,860.9534842075287
894,860.8883884148041
895,860.8235678925887
896,860.7590403025662
897,860.6948264008158
898,860.630950074864
899,860.5674383716821
900,860.504321512389
901,860.4416328892175
902,860.3794090404492
903,860.3176895995649
904,860.2565172156342
905,860.1959374428744
906,860.1359985984074
907,860.0767515883593
908,860.0182497032429
909,859.9605483838269
910,859.903704958612
911,859.847778353973
912,859.7928287783611
913,859.7389173826389
914,859.6861058993259
915,859.6344562640567
916,859.5840302227192
917,859.5348889271125
918,859.4870925204256
