frame_number,force
0,498.33050500007965
1,498.3178610359403
2,498.30548994623155
3,498.2936645656088
4,498.28265745284386
5,498.27274013190726
6,498.2641813533802
7,498.257243942802
8,498.2521800300021
9,498.2492247927717
10,498.2485891470323
11,498.25045197443666
12,498.2549525004561
13,498.262183399958
14,498.27218517863145
15,498.28494233182755
16,498.30038164872775
17,498.3183728080689
18,498.33873116835593
19,498.3612224613995
20,498.3855690154453
21,498.41145719040213
22,498.4385458345354
23,498.4664756292257
24,498.49487909405326
25,498.52339084392247
26,498.55165756512764
27,498.5793471821296
28,498.60615678071326
29,498.63181896684046
30,498.6561064698312
31,498.6788349705263
32,498.69986429787
33,498.71909818521067
34,498.7364827059805
35,498.7520034337514
36,498.76568138707586
37,498.7775679315777
38,498.78773899304963
39,498.79628912778617
40,498.8033260847258
41,498.808966381876
42,498.8133321456391
43,498.8165491853295
44,498.8187461300338
45,498.82005443581807
46,498.82060908215277
47,498.8205497726717
48,498.82002247998406
49,498.8191812487464
50,498.81819023021137
51,498.8172258939927
52,498.8164792624221
53,498.8161579044582
54,498.8164873523746
55,498.8177115874633
56,498.8200922929844
57,498.8239066662737
58,498.82944367749553
59,498.8369987754737
60,498.84686721117595
61,498.85933635226144
62,498.87467751168225
63,498.89313784207314
64,498.91493276320256
65,498.9402392749751
66,498.9691904494722
67,499.00187138070373
68,499.0383168002103
69,499.07851038610744
70,499.1223855744033
71,499.16982754944115
72,499.22067608980853
73,499.2747290000238
74,499.3317458775595
75,499.39145196707716
76,499.45354191908496
77,499.51768341423434
78,499.5835207744871
79,499.65067879471894
80,499.7187670679467
81,499.78738505380437
82,499.8561280733523
83,499.92459429500605
84,499.99239258998296
85,500.0591509399278
86,500.1245249790737
87,500.18820625723237
88,500.2499298291229
89,500.3094807686917
90,500.3666992106897
91,500.4214835653415
92,500.4737916401998
93,500.52363953997303
94,500.57109838987225
95,500.6162891070036
96,500.6593755836614
97,500.7005567088481
98,500.7400576270881
99,500.7781205387173
100,500.8149952411987
101,500.8509295704031
102,500.8861599496842
103,500.92090232353024
104,500.95534374755806
105,500.9896348391765
106,501.0238832796333
107,501.0581486492269
108,501.09243896763616
109,501.1267092851256
110,501.16086254678817
111,501.19475281450565
112,501.2281908081897
113,501.26095159819846
114,501.2927841356331
115,501.3234221517455
116,501.3525957839371
117,501.3800431148882
118,501.4055207365968
119,501.4288125418745
120,501.44973614819224
121,501.46814657644535
122,501.4839370205907
123,501.497036800437
124,501.50740691775405
125,501.5150339724202
126,501.5199234137921
127,501.52209314430763
128,501.5215684014017
129,501.51837864124803
130,501.5125567923565
131,501.5041407639205
132,501.49317664206524
133,501.47972276256684
134,501.46385385869326
135,501.44566466926744
136,501.4252726586821
137,501.4028197745073
138,501.37847335818793
139,501.35242634165286
140,501.3248967245693
141,501.2961261813859
142,501.26637764045046
143,501.2359318135197
144,501.20508282360726
145,501.1741331919889
146,501.14338848792244
147,501.1131519471696
148,501.0837193541983
149,501.05537444481723
150,501.0283849686833
151,501.00299933584614
152,500.9794435357218
153,500.95791787892165
154,500.9385931372869
155,500.9216058487181
156,500.907052867358
157,500.894985558196
158,500.8854042059214
159,500.87825318382306
160,500.8734173117173
161,500.8707197399926
162,500.8699216483248
163,500.87072399224945
164,500.8727714200112
165,500.8756582944585
166,500.8789365133896
167,500.88212460912837
168,500.8847175245974
169,500.88619653634544
170,500.88603894355236
171,500.8837272668619
172,500.8787577959077
173,500.8706484382291
174,500.8589459294494
175,500.84323247395616
176,500.82313178461123
177,500.7983143811877
178,500.7685019824439
179,500.7334708945119
180,500.69305442906665
181,500.64714453814327
182,500.5956929527246
183,500.5387120841868
184,500.4762758094928
185,500.40852012159917
186,500.33564356018894
187,500.2579073053473
188,500.1756347413582
189,500.08921018597795
190,499.99907642284154
191,499.90573073613723
192,499.8097193012567
193,499.71162996088964
194,499.6120835702901
195,499.51172422244343
196,499.41120874613586
197,499.3111958754779
198,499.21233542357743
199,499.11525769433314
200,499.0205632647621
201,498.92881320806987
202,498.8405198597591
203,498.7561383438681
204,498.6760591969337
205,498.6006025060762
206,498.53001399880816
207,498.4644634467885
208,498.4040455515711
209,498.348783225602
210,498.2986329714792
211,498.25349195371706
212,498.2132063162607
213,498.1775802656278
214,498.14638540406514
215,498.1193697834418
216,498.0962661698691
217,498.07679907229
218,498.0606902104443
219,498.04766226065436
220,498.0374408915759
221,498.0297552827005
222,498.02433748629466
223,498.0209211023423
224,498.0192397801782
225,498.0190260604328
226,498.02001100384877
227,498.02192489265923
228,498.0244990754433
229,498.02746882580067
230,498.03057694278283
231,498.0335777769979
232,498.0362414386965
233,498.0383580574116
234,498.0397419889151
235,498.0402357755072
236,498.0397135688435
237,498.03808373120745
238,498.03529044676446
239,498.0313143329125
240,498.02617216323597
241,498.0199158307605
242,498.0126305930014
243,498.0044325323607
244,497.9954651244549
245,497.98589485725853
246,497.9759059532771
247,497.9656943575471
248,497.95546122324373
249,497.9454061580368
250,497.9357205286822
251,497.9265811951565
252,497.91814513915836
253,497.91054546832993
254,497.90388912138536
255,497.8982562954579
256,497.89370130555096
257,497.89025438792925
258,497.8879239052946
259,497.8866984946536
260,497.88654890061
261,497.8874294748384
262,497.8892794675725
263,497.89202425221805
264,497.8955766001746
265,497.8998381129619
266,497.90470087233246
267,497.910049283575
268,497.9157620522876
269,497.92171427909716
270,497.927779702531
271,497.933833103473
272,497.93975282571694
273,497.9454233393156
274,497.9507378240359
275,497.9556008281193
276,497.9599310541246
277,497.9636642153803
278,497.96675580843134
279,497.96918367883063
280,497.97095037553726
281,497.9720853198811
282,497.9726466802648
283,497.9727226613088
284,497.97243185557596
285,497.9719224220797
286,497.9713700586405
287,497.9709748733665
288,497.970957257971
289,497.97155279191384
290,497.9730061916786
291,497.9755644193653
292,497.97946922924046
293,497.9849495764895
294,497.9922143918323
295,498.0014462406404
296,498.01279635177235
297,498.02638140017416
298,498.04228221531815
299,498.0605442846625
300,498.08117963825504
301,498.1041695547682
302,498.12946756490766
303,498.15700240146396
304,498.18668076386035
305,498.2183899623627
306,498.25200065511694
307,498.2873699446478
308,498.32434502067093
309,498.3627673668187
310,498.4024773854858
311,498.44331919901674
312,498.48514536360796
313,498.52782125057183
314,498.5712288644795
315,498.6152698746612
316,498.6598676663415
317,498.70496828394124
318,498.7505402219955
319,498.7965730904073
320,498.8430752209181
321,498.89007027450407
322,498.9375928517722
323,498.9856830651954
324,499.03438012645813
325,499.08371525772657
326,499.1337044843046
327,499.18434192243535
328,499.2355940476363
329,499.2873952679033
330,499.33964503966223
331,499.39220675363435
332,499.4449086270716
333,499.49754677648053
334,499.54989042162265
335,499.6016888078064
336,499.65267909518826
337,499.7025943362917
338,499.75117080303573
339,499.7981542442616
340,499.84330501546
341,499.88640231273274
342,499.92724788412124
343,499.96566953953015
344,500.00152456987
345,500.034702933935
346,500.0651298996917
347,500.09276778797783
348,500.1176165440421
349,500.1397130014511
350,500.15912884615693
351,500.17596741519856
352,500.19035959574836
353,500.2024592301693
354,500.2124385206263
355,500.2204838842202
356,500.2267925358448
357,500.2315698600191
358,500.23502745980085
359,500.2373816599437
360,500.2388521882971
361,500.2396607733384
362,500.2400294693604
363,500.2401786109185
364,500.2403243652598
365,500.2406758998058
366,500.2414322377295
367,500.24277893346465
368,500.2448847185881
369,500.2478982220817
370,500.25194479313575
371,500.25712340300595
372,500.2635035756735
373,500.27112226446366
374,500.2799805804736
375,500.29004037323915
376,500.3012208974737
377,500.31339608317023
378,500.32639309611454
379,500.3399928168153
380,500.3539326167966
381,500.3679115300909
382,500.3815977191542
383,500.3946379938486
384,500.4066689808994
385,500.41732935540705
386,500.4262724066179
387,500.43317817647653
388,500.4377644914028
389,500.4397963731272
390,500.4390934909051
391,500.4355354245292
392,500.42906453345415
393,500.4196862624486
394,500.4074668615916
395,500.3925287434748
396,500.37504391468434
397,500.3552260049531
398,500.3333214089041
399,500.30960004829814
400,500.28434627813533
401,500.25785041520686
402,500.2304012083118
403,500.2022793866911
404,500.17375235845975
405,500.1450701751177
406,500.1164628761325
407,500.0881391793735
408,500.0602862423926
409,500.03307000789823
410,500.00663557199084
411,499.9811071324928
412,499.95658733442167
413,499.93315608514143
414,499.9108690659115
415,499.8897562315126
416,499.8698205869397
417,499.8510374546677
418,499.83335434974583
419,499.8166915477118
420,499.8009434586756
421,499.78598093896755
422,499.7716546548033
423,499.75779958940467
424,499.7442407697132
425,499.7308002510713
426,499.7173052894797
427,499.7035974360976
428,499.68954204786587
429,499.6750374834509
430,499.66002311106894
431,499.6444852790391
432,499.62846064494306
433,499.6120366623478
434,499.59534943219836
435,499.57857941256907
436,499.5619456041731
437,499.54569880279655
438,499.53011435037376
439,499.51548454600345
440,499.50211058119976
441,499.49029368704834
442,499.48032522744745
443,499.47247571956285
444,499.46698309923937
445,499.464040856383
446,499.46378684971654
447,499.4662936028887
448,499.4715606773163
449,499.4795094274686
450,499.48998026161064
451,499.5027325303191
452,499.51744720201805
453,499.53373236872284
454,499.55113137589615
455,499.56913319672503
456,499.5871847032027
457,499.6047046279062
458,499.62109906173094
459,499.63577820083134
460,499.6481738254193
461,499.65775681084983
462,499.66405390836417
463,499.666663083336
464,499.665266852735
465,499.65964330013907
466,499.64967466646124
467,499.6353534664491
468,499.61678592938887
469,499.5941923701206
470,499.5679040535732
471,499.5383562569247
472,499.50607748783955
473,499.4716751210595
474,499.4358180133135
475,499.3992168978345
476,499.3626035247564
477,499.32670959756666
478,499.29224654667223
479,499.2598870691518
480,499.2302491580192
481,499.20388307827756
482,499.18126147231834
483,499.16277254784325
484,499.1487161451065
485,499.13930237428514
486,499.1346524086644
487,499.13480090086824
488,499.13969941264736
489,499.1492203020894
490,499.16316073001803
491,499.181246749337
492,499.20313768560953
493,499.2284311292325
494,499.2566688676744
495,499.28734404308375
496,499.3199097446495
497,499.35378912436704
498,499.38838694172597
499,499.423102215126
500,499.4573414418032
501,499.49053167551034
502,499.5221326209979
503,499.5516468705146
504,499.5786275869053
505,499.60268336663665
506,499.623480561768
507,499.6407437886329
508,499.65425553605405
509,499.66385566476856
510,499.66944127168443
511,499.6709670584682
512,499.66844609289575
513,499.66195065988563
514,499.65161273212806
515,499.6376234942905
516,499.6202314102333
517,499.59973852347036
518,499.57649491923286
519,499.5508914688555
520,499.5233511457373
521,499.4943193892221
522,499.4642541537925
523,499.4336163130627
524,499.40286094409623
525,499.37242975580864
526,499.34274465655704
527,499.3142022628905
528,499.28716905316077
529,499.2619768624956
530,499.2389185050126
531,499.2182434574487
532,499.20015365456834
533,499.1847995037984
534,499.1722763073228
535,499.16262143722986
536,499.15581275536755
537,499.1517687578436
538,499.1503507050929
539,499.15136666861207
540,499.1545771349645
541,499.15970165049936
542,499.1664259876348
543,499.17440943423134
544,499.1832919731653
545,499.1927012574311
546,499.202259400355
547,499.2115897199664
548,499.2203236445367
549,499.2281079099558
550,499.23461198933745
551,499.2395355222801
552,499.2426154189413
553,499.24363227497554
554,499.242415739091
555,499.2388485555978
556,499.232869148729
557,499.2244727414056
558,499.2137110312625
559,499.2006904068722
560,499.18556868781775
561,499.16855047224163
562,499.14988131314874
563,499.1298410285414
564,499.1087364601244
565,499.086893978383
566,499.06465203485686
567,499.0423540648205
568,499.0203419772603
569,498.9989503294658
570,498.97850116080826
571,498.95929942494126
572,498.941628990947
573,498.92574923434694
574,498.9118922943036
575,498.9002611190013
576,498.89102841065784
577,498.8843364923433
578,498.88029799785886
579,498.87899718676135
580,498.88049161357407
581,498.88481384511425
582,498.89197296715025
583,498.90195574546067
584,498.9147274316583
585,498.93023227576174
586,498.9483938251891
587,498.9691150694119
588,498.99227844960876
589,499.01774572270324
590,499.0453576908418
591,499.0749339209405
592,499.1062727649082
593,499.1391521373322
594,499.17333150219054
595,499.20855536161946
596,499.24455830010345
597,499.2810713647812
598,499.3178292704095
599,499.3545776484756
600,499.39107942504177
601,499.4271195256656
602,499.4625074570228
603,499.4970777497532
604,499.5306886064981
605,499.5632193238742
606,499.5945671521988
607,499.62464422955094
608,499.6533750956524
609,499.6806951073558
610,499.70654990505125
611,499.73089595201617
612,499.75370206566566
613,499.77495174335473
614,499.79464597162485
615,499.81280615248545
616,499.8294768044282
617,499.84472777643543
618,499.85865582125484
619,499.87138546112647
620,499.8830690662561
621,499.89388593831774
622,499.9040400730869
623,499.9137563033958
624,499.92327466836224
625,499.93284301050994
626,499.9427079726457
627,499.9531048132396
628,499.9642467152262
629,499.9763143588162
630,499.98944641910117
631,500.00373148562005
632,500.0192018276567
633,500.03582942707357
634,500.05352467680257
635,500.0721380340587
636,500.09146469185725
637,500.1112520200814
638,500.13120924121563
639,500.15101866616567
640,500.1703478497726
641,500.1888621482805
642,500.2062372586441
643,500.222171368386
644,500.2363965994729
645,500.24868948436836
646,500.25888017870074
647,500.2668599795595
648,500.27258661323407
649,500.2760868202808
650,500.2774560004936
651,500.2768549782294
652,500.2745042216016
653,500.2706760706672
654,500.2656856794023
655,500.25988141047054
656,500.2536352938188
657,500.24733387044637
658,500.24136939617927
659,500.2361311525575
660,500.231996626301
661,500.22932255880784
662,500.2284361757239
663,500.2296270828769
664,500.2331402747532
665,500.2391705208126
666,500.24785817860356
667,500.2592862915418
668,500.27347872855586
669,500.2903991647304
670,500.30995085094133
671,500.33197727631665
672,500.35626390116806
673,500.3825410973409
674,500.41048832950474
675,500.4397395354613
676,500.46988963616866
677,500.50050206626673
678,500.53111713546946
679,500.56126096950265
680,500.59045478195344
681,500.61822423253847
682,500.64410856733724
683,500.66766919070966
684,500.6884974043097
685,500.70622122333475
686,500.7205112889111
687,500.73108587611273
688,500.7377149372576
689,500.74022313549835
690,500.7384919393087
691,500.73246098583127
692,500.7221289700569
693,500.70755423905405
694,500.68885514297966
695,500.6662101196264
696,500.6398574765696
697,500.6100948132571
698,500.5772779369169
699,500.5418189829757
700,500.5041833316605
701,500.4648849060772
702,500.4244795600405
703,500.3835564482559
704,500.34272744480245
705,500.3026148360405
706,500.26383770840147
707,500.2269976860598
708,500.19266485898925
709,500.16136475449326
710,500.13356700334396
711,500.1096760078315
712,500.09002355444346
713,500.07486305081784
714,500.06436500671657
715,500.0586135350864
716,500.0576039043762
717,500.0612413624966
718,500.06934148842646
719,500.0816322310892
720,500.09775765024324
721,500.1172832764369
722,500.13970301441407
723,500.164447601758
724,500.19089471963827
725,500.21838086157044
726,500.2462149574099
727,500.27369353757285
728,500.3001170118062
729,500.32480655158844
730,500.3471211146882
731,500.3664742361997
732,500.3823502511693
733,500.3943195912511
734,500.40205271889687
735,500.40533216492247
736,500.40406209916307
737,500.39827493831586
738,500.38813462688756
739,500.37393633290293
740,500.35610238565397
741,500.3351744138515
742,500.3118018120259
743,500.28672678147507
744,500.2607662224435
745,500.2347907766363
746,500.209701428163
747,500.1864042737886
748,500.165784317148
749,500.14867936843035
750,500.135855277661
751,500.1279837285731
752,500.12562363666916
753,500.12920686891897
754,500.13902862891615
755,500.15524250052664
756,500.177859842295
757,500.2067530223712
758,500.2416619398582
759,500.28220338734906
760,500.3278829902166
761,500.37810960743377
762,500.43221211598495
763,500.489458408951
764,500.54907627558043
765,500.6102756831997
766,500.6722718690527
767,500.73430853577037
768,500.7956803209186
769,500.8557536477346
770,500.9139851148071
771,500.9699367155572
772,501.02328732965964
773,501.073840064943
774,501.12152513806217
775,501.16639807105025
776,501.2086331009587
777,501.24851191403866
778,501.28640811294275
779,501.3227681248577
780,501.35808949171866
781,501.39289761439073
782,501.42772201886305
783,501.4630730668211
784,501.4994198101914
785,501.5371695181754
786,501.5766493884434
787,501.6180910537928
788,501.6616185409075
789,501.70724019848046
790,501.7548448399752
791,501.8042021126101
792,501.85496701698236
793,501.9066885085302
794,501.9588220731173
795,502.010746005772
796,502.0617808881053
797,502.11121159476494
798,502.1583111423931
799,502.20236572767845
800,502.2427002082537
801,502.2787030540973
802,502.309849637761
803,502.33572280026516
804,502.35602986825666
805,502.37061554904164
806,502.37947032624703
807,502.382734137516
808,502.3806952385899
809,502.37378423832956
810,502.3625633666064
811,502.3477111711821
812,502.3300030414867
813,502.31028818518905
814,502.2894639010322
815,502.2684481911942
816,502.2481519222952
817,502.22945183435456
818,502.21316568242133
819,502.20003066294953
820,502.19068599105987
821,502.1856600455738
822,502.18536200179
823,502.19007752702004
824,502.1999680294906
825,502.21507306970483
826,502.2353157336696
827,502.26051091657513
828,502.29037648843763
829,502.32454717915857
830,502.3625907989042
831,502.4040262173309
832,502.44834242714757
833,502.4950180203389
834,502.5435404845559
835,502.59342482344204
836,502.64423105008075
837,502.69558006267545
838,502.7471673016755
839,502.79877349056255
840,502.85027179758316
841,502.9016309776218
842,502.95291439304475
843,503.00427511275944
844,503.0559474099001
845,503.1082349352358
846,503.16149582104396
847,503.2161251270109
848,503.2725353341186
849,503.33113586698073
850,503.3923127917665
851,503.456409902501
852,503.5237123722433
853,503.59443395956407
854,503.66870837834676
855,503.74658488417464
856,503.828027562444
857,503.91291746638456
858,504.0010567717585
859,504.0921743802149
860,504.1859327110262
861,504.28193564143925
862,504.3797376470719
863,504.47885415053855
864,504.5787729275911
865,504.67896620812803
866,504.77890294909855
867,504.8780607167047
868,504.9759366615922
869,505.07205713266376
870,505.1659855574279
871,505.257328382748
872,505.3457391363924
873,505.43092095849744
874,505.5126281403893
875,505.5906672210178
876,505.66489805170386
877,505.7352350297046
878,505.80164848273154
879,505.8641659992259
880,505.9228733915944
881,505.9779149671709
882,506.0294928100853
883,506.0778648058533
884,506.1233412146235
885,506.16627976930675
886,506.20707949534915
887,506.24617361879035
888,506.2840219921142
889,506.3211034255319
890,506.3579081876548
891,506.39493076708993
892,506.43266281124926
893,506.4715860211271
894,506.512164703764
895,506.5548376959196
896,506.6000095074905
897,506.6480407703994
