acceleration,velocity,displacement
-0.02227465234365637,0.0,0.0
-0.022130032480106004,-1.1101171205940595e-05,-2.775292801485149e-09
-0.02198530164234971,-2.2130004736554525e-05,-1.1083086787108928e-08
-0.021840351212609316,-3.308641795029428e-05,-2.488719245882113e-08
-0.021695077250890694,-4.3970275066169285e-05,-4.415136571293702e-08
-0.021549382765988674,-5.478139007038913e-05,-6.883928199707663e-08
-0.021403179940826356,-6.551953074709289e-05,-9.891451220144713e-08
-0.02125639231675883,-7.618442381148919e-05,-1.3434050084109264e-07
-0.021108956913506064,-8.67757611190554e-05,-1.750805470737288e-07
-0.020960826218724186,-9.729320690211296e-05,-2.2109778907902088e-07
-0.02081196994507102,-0.00010773640594306176,-2.723551922903146e-07
-0.020662376436822713,-0.0001181049925385352,-3.288155419107138e-07
-0.02051205361221348,-0.00012839860005079424,-3.904414400580462e-07
-0.020361029340373777,-0.00013861687078894105,-4.5719530776798e-07
-0.020209351163971732,-0.00014875946591502744,-5.290393919439722e-07
-0.02005708529364362,-0.00015882607502943128,-6.059357771800868e-07
-0.0199043148276422,-0.00016881642505975274,-6.878464022023828e-07
-0.019751137189922798,-0.00017873028806414398,-7.74733080483357e-07
-0.019597660822459676,-0.0001885674875672396,-8.66557524391203e-07
-0.019444001203149323,-0.00019832790307364184,-9.632813720514233e-07
-0.019290276280031122,-0.00020801147244443695,-1.064866215930943e-06
-0.019136601412010013,-0.00021761819186744724,-1.171273632008914e-06
-0.018983083895119986,-0.00022714811319422975,-1.2824652082743332e-06
-0.018829817151201453,-0.0002366013384558101,-1.3984025711868431e-06
-0.01867687467419551,-0.00024597801141215935,-1.5190474086538355e-06
-0.01852430385866361,-0.0002552783060453741,-1.644361488018219e-06
-0.018372119855790077,-0.00026450241197398754,-1.7743066675230594e-06
-0.01822029960350716,-0.00027365051683881183,-1.9088448997262594e-06
-0.018068776165155835,-0.00028272278578097757,-2.0479382253812067e-06
-0.017917433495085604,-0.0002917193381960379,-2.1915487563754604e-06
-0.017766101730261465,-0.0003006402220023747,-2.3396386464250634e-06
-0.017614553080631357,-0.0003094853857050979,-2.4921700483519314e-06
-0.01746249836492108,-0.00031825464856648596,-2.6491050569198273e-06
-0.017309584227746557,-0.0003269476692146529,-2.8104056363651118e-06
-0.017155391078918242,-0.0003355639130413191,-2.9760335319291047e-06
-0.016999431800541902,-0.0003441026187611841,-3.1459501648797306e-06
-0.016841151258875118,-0.00035256276452603835,-3.320116510701536e-06
-0.016679926635075126,-0.0003609430339995259,-3.498492960332927e-06
-0.016515068555980845,-0.0003692417827972899,-3.681039164532131e-06
-0.016345822971020732,-0.0003774570056790403,-3.867713861651214e-06
-0.01617137370068563,-0.0003855863048469669,-4.058474689282715e-06
-0.01599084558926623,-0.0003936268596694549,-4.25327798041182e-06
-0.015803308224381057,-0.0004015753981228667,-4.4520785448599004e-06
-0.015607780216094866,-0.0004094281702329857,-4.654829436948864e-06
-0.01540323404025412,-0.0004171809237970729,-4.861481710456378e-06
-0.01518860144507714,-0.00042482888266840574,-5.071984162072747e-06
-0.014962779410510847,-0.0004323667278823027,-5.286283064710424e-06
-0.014724636642668253,-0.0004397885818955975,-5.5043218921549e-06
-0.014473020574991816,-0.0004470879962000125,-5.726041036678802e-06
-0.014206764830604398,-0.00045425794255141155,-5.951377521366658e-06
-0.013924697085826741,-0.00046129080803051934,-6.180264709012141e-06
-0.01362564727319023,-0.00046817839412027356,-6.412632009549839e-06
-0.013308456071529272,-0.0004749119199564534,-6.648404588069021e-06
-0.012971983641915532,-0.0004814820298848146,-6.887503075529338e-06
-0.01261511857523123,-0.0004878788054391013,-7.129843284360317e-06
-0.012236787017166333,-0.0004940917818372007,-7.375335931179392e-06
-0.011835961927603313,-0.000500109969073393,-7.62388636890704e-06
-0.011411672417593902,-0.0005059218776596923,-7.875394330590311e-06
-0.010963013094021564,-0.0005115155490375961,-8.129753687264633e-06
-0.010489153327455761,-0.0005168785906429654,-8.386852222184773e-06
-0.009989346337034606,-0.000521998215559088,-8.646571423735286e-06
-0.009462937960858765,-0.0005268612866335614,-8.908786299283449e-06
-0.008909374963422579,-0.0005314543648646318,-9.173365212157998e-06
-0.008328212732475937,-0.0005357637617886065,-9.440169743821307e-06
-0.007719122235262268,-0.000539775595530541,-9.709054583151094e-06
-0.0070818961266406934,-0.0005434758501210167,-9.979867444563982e-06
-0.006416453916994164,-0.0005468504376319255,-1.0252449016502219e-05
-0.005722846117625694,-0.0005498852626405805,-1.0526632941570345e-05
-0.005001257299404761,-0.000552566288494838,-1.0802245829354198e-05
-0.004252008034299391,-0.0005548796048282641,-1.1079107302684973e-05
-0.0034755557289735135,-0.0005568114957690823,-1.135703007783431e-05
-0.0026724943870561745,-0.0005583485082980897,-1.1635820078851103e-05
-0.0018435533457448535,-0.00055947752023129,-1.1915276585983448e-05
-0.0009895950336488493,-0.0005601858073261384,-1.2195192417872804e-05
-0.00011161180273282616,-0.0005604611090352338,-1.2475354146963147e-05
0.0007892781048380116,-0.0005602916924597075,-1.2755542347336882e-05
0.0017118353954916191,-0.0005596664140846251,-1.3035531873972965e-05
0.0026547053221329777,-0.0005585747789052189,-1.3315092172220425e-05
0.00361642401039752,-0.0005570069965720863,-1.3593987616089751e-05
0.004595425492382854,-0.0005549540341963912,-1.387197787378187e-05
0.0055900494274085215,-0.0005524076654664434,-1.414881829869758e-05
0.006598549481714689,-0.0005493605157391627,-1.4424260343998981e-05
0.0076191023262606634,-0.0005458061027871689,-1.4698051998630564e-05
0.008649817192666902,-0.000541738872907437,-1.4969938242554216e-05
0.0096887458995532,-0.000537154232134382,-1.523966151881467e-05
0.010733893233309354,-0.0005320485723511664,-1.5506962219936057e-05
0.011783227553443552,-0.0005264192921544781,-1.5771579186062468e-05
0.012834691494182194,-0.0005202648123925717,-1.603325021219923e-05
0.013886212638386995,-0.0005135845863594294,-1.6291712561887232e-05
0.014935714041440624,-0.0005063791046894725,-1.6546703484649457e-05
0.015981124486254467,-0.0004986498950575488,-1.679796073458621e-05
0.017020388360343468,-0.0004903995168458993,-1.7045223087562072e-05
0.01805147506229044,-0.0004816315509902408,-1.728823085452111e-05
0.01907238786848964,-0.0004723505852575458,-1.7526726388583057e-05
0.02008117222012206,-0.00046256219523539287,-1.7760454583706292e-05
0.02107592342016242,-0.00045227292132532173,-1.798916336284647e-05
0.022054793754375905,-0.0004414902420316872,-1.8212604153685722e-05
0.023015999063632324,-0.0004302225438271851,-1.843053235015044e-05
0.023957824795386704,-0.00041847908786243036,-1.8642707758072844e-05
0.024878631552962407,-0.0004062699737753431,-1.8848895023482286e-05
0.02577686015034588,-0.00039360610084951603,-1.90488640421385e-05
0.026651036177809676,-0.0003804991267674771,-1.9242390349042748e-05
0.027499774093536457,-0.0003669614241996406,-1.9429255486784526e-05
0.02832178086849019,-0.00035300603545913395,-1.960924735169922e-05
0.029115859213192985,-0.00033864662543871315,-1.978216051692368e-05
0.02988091040709791,-0.00032389743303364043,-1.9947796531541768e-05
0.030615936750592734,-0.00030877322124421775,-2.0105964195111232e-05
0.03132004367321886,-0.00029328922613826487,-2.0256479806956855e-05
0.03199244154488314,-0.00027746110483373935,-2.0399167389699855e-05
0.03263244723341472,-0.0002613048826391649,-2.053385888656808e-05
0.03323948543461127,-0.0002448368994721584,-2.066039433209591e-05
0.03381308978161619,-0.00022807375566810152,-2.0778621995880975e-05
0.034352903723242595,-0.00021103225729188682,-2.0888398499120974e-05
0.03485868114278878,-0.00019372936107537898,-2.098958890371279e-05
0.035330286668737734,-0.00017618211912249734,-2.108206677376226e-05
0.035767695607491296,-0.0001584076235534401,-2.1165714209431242e-05
0.036170993404725724,-0.00014042295130038584,-2.1240421853144698e-05
0.036540374519095566,-0.0001222451093194305,-2.1306088868299654e-05
0.036876140583141585,-0.00010389098054387122,-2.136262289076548e-05
0.03717869774100335,-8.537727096283498e-05,-2.1409939953642157e-05
0.03744855308339756,-6.672045825673475e-05,-2.144796438594705e-05
0.037686310133752,-4.793674245244735e-05,-2.1476628686124345e-05
0.03789266337268273,-2.9041999075838666e-05,-2.1495873371506416e-05
0.03806839182772457,-1.005173527573684e-05,-2.150564680509431e-05
0.03821435180532848,9.01895063252642e-06,-2.150590500125511e-05
0.03833146889382514,2.8155405807314822e-05,-2.149661141214515e-05
0.03842072940141447,4.734345538112472e-05,-2.147773669684804e-05
0.038483171404043885,6.65694305824893e-05,-2.1449258475357136e-05
0.038519875570344406,8.582019232608637e-05,-2.1411161069629994e-05
0.03853195590748323,0.00010508315019554328,-2.1363435233999586e-05
0.03852055052713606,0.0001243462768041981,-2.130607787724965e-05
0.03848681246805524,0.00014359811755299595,-2.1239091778660353e-05
0.03843190055326162,0.00016282779580832515,-2.1162485300320022e-05
0.03835697023040014,0.00018202501350424058,-2.107627209799188e-05
0.03826316434969854,0.00020118004714926525,-2.0980470832828504e-05
0.038151603864296134,0.00022028373920276393,-2.0875104886240497e-05
0.03802337847885575,0.0002393274847885519,-2.0760202080242667e-05
0.03787953731404284,0.0002583032137367765,-2.0635794405611336e-05
0.037721079683721646,0.0002772033679862176,-2.050191776018059e-05
0.03754894608613945,0.0002960208744286829,-2.0358611699576863e-05
0.037364009492202775,0.0003147491133232685,-2.0205919202638875e-05
0.03716706699399847,0.0003333818824448188,-2.0043886453696852e-05
0.03695883187531557,0.00035191335716214733,-1.987256264379511e-05
0.03673992618372158,0.0003703380466769066,-1.9691999792835345e-05
0.03651087390530242,0.0003886507466991626,-1.9502252594491328e-05
0.036272094855791116,0.000406846488889436,-1.930337828559418e-05
0.03602389940354544,0.0004249204874542701,-1.9095436541508253e-05
0.03576648413495692,0.0004428680833388957,-1.887848939880996e-05
0.03549992856510069,0.0004606846865139101,-1.865260120634676e-05
0.03522419298379732,0.0004783657169011346,-1.8417838605493e-05
0.034939117502677856,0.0004959065445227534,-1.8174270540137028e-05
0.034644422329544594,0.0005133024294808091,-1.7921968296636137e-05
0.03433970925337464,0.0005305484623765389,-1.76610055736718e-05
0.03402446429329677,0.0005476395057632068,-1.7391458581636864e-05
0.03369806145715882,0.0005645701372008206,-1.7113406170895857e-05
0.03335976757026756,0.0005813345944576772,-1.682692998798123e-05
0.03300874816680873,0.0005979267233919462,-1.6532114658518825e-05
0.03264407446862974,0.0006143399290508058,-1.6229047995408137e-05
0.032264731487413476,0.0006305671305398165,-1.5917821230510482e-05
0.03186962727029151,0.0006466007202292428,-1.5598529267818217e-05
0.03145760328012016,0.0006624325278668457,-1.5271270955794195e-05
0.03102744587667542,0.0006780537901560446,-1.4936149376288473e-05
0.030577898846619073,0.0006934551263368682,-1.4593272147165244e-05
0.03010767691145649,0.0007086265202763871,-1.424275173551193e-05
0.02961548011711098,0.000723557309533529,-1.388470577805945e-05
0.029100008973375176,0.0007382361818061505,-1.3519257405224531e-05
0.02855998016975008,0.0007526511790919318,-1.3146535565000011e-05
0.027994142657759884,0.0007667897097988093,-1.2766675342777326e-05
0.027401293872936324,0.0007806385689314834,-1.2379818273094753e-05
0.02678029587628038,0.0007941839663687876,-1.1986112639269685e-05
0.02613009121388172,0.0008074115631413281,-1.1585713756892155e-05
0.025449718310452587,0.0008203065155224117,-1.117878423722622e-05
0.024738326227255792,0.0008328535266568387,-1.0765494226681408e-05
0.023995188633941927,0.0008450369053721381,-1.0346021618674164e-05
0.023219716863633957,0.0008568406317465321,-9.920552234394496e-06
0.02241147192838004,0.0008682484289445357,-9.489279969221729e-06
0.021570175366071115,0.0008792438407681485,-9.052406901793558e-06
0.020695718784257005,0.0008898103143057305,-8.610143363025087e-06
0.019788171973960465,0.0008999312869952849,-8.162707962699833e-06
0.01884778948848578,0.0009095902773608965,-7.710327571610788e-06
0.017875015614196337,0.000918770978636567,-7.253237257611422e-06
0.016870487696438976,0.0009274573544642259,-6.791680174336224e-06
0.015835037813277827,0.0009356337358416551,-6.325907401759754e-06
0.014769692801999157,0.0009432849184954744,-5.856177738175472e-06
0.013675672640531955,0.0009503962598561072,-5.382757443587576e-06
0.012554387183297454,0.0009569537748120645,-4.905919934920533e-06
0.011407431258668723,0.000962944229422556,-4.425945433861877e-06
0.01023657814744892,0.0009683552317740854,-3.943120568562717e-06
0.009043771467670587,0.0009731753191778653,-3.457737930824729e-06
0.007831115491295304,0.0009773940409176067,-2.9700955908008612e-06
0.006600863925363081,0.0009810020357717713,-2.480496571628517e-06
0.005355407213054023,0.0009839911035563755,-1.98924828679648e-06
0.004097258444863593,0.000986354269970855,-1.4966619434146723e-06
0.0028290380066055935,0.0009880858440837223,-1.003051914901028e-06
0.0015534571229436785,0.0009891814678661096,-5.087350869135699e-07
0.0002733004817720427,0.0009896381572672885,-1.4030180630220457e-08
-0.0010085918564987015,0.000989454334423607,4.807429422925034e-07
-0.002289343054578454,0.0009886298506958375,9.752639885723645e-07
-0.0035660583943223855,0.0009871660003336123,1.469212951329727e-06
-0.0048358442806998424,0.0009850655246648567,1.962270832579344e-06
-0.006095827175620323,0.0009823326068007768,2.454120365445753e-06
-0.007343172294133615,0.0009789728569333384,2.9444467313792814e-06
-0.008575101894731848,0.000974993288386122,3.4329382677091464e-06
-0.009788912984657101,0.0009704022846662748,3.9192871609722455e-06
-0.010981994251212938,0.0009652095578573073,4.403190121603141e-06
-0.012151842027393157,0.0009594260987876558,4.884349035764382e-06
-0.013296075106964856,0.0009530641195040663,5.362471590337313e-06
-0.014412448245632618,0.0009461369886659169,5.837271867379808e-06
-0.015498864224121897,0.0009386591605484783,6.3084709046834075e-06
-0.016553384397589254,0.0009306460983930505,6.77579721941879e-06
-0.017574237698671585,0.0009221141928689852,7.238987292234298e-06
-0.01855982809070107,0.000913080676421642,7.697786009556955e-06
-0.01950874048747658,0.0009035635342770976,8.15194706223164e-06
-0.020419745174996923,0.0008935814128614792,8.601233299016285e-06
-0.021291800789658203,0.0008831535263703154,9.045417033824233e-06
-0.02212405592327493,0.0008722995621920822,9.484280305964832e-06
-0.022915849436091682,0.0008610395858522405,9.917615092975912e-06
-0.02366670956303854,0.0008493939461024579,1.0345223475964586e-05
-0.02437635189356535,0.0008373831807383069,1.0766917757674778e-05
-0.025044676294013222,0.0008250279236914123,1.1182520533782208e-05
-0.02567176282769998,0.000812348813910984,1.1591864718182807e-05
-0.026257866712091675,0.0007993664065260361,1.1994793523292062e-05
-0.02680341233746376,0.0007861010867636473,1.2391160396614483e-05
-0.027308986363632597,0.0007725729870883732,1.2780828915077489e-05
-0.0277753299114372,0.0007588019080196057,1.3163672638854484e-05
-0.02820332987085171,0.0007448072430740334,1.3539574926627893e-05
-0.02859400936107465,0.0007306079082660519,1.3908428714462915e-05
-0.02894851740326816,0.0007162222765749661,1.4270136260673169e-05
-0.02926811789847844,0.0007016681177495294,1.4624608859254293e-05
-0.029554178031966496,0.0006869625437669182,1.4971766524633405e-05
-0.029808156244621194,0.0006721219601977713,1.5311537650624576e-05
-0.030031589916718913,0.0006571620236574362,1.5643858646588377e-05
-0.030226082896532756,0.0006420976054541234,1.5968673553866267e-05
-0.030393292986933662,0.0006269427614832568,1.628593364560061e-05
-0.03053491949507844,0.0006117107083627538,1.6595597013062115e-05
-0.03065269095781461,0.0005964138057495305,1.6897628141590186e-05
-0.030748353163261775,0.0005810635447192614,1.7191997479207385e-05
-0.030823657581785614,0.0005656705420329995,1.747868100089545e-05
-0.030880350296595943,0.0005502445400634041,1.775765977141955e-05
-0.030920161494864103,0.0005347944121155391,1.8028919509464288e-05
-0.030944795555868064,0.000519328172852856,1.829245015570639e-05
-0.03095592176283078,0.0005038529935231813,1.85482454473004e-05
-0.030955165669904916,0.0004883752216649974,1.8796302501097445e-05
-0.030944101163525178,0.0004729004049566399,1.9036621407752856e-05
-0.030924243255996565,0.00045743331885175943,1.9269204838704956e-05
-0.03089704163521637,0.0004419779976289562,1.9494057667825136e-05
-0.03086387497260879,0.0004265377684769999,1.9711186609351623e-05
-0.030826045969814496,0.0004111152882413941,1.9920599873531222e-05
-0.030784777109453213,0.0003957125824715772,2.0122306841209465e-05
-0.03074120706591942,0.00038033108642773403,2.0316317758434294e-05
-0.030696387723011618,0.00036497168773050125,2.0502643451973853e-05
-0.03065128173110483,0.0003496347703669721,2.0681295066498223e-05
-0.030606760520378272,0.00033432025980410134,2.085228382404099e-05
-0.030563602681840735,0.00031902766900354656,2.1015620806242904e-05
-0.030522492647965565,0.000303756145171095,2.1171316759786564e-05
-0.030484019646189322,0.00028850451709755626,2.1319381925353726e-05
-0.030448676941568897,0.0002732713429506167,2.145982589036577e-05
-0.030416861412530985,0.00025805495836209175,2.1592657465693947e-05
-0.03038887351148661,0.00024285352463108734,2.171788458644224e-05
-0.03036491765115984,0.00022766507684042573,2.183551423681012e-05
-0.03034510303013544,0.0002124875716701019,2.1945552398937753e-05
-0.030329444879030762,0.00019731893469281036,2.2048004025528483e-05
-0.030317866089815532,0.00018215710695059878,2.2142873035939334e-05
-0.03031019919029638,0.0001670000906305708,2.2230162335334627e-05
-0.030306188630822548,0.00015184599367529106,2.2309873856411094e-05
-0.030305493353353058,0.00013669307317924715,2.238200862312473e-05
-0.030307689621163335,0.00012153977743561806,2.2446566835778447e-05
-0.030312274100955192,0.00010638478650508842,2.2503547976763623e-05
-0.03031866719539963,9.122705118099972e-05,2.2552950936185146e-05
-0.030326216619015023,7.606583022739605e-05,2.2594774156537243e-05
-0.030334201204740167,6.090072577145725e-05,2.2629015795536957e-05
-0.03034183493147889,4.573171673740249e-05,2.2655673906164172e-05
-0.03034827117143719,3.055919021167347e-05,2.267474663290144e-05
-0.03035260715989566,1.5383970628840257e-05,2.268623242311157e-05
-0.030353888682533702,2.0734666823291627e-07,2.2690130252435836e-05
-0.03035111496379643,-1.4968904243349617e-05,2.2686439863042056e-05
-0.030343243739216798,-3.0142493919102924e-05,2.2675162013501443e-05
-0.030329196508404932,-4.531060398100835e-05,2.2656298739026414e-05
-0.03030786397758617,-6.046986910250613e-05,2.2629853620755535e-05
-0.030278111694219914,-7.561636302045765e-05,2.2595832062724794e-05
-0.03023878585753406,-9.074558740839615e-05,2.255424157511758e-05
-0.030188719282337552,-0.00010585246369336405,2.250509206234214e-05
-0.03012673751003529,-0.00012093132789145726,2.2448396114445934e-05
-0.03005166508398535,-0.0001359759285399624,2.238416930033808e-05
-0.029962332012482332,-0.00015097942781407933,2.2312430461249568e-05
-0.029857580424070503,-0.00016593440592321755,2.2233202002815244e-05
-0.02973627138925131,-0.00018083286887654801,2.2146510184115303e-05
-0.029597291861295196,-0.00019566625968918465,2.205238540197387e-05
-0.02943956168751233,-0.00021042547307638653,2.1950862468782476e-05
-0.029262040651285213,-0.0002251008736610859,2.184198088209811e-05
-0.029063735506150983,-0.00023968231770044496,2.1725785084257725e-05
-0.028843706948551904,-0.0002541591783141207,2.1602324710254084e-05
-0.02860107645252511,-0.00026852037416438997,2.1471654822134455e-05
-0.028335032869322097,-0.00028275440149485177,2.1333836128219644e-05
-0.028044838684461504,-0.0002968493693832977,2.1188935185500106e-05
-0.027729835823673762,-0.0003107930380103315,2.10370245836517e-05
-0.027389450905392496,-0.00032457285969259806,2.0878183109225965e-05
-0.027023199853589412,-0.0003381760223823435,2.071249588870723e-05
