acceleration,velocity,displacement
-0.02226906966173029,0.0,0.0
-0.02214920821025762,-1.1104569467996978e-05,-2.7761423669992446e-09
-0.02202875648081042,-2.2149060640763987e-05,-1.1089549894189486e-08
-0.021907132844162014,-3.313303297200709e-05,-2.4910073297382253e-08
-0.02178377288289061,-4.405575940377025e-05,-4.4207271391326585e-08
-0.021658137827416178,-5.4916237081346946e-05,-6.895027051260588e-08
-0.021529722871124302,-6.571320225598206e-05,-9.910763034693813e-08
-0.02139806536959547,-7.6445149316162e-05,-1.3464721823997415e-07
-0.021262752863542466,-8.71103538744465e-05,-1.7553609403762628e-07
-0.02112343076509366,-9.770689978160552e-05,-2.2174040745163928e-07
-0.020979809462128327,-0.00010823270983841102,-2.7322530985664343e-07
-0.020831670557771055,-0.00011868557984338586,-3.299548822770927e-07
-0.020678871970667412,-0.00012906321547549547,-3.91892081106813e-07
-0.020521351650321727,-0.00013936327138074276,-4.5899870282087257e-07
-0.020359129689013863,-0.00014958339171557665,-5.312353685949524e-07
-0.02019230864563854,-0.00015972125129923976,-6.085615293486565e-07
-0.0200210719593897,-0.00016977459645049683,-6.909354912860907e-07
-0.019845680422602725,-0.00017974128454599492,-7.783144615352136e-07
-0.01966646678032411,-0.00018961932134672663,-8.70654613008394e-07
-0.019483828605873076,-0.00019940689519327593,-9.679111671433947e-07
-0.019298219646051377,-0.00020910240725625706,-1.0700384927557779e-06
-0.019110139827757455,-0.00021870449712470928,-1.1769902188510195e-06
-0.018920124091382145,-0.00022821206310449417,-1.2887193589083204e-06
-0.01872873021110932,-0.00023762427668011702,-1.4051784438544732e-06
-0.018536525804729514,-0.00024694059068407676,-1.5263196606955217e-06
-0.018344074804212563,-0.0002561607408363123,-1.652094993575619e-06
-0.018151923706550086,-0.00026528474046400296,-1.7824563639006979e-06
-0.01796058792827616,-0.00027431286837270954,-1.917355766109876e-06
-0.01777053855950796,-0.0002832456499946556,-2.0567453957017174e-06
-0.017582189777140052,-0.0002920838320788176,-2.2005777662200856e-06
-0.01739588713326502,-0.00030082835130641885,-2.348805812066395e-06
-0.0172118968752035,-0.00030948029730853597,-2.5013829742201334e-06
-0.017030396394813022,-0.0003180408706260401,-2.6582632662037775e-06
-0.01685146588152038,-0.0003265113361951234,-2.8194013179090684e-06
-0.016675081267597498,-0.0003348929729824029,-2.98475239520345e-06
-0.016501108567555878,-0.0003431870204411913,-3.1542723935593485e-06
-0.016329299696090028,-0.00035139462250710277,-3.327917804296422e-06
-0.016159289798783862,-0.00035951676988082125,-3.5056456523934027e-06
-0.015990596055892065,-0.0003675542413444902,-3.6874134051997307e-06
-0.015822617841190587,-0.0003755075448187609,-3.873178851740543e-06
-0.015654638072908185,-0.00038337685879728556,-4.062899952644555e-06
-0.015485825613848338,-0.0003911619747189747,-4.2565346610236204e-06
-0.015315238650461456,-0.00039886224078505215,-4.454040714899627e-06
-0.01514182905410175,-0.00040647650771119293,-4.655375402023688e-06
-0.01496444775850866,-0.0004140030769143455,-4.860495298180072e-06
-0.014781851177611712,-0.00042143965164837563,-5.069355980320753e-06
-0.014592708668524345,-0.00042878329160990963,-5.2819117161353244e-06
-0.014395611030837422,-0.0004360303715347501,-5.4981151319214895e-06
-0.01418908001107985,-0.00044317654429522937,-5.717916860878984e-06
-0.013971578743765228,-0.00045021670898394065,-5.941265174198777e-06
-0.013741523029066427,-0.00045714498442714856,-6.168105597551549e-06
-0.013497293345231786,-0.0004639546885207231,-6.398380515788517e-06
-0.013237247517204185,-0.0004706383237363321,-6.6320287688527804e-06
-0.012959733990187208,-0.00047718756911318,-6.868985242065158e-06
-0.01266310567447136,-0.00048359327902934465,-7.109180454100789e-06
-0.012345734328545546,-0.0004898454890300989,-7.3525401461156506e-06
-0.012006025427379162,-0.00049593342896908,-7.5989848756154455e-06
-0.011642433430767882,-0.0005018455436836168,-7.84842961877862e-06
-0.011253477335854127,-0.0005075695213752723,-8.100783385043343e-06
-0.010837756363272666,-0.000513092329800054,-8.355948847837175e-06
-0.010393965574856967,-0.0005184002602845863,-8.613821995358335e-06
-0.009920911160431188,-0.0005234789794684084,-8.874291805296584e-06
-0.009417525089910226,-0.0005283135885309937,-9.137239947296435e-06
-0.008882878826760532,-0.0005328886895101613,-9.402540516806724e-06
-0.008316195837127822,-0.0005371884581761334,-9.670059803728297e-06
-0.00771686267853448,-0.000541196722805049,-9.939656098973593e-06
-0.007084438484693744,-0.000544897048095856,-1.0211179541698819e-05
-0.006418662682213289,-0.0005482728233875828,-1.048447200956968e-05
-0.005719460813280092,-0.0005513073542614561,-1.0759367053981939e-05
-0.004986948413223774,-0.0005539839565680821,-1.1035689881689324e-05
-0.004221432979566174,-0.0005562860519162796,-1.1313257383810415e-05
-0.0034234141286712976,-0.0005581972636933389,-1.1591878212712819e-05
-0.0025935820526189696,-0.0005597015127386615,-1.1871352906820819e-05
-0.0017328143872775725,-0.0005607831118486356,-1.2151474062967643e-05
-0.000842171611646019,-0.0005614268583483665,-1.2432026555516894e-05
7.710888762858596e-05,-0.0005616181240293709,-1.2712787801111328e-05
0.0010236199604909415,-0.0005613429418173411,-1.2993528067573006e-05
0.001995792955101553,-0.000560588088588443,-1.3274010825174452e-05
0.0029919070468338517,-0.0005593411635879591,-1.3553993138218552e-05
0.00401009961196681,-0.000557590661923259,-1.3833226094596356e-05
0.00504837762869418,-0.0005553260426130938,-1.4111455270730445e-05
0.006104630074522062,-0.0005525377906872897,-1.438842122905554e-05
0.007176641263340668,-0.000549217472852824,-1.4663860044940569e-05
0.008262105024629277,-0.0005453577862808316,-1.4937503859723983e-05
0.009358639566052181,-0.0005409526001331612,-1.5209081456327482e-05
0.010463802798242834,-0.0005359969895420874,-1.5478318853746293e-05
0.011575107870971477,-0.0005304872618747839,-1.574493991660051e-05
0.01269003867586128,-0.0005244209752380757,-1.6008666975878725e-05
0.013806065083325757,-0.0005177969492982789,-1.6269221457012812e-05
0.014920657686512477,-0.0005106152686058194,-1.6526324511488838e-05
0.016031301834758118,-0.0005028772787255018,-1.6779697648321667e-05
0.01713551076261609,-0.0004945855755761582,-1.702906336189708e-05
0.01823083765918895,-0.00048574398847070694,-1.7274145752908797e-05
0.019314886577436838,-0.0004763575574115505,-1.751467113937936e-05
0.02038532215048378,-0.0004664325052295704,-1.775036865503964e-05
0.0214398781505516,-0.00045597620515431153,-1.798097083263561e-05
0.02247636498144627,-0.0004449971443713121,-1.8206214170017016e-05
0.023492676224978287,-0.0004335048840697059,-1.842583967712727e-05
0.024486794361141633,-0.00042151001642317596,-1.8639593402250493e-05
0.025456795758159855,-0.0004090241188933506,-1.8847226936079626e-05
0.026400855000521428,-0.00039605970620368026,-1.9048497892353883e-05
0.027317248614699523,-0.00038263018029987503,-1.924317036397977e-05
0.02820435827177602,-0.00036874977857825615,-1.9431015353699304e-05
0.02906067357090468,-0.00035443352061758596,-1.9611811178498263e-05
0.029884794506734643,-0.00033969715359817614,-1.9785343847052205e-05
0.030675433701516805,-0.0003245570965461133,-1.9951407409588276e-05
0.03143141847653646,-0.00030903038350159996,-2.0109804279600205e-05
0.03215169286459336,-0.0002931346056663175,-2.0260345526892186e-05
0.03283531969111744,-0.0002768878525273898,-2.040285114144061e-05
0.033481482838680604,-0.00026030865189494027,-2.0537150267546192e-05
0.03408948976452035,-0.00024341590874414002,-2.0663081407705963e-05
0.03465877429076658,-0.00022622884273031828,-2.0780492595574578e-05
0.035188899641723906,-0.00020876692424719566,-2.0889241537318957e-05
0.03567956165522532,-0.00019104980892295837,-2.0989195720611496e-05
0.036130592043135866,-0.00017309727049836808,-2.1080232490466828e-05
0.036541961521262496,-0.00015492913210726848,-2.1162239091118237e-05
0.036913782569017554,-0.00013656519608469845,-2.1235112673166227e-05
0.037246311521010364,-0.00011802517256219147,-2.129876026532795e-05
0.03753994966711598,-9.932860726515989e-05,-2.1353098710284786e-05
0.037795243067076253,-8.049480908161184e-05,-2.1398054564371478e-05
0.03801288085287838,-6.154277810162319e-05,-2.1433563961167286e-05
0.03819369186559333,-4.249113492200526e-05,-2.1459572439423194e-05
0.03833863954665419,-2.3358052068943377e-05,-2.147603473617093e-05
0.038448815092145205,-4.161188409243529e-06,-2.1482914546290476e-05
0.03852542899174384,1.5082372611728733e-05,-2.1480184250239856e-05
0.03856980119106373,3.435618015743062e-05,-2.1467824612047566e-05
0.038583350195615436,5.3644468004100416e-05,-2.1445824450007185e-05
0.038567581457420105,7.29322009173593e-05,-2.141418028277682e-05
0.038524075365508295,9.22051151230914e-05,-2.1372895953766708e-05
0.038454475105979054,0.00011144975274096324,-2.1321982236800696e-05
0.03836047455230841,0.0001306534901555351,-2.1261456426076572e-05
0.03824380620031424,0.00014980456034369076,-2.1191341913451766e-05
0.03810622902636866,0.00016889206915036148,-2.1111667756078254e-05
0.03794951607925114,0.00018790600542676643,-2.1022468237433974e-05
0.03777544163082527,0.00020683724485428553,-2.0923782424863712e-05
0.03758576778286244,0.00022567754720770745,-2.0815653726848214e-05
0.037382230525075485,0.0002444195467846919,-2.0698129453350116e-05
0.03716652533888422,0.00026305673575068185,-2.0571260382716273e-05
0.036940292512614215,0.00028158344021355643,-2.0435100338725213e-05
0.036705102347638144,0.0002999947889286195,-2.0289705781439668e-05
0.03646244039677635,0.00031828667461472317,-2.0135135415553834e-05
0.036213692834333976,0.0003364557079225008,-1.9971449819919528e-05
0.03596013205881939,0.0003544991641457891,-1.9798711101902455e-05
0.035702902676025036,0.0003724149228295002,-1.9616982580158632e-05
0.035443008065963254,0.00039020140051499727,-1.9426328499322508e-05
0.03518129777243058,0.00040785747697459575,-1.922681377995011e-05
0.034918455964280476,0.0004253824154087735,-1.9018503806854267e-05
0.03465499121263867,0.00044277577720300325,-1.8801464258701322e-05
0.03439122781678366,0.00046003733196035883,-1.8575760981410482e-05
0.03412729888898504,0.000477166963636801,-1.8341459907511193e-05
0.033863141358230896,0.000494164573698605,-1.8098627023177343e-05
0.033598492968379794,0.0005110299822802577,-1.7847328384182626e-05
0.03333289125326241,0.0005277628283356682,-1.7587630181528644e-05
0.03306567440834853,0.0005443624697510709,-1.7319598857006957e-05
0.03279598396727985,0.000560827884344978,-1.7043301268482945e-05
0.03252276923307993,0.0005771575726450679,-1.6758804904235434e-05
0.032244793494201805,0.0005933494633268883,-1.6466178145242445e-05
0.031960642136456434,0.0006094008222345529,-1.6165490573852085e-05
0.03166873279391382,0.0006253081659671454,-1.585681332680166e-05
0.03136732764990395,0.0006410671810780998,-1.554021949004035e-05
0.031054547936975187,0.0006566726499748196,-1.521578453227712e-05
0.030728390630874163,0.000672118384616782,-1.488358677362922e-05
0.030386747294550775,0.0006873971690981382,-1.4543707885200491e-05
0.030027424988014577,0.0007025007121687796,-1.4196233414883761e-05
0.029648169102841276,0.0007174196106914935,-1.3841253334168693e-05
0.02924668789979929,0.0007321433249421537,-1.3478862600260281e-05
0.028820678432150002,0.000746660166525141,-1.3109161727393457e-05
0.02836785345298265,0.0007609572994964242,-1.2732257360888064e-05
0.027885968865537063,0.0007750207550760542,-1.2348262847244945e-05
0.027372851289983628,0.0007888354601149343,-1.1957298793447198e-05
0.026826425362258582,0.0008023852792779949,-1.1559493608598966e-05
0.02624474041818203,0.0008156530707231051,-1.115498402109869e-05
0.025625996247252154,0.0008286207548894636,-1.0743915564695548e-05
0.024968567641138334,0.0008412693958615613,-1.0326443027007792e-05
0.02427102750367064,0.0008535792946477635,-9.902730854380461e-06
0.023532168302370027,0.0008655300935992736,-9.472953507318702e-06
0.022751021622026447,0.0008771008910803727,-9.03729576114879e-06
0.021926875561730726,0.000888270365376312,-8.59595294703462e-06
0.021059289727989587,0.0008990169066987421,-8.149131129015857e-06
0.020148107620632603,0.0009093187560358976,-7.697047213332196e-06
0.01919346627530681,0.0009191541495098825,-7.239928986945751e-06
0.018195803102778012,0.0009285014668544037,-6.7780150828546796e-06
0.017155859926231098,0.000937339382611656,-6.311554870488164e-06
0.016074684238087004,0.0009456470186527356,-5.840808270172067e-06
0.014953627683326523,0.0009534040966330889,-5.3660454913506106e-06
0.013794341761912049,0.0009605910889943986,-4.887546694943739e-06
0.012598770752538027,0.000967189367123011,-4.4056015809143865e-06
0.011369141880370913,0.0009731813452812383,-3.920508902813324e-06
0.010107952757285352,0.0009785506189406523,-3.4325759117578513e-06
0.008817956115899831,0.0009832820961589487,-2.942117732982951e-06
0.007502141867819801,0.0009873621206548785,-2.449456678779494e-06
0.006163716562573872,0.000990778585262477,-1.9549215023001554e-06
0.004806080398085212,0.0009935210345026419,-1.4588465973588758e-06
0.0034328020122387634,0.000995580755105223,-9.615711499569097e-07
0.0020475913539940924,0.0009969508534467813,-4.634382478189086e-07
0.0006542709894434266,0.0009976263190326407,3.5206045300947e-08
-0.0007432537626859212,0.00099760407333933,5.340136433939397e-07
-0.0021410254609891557,0.0009968830035334113,1.032635412612125e-06
-0.003535065547855701,0.0009954639807812,1.530722158690778e-06
-0.004921405374010871,0.0009933498630507335,2.0279256196487616e-06
-0.0062961169176521566,0.0009905454824778177,2.523899456030899e-06
-0.007655342900326491,0.000987057617523323,3.0183002310311844e-06
-0.008995325999871694,0.0009828949502982734,3.5107883729865834e-06
-0.01031243683520951,0.0009780680095895031,4.001029112958527e-06
-0.011603200373309235,0.0009725891002873735,4.488693390427746e-06
-0.012864320400539883,0.0009664722200939112,4.9734587205230675e-06
-0.014092701713766224,0.0009597329645653346,5.455010016687879e-06
-0.015285469733315012,0.0009523884217035643,5.933040363255104e-06
-0.01643998732723286,0.0009444570574384273,6.407251733040602e-06
-0.017553868744716147,0.00093595859342044,6.877355645755319e-06
-0.01862499065148163,0.0009269138785713906,7.343073763753276e-06
-0.01965150032224114,0.0009173447558279598,7.804138422353114e-06
-0.02063182108588091,0.0009072739254759293,8.260293092679086e-06
-0.021564655156796533,0.0008967248064152599,8.711292775651884e-06
-0.02244898402378193,0.0008857213966201152,9.156904326410727e-06
-0.023284066597921583,0.0008742881339646894,9.596906709056929e-06
-0.024069435339073256,0.0008624497584804406,1.0031091182168211e-05
-0.024804890582774793,0.0008502311769999786,1.0459261416038316e-05
-0.025490493270938948,0.0008376573310365502,1.0881233543047448e-05
-0.026126556255880205,0.0008247530686548454,1.1296836142970297e-05
-0.02671363430791249,0.0008115430210138972,1.1705910165387482e-05
-0.027252512913019195,0.0007980514842086643,1.2108308791693123e-05
-0.027744195905242835,0.0007843023070040988,1.2503897239496314e-05
-0.02818989195349782,0.0007703187850394136,1.2892552512507191e-05
-0.028590999916291982,0.0007561235620719662,1.3274163099285036e-05
-0.02894909308364608,0.0007417385388219816,1.3648628624508524e-05
-0.02926590235086761,0.0007271847899633533,1.4015859456704858e-05
-0.02954329842235851,0.0007124824897700467,1.4375776276638208e-05
-0.029783273212542306,0.0006976508468613216,1.472830961079605e-05
-0.029987920673052677,0.0006827080483899229,1.507339933460886e-05
-0.03015941731636773,0.0006676712138925678,1.5410994150179483e-05
-0.030300002712918207,0.0006525563588852464,1.5741051043373935e-05
-0.03041196020588159,0.0006373783681555464,1.6063534725134135e-05
-0.030497598039993513,0.0006221509785940777,1.6378417061821542e-05
-0.03055923107986662,0.0006068867713141126,1.668567649929859e-05
-0.03059916330903828,0.0005915971727168864,1.698529748530634e-05
-0.03061967131798323,0.000576292464060131,1.7277269894500596e-05
-0.030622988971830148,0.0005609817989876777,1.7561588460262547e-05
-0.030611293394832536,0.000545673228396012,1.783825221710847e-05
-0.030586692340667385,0.000530373731962137,1.8107263957198006e-05
-0.03055121296171907,0.0005150892556365403,1.8368629704097674e-05
-0.03050679196879641,0.0004998247544039115,1.8622358206607787e-05
-0.030455267185483005,0.0004845842396153416,1.88684604551126e-05
-0.030398370521468744,0.00046937083018860367,1.9106949222563584e-05
-0.030337722388351685,0.00045418680696114854,1.9337838631851024e-05
-0.030274827551785476,0.00043903366947611427,1.956114375096034e-05
-0.030211072366079422,0.00042391219449664804,1.977688021695353e-05
-0.030147723290658946,0.00040882249558246345,1.9985063889473308e-05
-0.030085926555971525,0.0003937640831208058,2.0185710534149124e-05
-0.03002670882851855,0.0003787359242746833,2.0378835535997995e-05
-0.029970978707381593,0.0003637365023907083,2.0564453642664342e-05
-0.02991952885606359,0.00034876387549984697,2.0742578737136982e-05
-0.029873038540065355,0.00033381573365081474,2.0913223639424648e-05
-0.029832076333915655,0.0003188894549323195,2.1076399936570433e-05
-0.029797102812633283,0.00030398216014568226,2.1232117840339933e-05
-0.02976847314341414,0.0002890907661566704,2.138038607191552e-05
-0.029746439597970045,0.0002742120379713244,2.152121177294752e-05
-0.029731154074740484,0.0002593426395531468,2.1654600442328636e-05
-0.029722670742963028,0.0002444791833487209,2.1780555898054102e-05
-0.029720948899570835,0.00022961827843808743,2.1899080263500803e-05
-0.029725856070658314,0.00021475657719553014,2.2010173977409208e-05
-0.029737171318810436,0.00019989082034816295,2.2113835826795132e-05
-0.029754588677855267,0.00018501788034899652,2.221006300196942e-05
-0.02977772063931987,0.00017013480301970274,2.2298851172811594e-05
-0.029806101630472613,0.00015523884745225462,2.2380194585429583e-05
-0.029839191434678846,0.00014032752418596675,2.245408617833914e-05
-0.029876378527172155,0.000125398631695504,2.2520517717309508e-05
-0.029916983334027415,0.0001104502912302041,2.2579479948040934e-05
-0.029960261439743,9.548098003676149e-05,2.2630962765857674e-05
-0.030005406759821846,8.048956298687028e-05,2.2674955401613583e-05
-0.03005155468451088,6.54753226257871e-05,2.2711446623016748e-05
-0.030097785209053592,5.0437987652395975e-05,2.2740424950586295e-05
-0.03014312608791196,3.537775982815459e-05,2.2761878887456432e-05
-0.030186556061226947,2.0295339290869863e-05,2.277579716223619e-05
-0.030227008186147337,5.191948229026291e-06,2.2782168984116162e-05
-0.03026337327993452,-9.930647137494174e-06,2.2780984309389047e-05
-0.030294503481735086,-2.5070116327911576e-05,2.2772234118522696e-05
-0.0303192159730521,-4.022354619160838e-05,2.2755910702892816e-05
-0.030336296925947134,-5.538742441635819e-05,2.2732007960240823e-05
-0.030344505733731136,-7.055762508127775e-05,2.2700521697866415e-05
-0.03034257953582237,-8.572939639866612e-05,2.266144994249643e-05
-0.03032923803327688,-0.00010089735079094094,2.261479325569903e-05
-0.030303188629868697,-0.00011605545745672734,2.2560555053637114e-05
-0.03026313198715047,-0.00013119703761098212,2.2498741929870185e-05
-0.03020776809550355,-0.00014631476263164561,2.2429363979809527e-05
-0.03013580291909863,-0.00016140065538529616,2.2352435125305293e-05
-0.030045955600275186,-0.0001764460950151396,2.2267973437705184e-05
-0.02993696615783457,-0.00019144182545466703,2.2176001457587732e-05
-0.029807603609028975,-0.0002063779678963829,2.207654650924997e-05
-0.029656674464049675,-0.00022124403741465256,2.196964100792221e-05
-0.029483031542223297,-0.00023602896391622082,2.185532275758949e-05
-0.02928558302272358,-0.00025072111755745756,2.173363523722107e-05
-0.029063301586062802,-0.00026530833870965414,2.1604627873154292e-05
-0.028815233452994724,-0.0002797779724694185,2.1468356295359524e-05
-0.028540507100355217,-0.000294116907607756,2.1324882575340232e-05
-0.028238341428185418,-0.00030831161973989116,2.117427544350332e-05
-0.027908053163962693,-0.0003223482183879282,2.1016610483971365e-05
