frame_number,force
0,498.3305050020631
1,498.3366076031734
2,498.3427402575742
3,498.34893257821545
4,498.3552133017289
5,498.3616098589173
6,498.36814795140003
7,498.37485113415926
8,498.38174040706167
9,498.3888338235207
10,498.3961461287879
11,498.4036884422765
12,498.4114679978872
13,498.41948795484603
14,498.42774729017884
15,498.4362407822233
16,498.4449590913943
17,498.4538889397649
18,498.46301338602274
19,498.4723121882022
20,498.4817622443326
21,498.49133810123936
22,498.5010125230783
23,498.5107571114502
24,498.52054296678034
25,498.5303413771533
26,498.5401245183345
27,498.5498661485132
28,498.55954228270485
29,498.5691318335928
30,498.5786172078094
31,498.58798484969367
32,498.5972257275534
33,498.6063357586407
34,498.61531616833486
35,498.6241737783453
36,498.63292121963593
37,498.64157706832884
38,498.65016590660855
39,498.6587183146342
40,498.66727080175855
41,498.67586568432864
42,498.68455091364444
43,498.6933798539107
44,498.70241100844896
45,498.7117076929428
46,498.7213376554685
47,498.7313726437638
48,498.74188792131963
49,498.75296173578704
50,498.76467474478784
51,498.777109404317
52,498.7903493237352
53,498.8044785899612
54,498.8195810625793
55,498.83573964154044
56,498.85303551016176
57,498.87154735775704
58,498.89135058779897
59,498.912516519278
60,498.93511159154554
61,498.95919658600565
62,498.9848258801208
63,499.01204674920774
64,499.04089872955024
65,499.0714130538315
66,499.1036121682264
67,499.13750933951457
68,499.1731083586257
69,499.210403343218
70,499.2493786374263
71,499.2900088038865
72,499.3322587023021
73,499.3760836489023
74,499.421429650679
75,499.4682337075848
76,499.51642417627323
77,499.56592119072957
78,499.6166371372452
79,499.6684771825819
80,499.72133985444026
81,499.7751176726583
82,499.8296978282525
83,499.88496290533465
84,499.94079163782317
85,499.99705968968595
86,500.0536404459456
87,500.11040580198136
88,500.16722693929967
89,500.223975076204
90,500.2805221822914
91,500.3367416469011
92,500.3925088936099
93,500.44770193566654
94,500.5022018706857
95,500.5558933164158
96,500.6086647922097
97,500.66040905232813
98,500.7110233771754
99,500.7604098273618
100,500.80847546406005
101,500.85513253869607
102,500.90029865600656
103,500.9438969157557
104,500.98585603836113
105,501.0261104785388
106,501.0646005307675
107,501.101272431752
108,501.1360784663804
109,501.168977083019
110,501.19993302168905
111,501.22891745612776
112,501.25590814842786
113,501.2808896125398
114,501.3038532802763
115,501.3247976606681
116,501.3437284804686
117,501.36065879064506
118,501.37560902238704
119,501.3886069776671
120,501.3996877428085
121,501.40889351725383
122,501.4162733534606
123,501.42188280836024
124,501.4257835125734
125,501.4280426695376
126,501.4287325007486
127,501.4279296544787
128,501.42571459432764
129,501.42217098113207
130,501.41738505641524
131,501.41144502811034
132,501.404440452376
133,501.39646160185043
134,501.3875988114438
135,501.37794179644067
136,501.3675789426616
137,501.35659657349646
138,501.3450782022452
139,501.3331037789066
140,501.32074893860926
141,501.30808425674456
142,501.2951745159466
143,501.28207799243756
144,501.26884577209955
145,501.25552110842943
146,501.2421388350585
147,501.22872484527164
148,501.2152956503752
149,501.20185802761966
150,501.1884087658206
151,501.1749345125232
152,501.1614117218206
153,501.1478066987342
154,501.13407573548557
155,501.1201653371065
156,501.1060125379216
157,501.0915453145569
158,501.0766831027614
159,501.0613374236971
160,501.0454126221872
161,501.02880671666975
162,501.0114123586176
163,500.9931178971383
164,500.97380854156563
165,500.9533676107631
166,500.93167785297754
167,500.90862281579354
168,500.8840882437335
169,500.85796348178707
170,500.83014286529817
171,500.80052707855486
172,500.7690244660126
173,500.73555228215105
174,500.7000378680915
175,500.66241974377544
176,500.6226486035115
177,500.58068820172423
178,500.53651611631057
179,500.49012437925325
180,500.4415199675568
181,500.3907251514624
182,500.33777770000194
183,500.2827309449876
184,500.22565370379186
185,500.16663006054176
186,500.10575900583996
187,500.0431539361672
188,499.97894201441704
189,499.9132633926478
190,499.8462702985996
191,499.7781259898709
192,499.7090035834343
193,499.6390847721799
194,499.56855844368044
195,499.4976192192741
196,499.42646593354954
197,499.35530007485863
198,499.2843242066594
199,499.21374038793886
200,499.14374860918537
201,499.074545259075
202,499.00632163713004
203,498.9392625289068
204,498.87354486151713
205,498.80933645769903
206,498.74679490598373
207,498.68606656212523
208,498.6272856925135
209,498.57057376477076
210,498.5160388858988
211,498.4637753851692
212,498.41386353688836
213,498.36636941624374
214,498.3213448795039
215,498.27882765831635
216,498.23884155692303
217,498.20139674099903
218,498.1664901077604
219,498.13410572870924
220,498.1042153583847
221,498.0767790047161
222,498.051745558705
223,498.0290534824327
224,498.0086315547068
225,497.99039967336523
226,497.9742697119628
227,497.9601464258431
228,497.94792839908786
229,497.93750902067734
230,497.9287774761061
231,497.92161974034923
232,497.91591955974513
233,497.91155941279953
234,497.9084214409751
235,497.9063883397312
236,497.90534419921215
237,497.90517528487146
238,497.9057707510559
239,497.9070232840314
240,497.90882967378144
241,497.91109131501304
242,497.913714637157
243,497.91661146212215
244,497.91969928860806
245,497.92290150328796
246,497.92614752160574
247,497.9293728633086
248,497.9325191694569
249,497.93553416856514
250,497.9383716004079
251,497.94099110747976
252,497.94335810579776
253,497.9454436470761
254,497.9472242816937
255,497.94868192674153
256,497.9498037381099
257,497.9505819820731
258,497.95101390066986
259,497.95110156624764
260,497.95085172355545
261,497.95027562135505
262,497.94938883754475
263,497.94821110165066
264,497.9467661177464
265,497.9450813903098
266,497.9431880543861
267,497.9411207096614
268,497.9389172571523
269,497.9366187376779
270,497.9342691718001
271,497.93191540045046
272,497.9296069243369
273,497.9273957396723
274,497.925336168564
275,497.92348468371216
276,497.9218997270665
277,497.9206415204029
278,497.91977186430563
279,497.9193539227666
280,497.9194519928079
281,497.92013125930475
282,497.9214575332336
283,497.923496968843
284,497.92631575455334
285,497.9299797746368
286,497.934554242415
287,497.94010330830963
288,497.9466896463213
289,497.95437402154295
290,497.9632148412937
291,497.9732676943129
292,497.98458488533214
293,497.9972149748704
294,498.01120233547755
295,498.02658673591503
296,498.04340296417854
297,498.0616804985086
298,498.0814432318993
299,498.10270925042704
300,498.1254906608299
301,498.149793460129
302,498.1756174404351
303,498.202956124706
304,498.231796732582
305,498.26212017842255
306,498.2939011058457
307,498.3271079636721
308,498.3617031265769
309,498.3976430606624
310,498.4348785311925
311,498.47335484788493
312,498.5130121425616
313,498.55378567404426
314,498.59560615522315
315,498.638400097155
316,498.68209016536593
317,498.7265955444706
318,498.77183230844093
319,498.81771379489845
320,498.86415098232845
321,498.9110528688589
322,498.9583268501537
323,499.0058790931196
324,499.05361490356364
325,499.1014390900542
326,499.14925633024325
327,499.19697154671906
328,499.2444902972082
329,499.29171918116305
330,499.33856626324
331,499.3849415139215
332,499.4307572676392
333,499.4759286976986
334,499.5203743036034
335,499.56401640038405
336,499.60678159400237
337,499.6486012249235
338,499.6894117644625
339,499.7291551540614
340,499.76777908393353
341,499.80523721267514
342,499.8414893321705
343,499.87650148168444
344,499.9102460120017
345,499.94270159678416
346,499.9738531859909
347,500.0036918961148
348,500.0322148338381
349,500.0594248525884
350,500.0853302444196
351,500.109944372299
352,500.1332852505849
353,500.15537508430157
354,500.17623977973335
355,500.19590843855707
356,500.21441284519534
357,500.23178695377493
358,500.2480663784166
359,500.26328788889055
360,500.27748891286257
361,500.2907070461844
362,500.30297957382356
363,500.31434300536296
364,500.3248326298783
365,500.3344820954856
366,500.3433230193931
367,500.35138463481013
368,500.35869348085026
369,500.3652731402166
370,500.37114402756686
371,500.3763232299243
372,500.38082439935596
373,500.38465769687286
374,500.3878297855828
375,500.3903438719659
376,500.39219979729637
377,500.3933941852482
378,500.3939206538787
379,500.3937700985856
380,500.392931047936
381,500.3913900890993
382,500.3891323559021
383,500.38614206985505
384,500.3824031215839
385,500.3778996768629
386,500.37261678908527
387,500.36654099949754
388,500.3596609080355
389,500.35196770058786
390,500.3434556217757
391,500.3341223845237
392,500.32396950860874
393,500.3130025814914
394,500.30123143777325
395,500.28867025831687
396,500.27533759427075
397,500.261256323332
398,500.2464535460925
399,500.23096043083586
400,500.21481201602415
401,500.19804697955016
402,500.1807073817188
403,500.1628383863716
404,500.14448796392463
405,500.1257065811961
406,500.10654688317936
407,500.08706336969755
408,500.0673120660604
409,500.0473501834516
410,500.02723576359597
411,500.00702730424285
412,499.98678336627836
413,499.96656216744145
414,499.9464211700602
415,499.92641667114725
416,499.906603402966
417,499.88703415072354
418,499.8677593922285
419,499.84882696359307
420,499.83028175530575
421,499.8121654430791
422,499.7945162573858
423,499.7773687950152
424,499.7607538755465
425,499.7446984448438
426,499.7292255257275
427,499.7143542126145
428,499.7000997028072
429,499.68647335329
430,499.6734827494408
431,499.6611317723952
432,499.64942065579896
433,499.63834602930797
434,499.62790095288454
435,499.6180749505914
436,499.6088540545029
437,499.60022086874756
438,499.5921546608376
439,499.5846314826948
440,499.5776243185541
441,499.5711032536476
442,499.5650356579592
443,499.559386383017
444,499.55411797481804
445,499.5491909105887
446,499.5445638696294
447,499.54019404783855
448,499.5360375215416
449,499.5320496609218
450,499.52818558982085
451,499.5244006882168
452,499.52065113391774
453,499.5168944777604
454,499.5130902422394
455,499.5092005304803
456,499.5051906329932
457,499.50102962210957
458,499.49669092509964
459,499.4921528651509
460,499.48739915606546
461,499.4824193341501
462,499.47720911049396
463,499.4717706285552
464,499.46611261552493
465,499.4602504209468
466,499.45420594087665
467,499.4480074279236
468,499.44168918621597
469,499.4352911483634
470,499.4288583319703
471,499.4224401767457
472,499.4160897685529
473,499.4098629627668
474,499.4038174251019
475,499.39801161279405
476,499.39250372231226
477,499.38735063154667
478,499.3826068644619
479,499.37832360434976
480,499.37454777821057
481,499.37132122999645
482,499.36867999533047
483,499.3666536857729
484,499.36526498722174
485,499.3645292742424
486,499.3644543392257
487,499.3650402320472
488,499.36627920329767
489,499.3681557436544
490,499.3706467141733
491,499.3737215658815
492,499.3773426497231
493,499.3814656184237
494,499.38603992069886
495,499.3910093863262
496,499.396312898269
497,499.40188514509026
498,499.40765744305094
499,499.4135586128672
500,499.41951589203444
501,499.42545586046435
502,499.4313053548934
503,499.4369923470185
504,499.44244676352446
505,499.4476012336934
506,499.4523917599107
507,499.4567583145472
508,499.46064537060516
509,499.46400237245973
510,499.46678414879034
511,499.4689512653768
512,499.47047031245387
513,499.47131411936243
514,499.4714618877117
515,499.47089923391366
516,499.469618134092
517,499.467616768881
518,499.46489927069507
519,499.4614753802753
520,499.4573600230496
521,499.4525728197654
522,499.4471375492204
523,499.44108158200135
524,499.43443530215825
525,499.4272315296466
526,499.41950495201706
527,499.41129157057514
528,499.402628164407
529,499.3935517752168
530,499.3840992169324
531,499.3743066159055
532,499.36420898875576
533,499.3538398650474
534,499.3432309624374
535,499.33241192359264
536,499.3214101255878
537,499.3102505712647
538,499.29895586734284
539,499.28754628754217
540,499.27603991313487
541,499.2644528397536
542,499.2527994383267
543,499.24109265917804
544,499.22934437033257
545,499.217565722721
546,499.2057675363411
547,499.1939607030098
548,499.1821566021831
549,499.17036752489764
550,499.15860709770124
551,499.146890695674
552,499.13523583233916
553,499.12366251396594
554,499.11219354633073
555,499.1008547839059
556,499.08967531450884
557,499.078687575272
558,499.0679273970946
559,499.05743397492375
560,499.04724976210366
561,499.0374202895906
562,499.02799391401675
563,499.01902150086005
564,499.010556049991
565,499.00265227139334
566,498.99536611965857
567,498.98875429657653
568,498.9828737306508
569,498.97778104056795
570,498.97353198803916
571,498.9701809251788
572,498.9677802423373
573,498.96637982327684
574,498.9660265155328
575,498.96676362449773
576,498.9686304394312
577,498.9716617978645
578,498.9758876925319
579,498.98133292289924
580,498.9880167916712
581,498.99595284553754
582,499.00514865961344
583,499.0156056664587
584,499.0273190319777
585,499.0402775810062
586,499.0544637749883
587,499.0698537431012
588,499.0864173668307
589,499.1041184168184
590,499.1229147405099
591,499.14275850039417
592,499.16359646513547
593,499.1853703577927
594,499.2080172647556
595,499.2314701059715
596,499.25565816269807
597,499.28050765420016
598,499.3059423497357
599,499.3318841975611
600,499.358253950376
601,499.3849717685156
602,499.4119577881126
603,499.4391326488137
604,499.46641798181025
605,499.4937368629397
606,499.5210142375005
607,499.54817732332884
608,499.5751559969046
609,499.6018831646233
610,499.6282951189644
611,499.65433187763625
612,499.6799375025521
613,499.7050603940419
614,499.7296535542993
615,499.7536748136155
616,499.7770870138064
617,499.7998581450132
618,499.82196143424915
619,499.843375385876
620,499.8640837743035
621,499.8840755873524
622,499.90334491698667
623,499.9218907947424
624,499.93971697170525
625,499.95683164553736
626,499.9732471398899
627,499.9889795455936
628,500.00404833717863
629,500.01847597972073
630,500.03228753900265
631,500.04551030504473
632,500.0581734375984
633,500.07030764190984
634,500.0819448824116
635,500.0931181399343
636,500.1038612140511
637,500.1142085667702
638,500.12419519886424
639,500.13385654768206
640,500.1432283957812
641,500.15234678174477
642,500.1612479062129
643,500.16996802707695
644,500.17854333886027
645,500.1870098324441
646,500.1954031310074
647,500.2037582961165
648,500.21210959650546
649,500.2204902335234
650,500.228932021511
651,500.23746502670133
652,500.24611717314144
653,500.25491382815045
654,500.2638773826069
655,500.27302684216266
656,500.28237744352265
657,500.29194030520364
658,500.3017221164322
659,500.31172486397065
660,500.3219455967176
661,500.33237623163865
662,500.34300340933714
663,500.35380841003683
664,500.3647671395247
665,500.3758501909621
666,500.38702298416996
667,500.39824598005356
668,500.4094749653522
669,500.42066140275176
670,500.43175284302157
671,500.4426933975725
672,500.45342427022445
673,500.4638843454962
674,500.4740108282685
675,500.48373992773463
676,500.4930075775069
677,500.50175018258483
678,500.50990538216854
679,500.5174128160084
680,500.52421488188645
681,500.53025747189145
682,500.53549067428594
683,500.539869427276
684,500.54335411282887
685,500.54591108213015
686,500.54751310675374
687,500.54813975008176
688,500.5477776534146
689,500.54642073245293
690,500.5440702828219
691,500.54073499671813
692,500.53643089474446
693,500.5311811768983
694,500.5250159957585
695,500.51797215484794
696,500.51009273608145
697,500.5014266609336
698,500.49202818949385
699,500.4819563601118
700,500.47127437114887
701,500.46004890691677
702,500.4483494124466
703,500.4362473251625
704,500.42381527461157
705,500.41112626409273
706,500.3982528511062
707,500.3852663471156
708,500.37223605969547
709,500.35922859967746
710,500.34630727172276
711,500.3335315600574
712,500.3209567139426
713,500.3086334318632
714,500.29660764111077
715,500.28492037066223
716,500.27360771807065
717,500.2627009127965
718,500.252226477572
719,500.24220648639664
720,500.2326589140317
721,500.2235980689973
722,500.2150351010785
723,500.20697857481287
724,500.1994351010218
725,500.1924100179434
726,500.18590811126063
727,500.1799343585319
728,500.1744946799797
729,500.1695966763354
730,500.1652503356368
731,500.16146869287377
732,500.15826842782866
733,500.15567038703887
734,500.153700015609
735,500.15238768423745
736,500.1517688975989
737,500.15188437292215
738,500.1527799813191
739,500.1545065477279
740,500.1571195083046
741,500.16067842778654
742,500.16524638361346
743,500.17088922690414
744,500.177674732114
745,500.1856716486425
746,500.1949486703716
747,500.20557334320023
748,500.21761093520206
749,500.23112329811073
750,500.24616775136894
751,500.2627960198456
752,500.28105325296616
753,500.3009771470812
754,500.3225971860176
755,500.34593400810877
756,500.3709989020523
757,500.39779342953165
758,500.4263091706883
759,500.4565275891757
760,500.4884200153489
761,500.5219477474534
762,500.55706227016833
763,500.59370558725345
764,500.6318106613802
765,500.6713019508683
766,500.7120960304232
767,500.75410228042045
768,500.79722362671686
769,500.8413573115306
770,500.88639567651904
771,500.932226941258
772,500.97873596281863
773,501.0258049644767
774,501.0733142235692
775,501.12114271020147
776,501.16916867076725
777,501.2172701540793
778,501.26532548313327
779,501.3132136807656
780,501.3608148615776
781,501.40801060485205
782,501.4546843232509
783,501.50072163971345
784,501.54601078125796
785,501.59044299545207
786,501.6339129948767
787,501.67631943633995
788,501.71756544207136
789,501.7575591674953
790,501.79621441532066
791,501.83345129145573
792,501.86919689647834
793,501.9033860462112
794,501.93596201406484
795,501.96687728493157
796,501.99609430646
797,502.02358622082727
798,502.0493375599986
799,502.0733448882935
800,502.095617374946
801,502.1161772761352
802,502.135060303987
803,502.1523158619853
804,502.1680071310997
805,502.1822109961104
806,502.19501780594004
807,502.2065309655654
808,502.216866360274
809,502.2261516155196
810,502.2345251980411
811,502.2421353672225
812,502.24913899002297
813,502.25570023750106
814,502.2619891853567
815,502.26818034488326
816,502.2744511539733
817,502.2809804596595
818,502.2879470235991
819,502.2955280797136
820,502.30389796828297
821,502.3132268630216
822,502.3236795989474
823,502.33541460254605
824,502.34858292363964
825,502.36332736956126
826,502.37978174455867
827,502.39807019894107
828,502.41830669195616
829,502.44059456924975
830,502.46502625119314
831,502.4916830243198
832,502.5206349256984
833,502.5519407093992
834,502.5856478848937
835,502.62179281828054
836,502.6604008875331
837,502.7014866819391
838,502.7450542338059
839,502.7910972687053
840,502.83959946100094
841,502.89053468503965
842,502.94386725803
843,502.99955217565775
844,503.05753534355046
845,503.1177538070408
846,503.1801359813467
847,503.2446018869115
848,503.3110633995186
849,503.3794245292925
850,503.44958174534565
851,503.52142436374265
852,503.5948350156102
853,503.6696902088317
854,503.7458609900582
855,503.82321370415025
856,503.9016108382908
857,503.98091193195125
858,504.0609745337322
859,504.14165519004507
860,504.22281045527154
861,504.3042979162895
862,504.3859772254113
863,504.4677111347649
864,504.54936652228696
865,504.630815395846
866,504.71193585931763
867,504.79261302385
868,504.87273984851515
869,504.95221789587174
870,505.03095798975056
871,505.10888076586406
872,505.1859171109069
873,505.2620084913576
874,505.33710717715525
875,505.4111763665537
876,505.4841902171252
877,505.55613378543165
878,505.6270028753373
879,505.69680379293
880,505.76555300534255
881,505.8332767016637
882,505.90001025567744
883,505.9657975916741
884,506.03069045678
885,506.0947476069709
886,506.158033918397
887,506.22061943916134
888,506.2825783983063
889,506.3439881885072
890,506.4049283372168
891,506.4654794782971
892,506.52572233326674
893,506.585736708867
894,506.64560051607674
895,506.7053888154686
896,506.76517289546837
