frame_number,force
0,642.1203600000263
1,641.7525300157968
2,641.3914480157817
3,641.043349372612
4,640.7135005223179
5,640.4058398268542
6,640.1227398468518
7,639.8649055528687
8,639.6314177164032
9,639.4199260831866
10,639.2269883848211
11,639.0485326355334
12,638.8803933551249
13,638.718848593868
14,638.5610736083229
15,638.4054335131402
16,638.2515623481594
17,638.1002135588159
18,637.9529068604157
19,637.8114343768336
20,637.6773231516498
21,637.5513736095468
22,637.4333906227115
23,637.3221862796833
24,637.2158681770056
25,637.1123568502992
26,637.0100211475199
27,636.908287892847
28,636.8080783553387
29,636.711958929728
30,636.6239620820752
31,636.549110025849
32,636.4927316030988
33,636.4596916951492
34,636.4536557141546
35,636.4765008878229
36,636.5279679316512
37,636.6056148432267
38,636.705084492029
39,636.8206431816669
40,636.9459065289044
41,637.0746440088916
42,637.2015388117441
43,637.3227810512699
44,637.4364019784125
45,637.5423121157926
46,637.6420664577727
47,637.7384234169183
48,637.8347832693349
49,637.934594052284
50,638.0408089250244
51,638.1554669409625
52,638.2794398222383
53,638.4123480150656
54,638.5526252471335
55,638.6977152893569
56,638.844399303374
57,638.9892451610897
58,639.1291329427573
59,639.2617712373141
60,639.3861097931901
61,639.5025772091312
62,639.6131060413808
63,639.7209395937548
64,639.8302475518074
65,639.9456093988658
66,640.0714417181285
67,640.2114406662247
68,640.3680951286299
69,640.5423132634048
70,640.7331921851957
71,640.9379394213731
72,641.1519345088155
73,641.3689139267494
74,641.581272388684
75,641.7804900534726
76,641.9577038884759
77,642.1044187133914
78,642.213296217454
79,642.2789072561085
80,642.2983251348993
81,642.2714711710838
82,642.2011630857985
83,642.0928427971294
84,641.9539870640086
85,641.7932515867278
86,641.6194577085752
87,641.4405687081471
88,641.2628018972797
89,641.0899931957359
90,640.9232884972267
91,640.7611901941925
92,640.5999436581413
93,640.434207048885
94,640.2579046357282
95,640.0651296054463
96,639.8509612212189
97,639.6120967768029
98,639.3472441463261
99,639.0572551631064
100,638.745007377074
101,638.4150659611366
102,638.073174292896
103,637.7256345658469
104,637.3786553671448
105,637.0377557925383
106,636.7073136996138
107,636.3903218208753
108,636.0883697248601
109,635.8018171595086
110,635.5300899683016
111,635.2720259064363
112,635.0262167935433
113,634.7913164094834
114,634.5662914809261
115,634.3505855874254
116,634.1441626291861
117,633.9474122047708
118,633.7609294608824
119,633.5852137959581
120,633.420351939547
121,633.265754989231
122,633.1200093584079
123,632.9808849108197
124,632.8455199369699
125,632.7107676225174
126,632.5736452253208
127,632.4317907391426
128,632.2838214567447
129,632.1295147011656
130,631.9697851219688
131,631.8064910539359
132,631.6421406489234
133,631.4795769179831
134,631.3217012495119
135,631.171257833798
136,631.0306687697736
137,630.9019050548505
138,630.7864018217721
139,630.6850473839756
140,630.5982661148436
141,630.5261761847443
142,630.4687617449792
143,630.4259828215227
144,630.397766224175
145,630.3838725928907
146,630.3836991424447
147,630.3961205824945
148,630.4194627806526
149,630.4516502532178
150,630.4905049820488
151,630.5341306272919
152,630.5812999213992
153,630.6317692274985
154,630.6864662027804
155,630.7475212806164
156,630.8181274584406
157,630.9022179240993
158,631.0039651562578
159,631.1271409831241
160,631.2744264624001
161,631.4467975911783
162,631.6431165285618
163,631.860027187988
164,632.0921951246657
165,632.3328485928394
166,632.5744909742117
167,632.8096084053287
168,633.03122403682
169,633.2332409420762
170,633.4106179538746
171,633.5594792443916
172,633.6772424561462
173,633.7627816469351
174,633.8165719237304
175,633.8407407998438
176,633.8389888551063
177,633.8164050829156
178,633.7792389885968
179,633.7346769068222
180,633.6906207208355
181,633.6554222674122
182,633.6375176412737
183,633.6449355669339
184,633.6847000377492
185,633.7621842345947
186,633.8804934426032
187,634.0399667143495
188,634.237892911634
189,634.4685278890707
190,634.7234689903712
191,634.992391070757
192,635.2640770179593
193,635.5275998302286
194,635.7734692339859
195,635.9945702249562
196,636.1867798505782
197,636.3492222287189
198,636.484195054271
199,636.596857838905
200,636.6947848243217
201,636.7874444263936
202,636.8856050059383
203,637.0006328037547
204,637.1436627100952
205,637.3246693486278
206,637.5515169687168
207,637.8291013627976
208,638.1587042153816
209,638.5376628823624
210,638.9594285077727
211,639.4140434163886
212,639.889006082083
213,640.3704189737729
214,640.8442645629965
215,641.2976461303186
216,641.7198483716528
217,642.103103420704
218,642.4429943662683
219,642.7384877260566
220,642.9916394763433
221,643.2070545667015
222,643.3912005560211
223,643.5516836818776
224,643.6965869198294
225,643.8339439988866
226,643.9713828433364
227,644.1159215950646
228,644.2738567258693
229,644.4506649068863
230,644.6508486437839
231,644.8776798549303
232,645.1328366798293
233,645.4159855861634
234,645.7244115589128
235,646.052824436154
236,646.3934685197205
237,646.7366295522681
238,647.0715505064366
239,647.3876445562687
240,647.6757846687221
241,647.929412123666
242,648.1452548370714
243,648.3235523871306
244,648.4678031903724
245,648.5841408736225
246,648.6804950161852
247,648.7656985563004
248,648.848672632947
249,648.937756532191
250,649.0401865471388
251,649.1617009129645
252,649.3062624034254
253,649.4759134826145
254,649.6707817058814
255,649.8892317981288
256,650.1281338267423
257,650.3832075993477
258,650.64941253759
259,650.9213557626467
260,651.1936796297914
261,651.4613840566855
262,651.7200559952015
263,651.9660095156119
264,652.1963621337898
265,652.4090705832933
266,652.6029286586628
267,652.7775143891155
268,652.933081154602
269,653.0704118830287
270,653.1906729799341
271,653.2952981668841
272,653.3859117817287
273,653.4642863594895
274,653.5323245710852
275,653.5920522344248
276,653.645601533138
277,653.6951537379839
278,653.7428091258308
279,653.7903744348226
280,653.8391086491308
281,653.88952000279
282,653.9413176670076
283,653.9935696461741
284,654.0450290561065
285,654.0945147626396
286,654.141205476621
287,654.1847368582148
288,654.2250693387573
289,654.262195097516
290,654.2958312588428
291,654.325256417007
292,654.349379483257
293,654.3670253516816
294,654.3773341919618
295,654.3801241501227
296,654.3760707904112
297,654.3666242981341
298,654.3536994578236
299,654.3392675029303
300,654.3249953778611
301,654.3120226566475
302,654.3008920562038
303,654.2916020824624
304,654.2837379223155
305,654.276638755283
306,654.2695584145935
307,654.2617760553958
308,654.2526303067293
309,654.2414869923612
310,654.2276855866597
311,654.2105162088054
312,654.1892527994637
313,654.163232566251
314,654.1319539419038
315,654.095170447087
316,654.0529702032626
317,654.0058355132029
318,653.9546741974923
319,653.9008128758313
320,653.845945956799
321,653.7920395455534
322,653.741193196414
323,653.6954635864813
324,653.6566543650996
325,653.6260817014406
326,653.604341427462
327,653.5911255386121
328,653.5851465241357
329,653.5842150038809
330,653.5854823541595
331,653.5858200524326
332,653.5822749379018
333,653.5725207733007
334,653.5552219699558
335,653.530231784503
336,653.4985650427028
337,653.4621232657638
338,653.4232098247717
339,653.383935749831
340,653.3456568267917
341,653.3085836965583
342,653.2716667236468
343,653.2327870870673
344,653.1892048659807
345,653.138145962358
346,653.0773739650161
347,653.0056073889338
348,652.9227047568378
349,652.829620436657
350,652.7281946147009
351,652.6208591964985
352,652.5103223006907
353,652.3992645694165
354,652.2900704746161
355,652.184626997718
356,652.0842200713922
357,651.9895322716541
358,651.9007186766078
359,651.8175342810806
360,651.739494698385
361,651.6660529496638
362,651.5967690941942
363,651.5314443375448
364,651.4701879851885
365,651.4133876696579
366,651.3615728674763
367,651.3152001615804
368,651.2744253434422
369,651.2389388500225
370,651.2079187095229
371,651.1801074526362
372,651.1539701388081
373,651.1278664659849
374,651.1001791605908
375,651.0693713845202
376,651.0339811556188
377,650.9925886325718
378,650.9438043197144
379,650.8863160957574
380,650.8189999672385
381,650.741062103898
382,650.6521661270955
383,650.5525133884515
384,650.4428631834207
385,650.324493231791
386,650.1991141722447
387,650.0687623595823
388,649.9356905775312
389,649.8022582759943
390,649.6708105696158
391,649.5435429684525
392,649.422369793802
393,649.3088239008507
394,649.2039984872387
395,649.1085172740152
396,649.0225156459018
397,648.945626173807
398,648.8769619033034
399,648.8150831679968
400,648.7579434449736
401,648.7028390018969
402,648.6464090825095
403,648.5847281465412
404,648.5135071222218
405,648.4283962794385
406,648.3253634059724
407,648.20109655027
408,648.0533499493038
409,647.881141533254
410,647.6847479662806
411,647.4655165990802
412,647.2255758129132
413,646.9675383810111
414,646.6942593310862
415,646.408663191445
416,646.1136273741605
417,645.8119062869231
418,645.5060877885994
419,645.1985717825004
420,644.8915528954532
421,644.5869922762101
422,644.2865804145068
423,643.9917049742725
424,643.7034306735844
425,643.4224792390281
426,643.1491824872077
427,642.883381699909
428,642.6242668769555
429,642.3701882976742
430,642.1185136171831
431,641.8656187657482
432,641.6070746817425
433,641.3380354215933
434,641.053769246793
435,640.7502235578696
436,640.4244981193219
437,640.0751302017187
438,639.7021516965556
439,639.3069276963821
440,638.8918172266189
441,638.4597243274563
442,638.0136344096511
443,637.5562344651631
444,637.0896796759034
445,636.6155087750143
446,636.1346620575509
447,635.6475419868432
448,635.1540729098999
449,634.6537498739036
450,634.1457019395847
451,633.6288102213721
452,633.1019031249565
453,632.564016870846
454,632.0146798721587
455,631.4541610358511
456,630.8836173636121
457,630.3050928789255
458,629.7213582312778
459,629.1356236101363
460,628.5511914743878
461,627.971131443851
462,627.3980487843334
463,626.8339784290077
464,626.2803889275575
465,625.7382541974196
466,625.2081545358885
467,624.6903886226115
468,624.1850963501228
469,623.6923963986279
470,623.2125331454115
471,622.74601410322
472,622.2937066810593
473,621.8568510803883
474,621.4369458474856
475,621.0354979104297
476,620.653699726404
477,620.2921568520383
478,619.9507903372481
479,619.6289775406218
480,619.3259090183092
481,619.0410663046125
482,618.7746922973975
483,618.5281440830688
484,618.3040707619548
485,618.1064080353399
486,617.9402007840213
487,617.811260519908
488,617.7256625662045
489,617.6891075849194
490,617.7062088311474
491,617.7798010709628
492,617.9103851976724
493,618.0958134201428
494,618.3312748171091
495,618.6095748248108
496,618.921654927239
497,619.2572926035614
498,619.6059304566098
499,619.957566698221
500,620.303595956433
501,620.6374628904603
502,620.9550211535902
503,621.2545720786544
504,621.5366463239649
505,621.8036400873328
506,622.0594077925874
507,622.3088641277241
508,622.5575974753515
509,622.8114744339555
510,623.0762279577181
511,623.3570530929646
512,623.6582573477805
513,623.9830100697616
514,624.3332141050325
515,624.7095040689409
516,625.1113652531467
517,625.5373534187001
518,625.9853708371586
519,626.4529313055773
520,626.9373496902548
521,627.4358259200662
522,627.945438573447
523,628.4630920739686
524,628.9854633050331
525,629.5089776610746
526,630.029827007873
527,630.5440286910319
528,631.0475150562769
529,631.5362424850144
530,632.0063205846602
531,632.4541739499255
532,632.8767496347283
533,633.2717779375837
534,633.638086681529
535,633.9759477019041
536,634.2873896767055
537,634.5763649663636
538,634.8486509381496
539,635.1114213774637
540,635.3725227669802
541,635.639584377291
542,635.9191354828877
543,636.2158882851395
544,636.5322934359413
545,636.8684113278256
546,637.22208113368
547,637.5893236749736
548,637.9648960289014
549,638.3429232724766
550,638.7175463719826
551,639.0835312629388
552,639.4367897901395
553,639.7747772004452
554,640.0967456301573
555,640.4038384946095
556,640.6990123082197
557,640.9867826380495
558,641.272811934369
559,641.5633812614532
560,641.864808323124
561,642.1828847298247
562,642.5223978739583
563,642.8867754771222
564,643.2778591795535
565,643.6957989549994
566,644.1390678395611
567,644.6046080351346
568,645.0881114948829
569,645.5844087068309
570,646.0879101146911
571,646.5930350735212
572,647.0945736597598
573,647.5879479983156
574,648.0693683321012
575,648.5359117545645
576,648.9855747619911
577,649.4173467501712
578,649.8313149892354
579,650.228757024017
580,650.6121338999959
581,650.9848974934885
582,651.3510760083195
583,651.7146804817521
584,652.0790442346278
585,652.4462404364284
586,652.8167136437855
587,653.1892120590079
588,653.5610285370509
589,653.9284751631114
590,654.2874618493713
591,654.6340431631171
592,654.9648322834079
593,655.2772353409894
594,655.5695173987543
595,655.8407616104649
596,656.0908087260699
597,656.3202489663295
598,656.5304837662123
599,656.7238074017984
600,656.9034197359548
601,657.0732976603724
602,657.2379086200451
603,657.4018037600814
604,657.5691565458854
605,657.7433204470722
606,657.9264796775101
607,658.1194625049948
608,658.321767738859
609,658.5318127691753
610,658.7473550073857
611,658.9659943513556
612,659.185652899204
613,659.4049478637529
614,659.6234104621697
615,659.841544207405
616,660.060747933148
617,660.2831421306174
618,660.5113329181058
619,660.7481399155392
620,660.9963182797613
621,661.2583191486524
622,661.5361296771599
623,661.8311943133398
624,662.1443680793665
625,662.4758372459239
626,662.8249747933619
627,663.1901463425794
628,663.5685166598762
629,663.9559238061183
630,664.3468905879929
631,664.7348212216104
632,665.1123801251114
633,665.471994566305
634,665.8064008093276
635,666.1091696090112
636,666.3751691012756
637,666.6009265369648
638,666.7848457817832
639,666.927247625055
640,667.0302279668784
641,667.0973603300636
642,667.1332910981583
643,667.1432869284878
644,667.1327959908842
645,667.1070756597169
646,667.0709188678708
647,667.0284872633343
648,666.9832371725348
649,666.9379037475036
650,666.8944959732672
651,666.8542626269183
652,666.8176156222692
653,666.784026368551
654,666.7519303382345
655,666.7186833819028
656,666.6806116515081
657,666.6331860204264
658,666.5713356461403
659,666.4898967452642
660,666.3841669384952
661,666.2505011755037
662,666.086856190119
663,665.8931843668221
664,665.671600964111
665,665.4262928971348
666,665.1631814904375
667,664.8893767517209
668,664.6124749663622
669,664.3397776677406
670,664.0775441663408
671,663.8303987702317
672,663.6009798963456
673,663.3898626056202
674,663.1957419812809
675,663.0158415614659
676,662.8464914239547
677,662.6837891187806
678,662.524224374934
679,662.3651420470261
680,662.2049514104424
681,662.0430564460299
682,661.8795568525104
683,661.7148212190029
684,661.5490476633713
685,661.381917109282
686,661.2124238010332
687,661.0389312173091
688,660.8594465619867
689,660.6720494643777
690,660.4753686436255
691,660.2689824150685
692,660.0536321789284
693,659.8311874636493
694,659.6043728262825
695,659.3763277499746
696,659.150093895194
697,658.9281121156168
698,658.7117894616006
699,658.5011844039478
700,658.2948575265696
701,658.089934102539
702,657.8824121675066
703,657.6677139376187
704,657.441419540747
705,657.2000639712634
706,656.9418560435773
707,656.6672027670945
708,656.3789680537817
709,656.0824292492409
710,655.7849170974916
711,655.4951578059147
712,655.2223908317969
713,654.9753901087053
714,654.7615339319708
715,654.5860402067997
716,654.4514365241765
717,654.3573014211835
718,654.3003003288671
719,654.2745283342939
720,654.2721421345242
721,654.2842133059929
722,654.3016844990933
723,654.316288752457
724,654.3213128591947
725,654.3121345760246
726,654.2865130289599
727,654.2446406554164
728,654.1889712265126
729,654.1238394021996
730,654.0549033159161
731,653.9884740713079
732,653.9308226539924
733,653.8875538134525
734,653.8631128803806
735,653.8604669168975
736,653.8809815535168
737,653.9244887044256
738,653.9895090968835
739,654.0735714939497
740,654.1735648972113
741,654.2860682525553
742,654.4076212051139
743,654.5349259894996
744,654.6649956230534
745,654.7952736085699
746,654.9237383097803
747,655.0489813197877
748,655.1702346670087
749,655.2873283417665
750,655.400579223853
751,655.5106273359125
752,655.6182362764707
753,655.7240687567057
754,655.8284489381865
755,655.9311337602089
756,656.0311243610065
757,656.1265456169042
758,656.2146107266929
759,656.2916808285196
760,656.3534291598734
761,656.3951121811308
762,656.4119275933443
763,656.3994141040157
764,656.3538388758797
765,656.2725291092131
766,656.1541248720245
767,655.9987455400733
768,655.8080571224815
769,655.5852098012942
770,655.3346150825977
771,655.06156703232
772,654.7717630456093
773,654.4708128235326
774,654.1638208423217
775,653.85509282247
776,653.5479737607028
777,653.2447990653988
778,652.946939260868
779,652.6549295961536
780,652.3686798033103
781,652.0877481843373
782,651.8116438264274
783,651.5401012812546
784,651.2732628971697
785,651.0117152655472
786,650.7563629003765
787,650.5081741572175
788,650.2678796349795
789,650.0357215281932
790,649.8113350687057
791,649.5937985373379
792,649.3818362674052
793,649.1741155828732
794,648.9695490130249
795,648.7675046097302
796,648.5678542866485
797,648.3708547532964
798,648.1769319333205
799,647.9864898239186
800,647.7998642302452
801,647.6174884105561
802,647.4402473580101
803,647.269900582036
804,647.1093892195785
805,646.9628471237046
806,646.8352176187792
807,646.7315107175888
808,646.6558642940196
809,646.6106420526332
810,646.5957882145718
811,646.6085827835178
812,646.6438397988238
813,646.6944922224299
814,646.7524288525519
815,646.8094074527971
816,646.857873046726
817,646.891554580759
818,646.9057809485804
819,646.8975302821225
820,646.8652823364677
821,646.8087636309439
822,646.7286595876391
823,646.6263368970625
824,646.503591921861
825,646.3624272668299
826,646.2048618687758
827,646.0327950529118
828,645.8479585215384
829,645.6519856879299
830,645.4465960456665
831,645.2338430076904
832,645.0163333046221
833,644.797320358999
834,644.580610462065
835,644.3702811742471
836,644.1702649057299
837,643.9838793954266
838,643.8133952400251
839,643.6597239387893
840,643.52228321129
841,643.3990523849889
842,643.2867884709794
843,643.1813508364633
844,643.0780808665581
845,642.9721932206878
846,642.8591484486642
847,642.7349894162726
848,642.5966347280004
849,642.4421301071166
850,642.2708614144605
851,642.0837229275693
852,641.883209253949
853,641.6733797756485
854,641.4596568480825
855,641.2484544344586
856,641.0466578112317
857,640.8609799239655
858,640.6972352281095
859,640.5596111218271
860,640.4500519940722
861,640.3678702195211
862,640.3096645412973
863,640.2695803268516
864,640.239898188772
865,640.2118858204896
866,640.1767982632891
867,640.1268815311726
868,640.0562376981801
869,639.9614451560767
870,639.8418803270431
871,639.6997350970179
872,639.5397532004807
873,639.3687203451483
874,639.1947493012209
875,639.0264144199855
876,638.8718136394584
877,638.737660823374
878,638.6285215190823
879,638.546292941036
880,638.489998686537
881,638.4559269090596
882,638.4380892776016
883,638.4289250082886
884,638.42013930661
885,638.4035606307098
886,638.3719180252517
887,638.319466936329
888,638.2424247523733
889,638.1392069193909
890,638.0104689350472
891,637.8589604513646
892,637.6892007836685
893,637.5070011306906
894,637.3188814622321
895,637.1314449719547
896,636.9507761831869
897,636.7819280963843
898,636.6285601906785
899,636.4927717363146
900,636.3751407204561
901,636.2749417076188
902,636.1904913743341
903,636.1195605776871
904,636.059789269714
905,636.009040646415
906,635.96564104246
907,635.9284853743341
908,635.897038713376
909,635.8712990523811
910,635.8517753276778
911,635.8394877403244
912,635.8359499683891
913,635.8430741648915
914,635.8629613482019
915,635.8975949090301
916,635.9485140562098
917,636.0165682260017
