acceleration,velocity,displacement
0.013854138854392345,0.0,0.0
0.008226676562171008,1.1040407708281677e-05,5.5202038541408384e-09
0.0027024522558225816,1.6504972117278473e-05,1.9292893766920917e-08
-0.002623138567106685,1.654462896163642e-05,3.581769430637837e-08
-0.007669524252741613,1.1398297551712272e-05,4.9789157563052715e-08
-0.012376451465723717,1.3753096924796072e-06,5.6175961185148654e-08
-0.01670762219866183,-1.3166727139713166e-05,5.028025246153187e-08
-0.020652251046880784,-3.1846663762484477e-05,2.7773557010433053e-08
-0.024224401365604466,-5.42849899687271e-05,-1.529226985517274e-08
-0.027460029895290065,-8.012720559917436e-05,-8.249836763912348e-08
-0.03041180019366415,-0.00010906312064365148,-1.7709353076053638e-07
-0.03314200991827368,-0.0001408400256996204,-3.020451039321723e-07
-0.03571438710585543,-0.00017526822421168493,-4.60099228887825e-07
-0.03818587418264535,-0.00021221835485593532,-6.538425184216352e-07
-0.040599687139385436,-0.00025161113551695074,-8.857572636080782e-07
-0.042980838226436814,-0.00029340139819986186,-1.1582635304664846e-06
-0.04533492629950046,-0.0003375592804628305,-1.4737438697978307e-06
-0.04765042433261483,-0.00038405195577888816,-1.83454948791869e-06
-0.04990408207173272,-0.0004328292089810619,-2.2429900702986652e-06
-0.05206848166088767,-0.00048381549084737215,-2.7013124202128823e-06
-0.054120260730139834,-0.0005369098620428859,-3.211675096658011e-06
-0.05604717351402336,-0.0005919935791649675,-3.7761268172619377e-06
-0.057852205289586504,-0.0006489432685667724,-4.3965952411278075e-06
-0.05955353001555626,-0.0007076461362193438,-5.074889943520866e-06
-0.06118009973377019,-0.000768012951094007,-5.812719487177541e-06
-0.0627637283470777,-0.000829984865134431,-6.61171839529176e-06
-0.06432937098968326,-0.0008935314148028115,-7.473476535260381e-06
-0.06588579672733867,-0.0009586389986613224,-8.399561741992447e-06
-0.06741891098617353,-0.0010252913525180785,-9.391526917582148e-06
-0.06888945027433757,-0.001093445533148334,-1.0450895360415355e-05
-0.07023572154974138,-0.0011630081190603736,-1.1579122186519709e-05
-0.07138088954030201,-0.0012338164246053953,-1.2777534458352593e-05
-0.07224342783713544,-0.001305628583294114,-1.4047256962302347e-05
-0.07274890820604661,-0.001378124751315705,-1.5389133629607255e-05
-0.07284125319394902,-0.0014509198320157028,-1.680365592127296e-05
-0.07249174293407451,-0.0015235863300797146,-1.829090900232067e-05
-0.07170434424214163,-0.0015956843736678226,-1.985054435419444e-05
-0.07051641752128525,-0.001666794754549536,-2.1481783918303118e-05
-0.06899462288285269,-0.001736550274751605,-2.3183456432953687e-05
-0.06722668063682195,-0.0018046609265114425,-2.495406203358521e-05
-0.06531026600669622,-0.0018709293998332016,-2.6791857196757533e-05
-0.0633407003234062,-0.0019352548829982528,-2.8694949338173262e-05
-0.06139932591471867,-0.0019976248961173153,-3.066138922773104e-05
-0.05954443055433838,-0.0020580967743518436,-3.2689250062965626e-05
-0.05780613430194973,-0.0021167720567799877,-3.477668447853154e-05
-0.05618580607960855,-0.0021737680269707667,-3.6921954520406916e-05
-0.054659655895973595,-0.0022291907579585577,-3.912343391287158e-05
-0.05318548256200531,-0.0022831133271875473,-4.137958595544463e-05
-0.05171126496363704,-0.0023355617009503684,-4.368892346951359e-05
-0.050184251284805866,-0.0023865094590745897,-4.604995904952607e-05
-0.04855926089020268,-0.002435881215162094,-4.8461154386644415e-05
-0.04680509812790386,-0.002483563394671147,-5.0920876691561036e-05
-0.044908426446559215,-0.0025294201569583787,-5.34273684673758e-05
-0.04287505267190636,-0.0025733118965176115,-5.5978734494113796e-05
-0.04072893933758209,-0.0026151138925223556,-5.857294738863378e-05
-0.03850919441031842,-0.002654732959396306,-6.120787081459311e-05
-0.03626506317267117,-0.0026921200881878005,-6.388129733838516e-05
-0.03404905404501096,-0.0027272771467966414,-6.659099595587738e-05
-0.031908898945566866,-0.0027602561232919305,-6.933476259092167e-05
-0.02987965436756962,-0.002791150399948499,-7.211046585254188e-05
-0.027977388199335443,-0.0028200789212319516,-7.491608051313212e-05
-0.026195543272109517,-0.002847165386967674,-7.774970266723193e-05
-0.024504553243141478,-0.0028725154352252998,-8.060954307832842e-05
-0.02285479853080558,-0.0028961951111122733,-8.34938983514972e-05
-0.02118248676027645,-0.002918213753757814,-8.640110278393225e-05
-0.0194175560256535,-0.0029385137751507793,-8.932946654838654e-05
-0.017492436643999566,-0.002956968771485606,-9.227720782170473e-05
-0.01535058079988716,-0.0029733902802075492,-9.524238734755131e-05
-0.01295391082220707,-0.0029875425260185965,-9.822285375066439e-05
-0.010288532723353016,-0.0029991637477913766,-0.00010121620688756937
-0.007368259823339478,-0.003007992144064723,-0.00010421978483349743
-0.004235814399025358,-0.003013794181175905,-0.00010723067799611775
-0.0009618853096789761,-0.0030163930310302574,-0.00011024577160222082
0.002357701306319194,-0.003015695123031937,-0.00011326181567925192
0.005606591522472997,-0.003011712976617541,-0.00011627551972907666
0.008654439562621843,-0.0030045824610749933,-0.00011928366744792293
0.01136564913470126,-0.002994572416726332,-0.0001222832448868236
0.013610251750911266,-0.0029820844662835255,-0.0001252715733283285
0.01527597796914386,-0.002967641351423498,-0.00012824643623718203
0.016279766843928786,-0.002951863479016962,-0.00013120618865240227
0.016576842627239796,-0.0029354351742813777,-0.00013414983797905143
0.016166001545089136,-0.002919063752195213,-0.00013707708744228973
0.015090352153400198,-0.0029034355753459686,-0.0001399883371060603
0.013433150820983343,-0.002889173823858777,-0.00014288464180566268
0.01130878512025727,-0.0028768028558881567,-0.00014576763014553614
0.00884967934802206,-0.002866723623654017,-0.0001486393933853072
0.00619079198740729,-0.0028592033879863026,-0.00015150235689112736
0.0034539539166589554,-0.0028543810150342694,-0.00015435914909263764
0.0007342843196838858,-0.002852286895916098,-0.00015721248304811282
-0.0019095307399893057,-0.0028528745191262507,-0.000160065063755634
-0.00445996013677084,-0.002856059264564631,-0.00016291953064747944
-0.006939915896410455,-0.0028617592025812215,-0.00016577843988105237
-0.009406840400349654,-0.0028699325807296015,-0.0001686442857727078
-0.011942458917106238,-0.0028806072303883294,-0.00017151955567826677
-0.014639724568643,-0.002893898322131204,-0.00017440680845452655
-0.017589006194136142,-0.0029100126875125933,-0.00017730876395934844
-0.020865586565772073,-0.0029292399838925474,-0.000180228390295051
-0.02451999406797461,-0.002951932774209421,-0.000183168976674102
-0.028571997044636827,-0.0029784787697657265,-0.00018613418244608956
-0.03300856322519668,-0.0030092690499006433,-0.00018912805635592275
-0.0377856687279142,-0.003044666165877199,-0.00019215502396381165
-0.042833470583216744,-0.0030849757355327643,-0.00019521984491451664
-0.04806410036745984,-0.0031304245210081027,-0.00019832754504278707
-0.053381140285004056,-0.0031811471413343345,-0.0002014833308739583
-0.058689604631573,-0.003237182513792623,-0.00020469249570152177
-0.06390505629071637,-0.0032984798442537676,-0.00020796032688054497
-0.06896051804593609,-0.0033649126314220937,-0.0002112920231183829
-0.07381020382747391,-0.003436297992358799,-0.00021469262843027337
-0.0784297946907433,-0.0035124179916179075,-0.00021816698642226171
-0.08281378682132677,-0.0035930397823739427,-0.00022171971530925765
-0.08697096428876913,-0.0036779321579289907,-0.00022535520127940913
-0.0909191083754087,-0.0037668771942610795,-0.00022907760595550417
-0.09467976295278675,-0.0038596766299251774,-0.0002328908828675973
-0.09827352395760047,-0.003956153273380371,-0.0002367987978192501
-0.1017161995266375,-0.0040561481351224895,-0.00024080494852350153
-0.1050163023837443,-0.004159514386077681,-0.0002449127797841016
-0.10817438482276455,-0.004266109729680935,-0.0002491255918419809
-0.11118448634207108,-0.004375789165263353,-0.00025344654128945304
-0.11403750174150952,-0.004488400159305144,-0.0002578786359517373
-0.11672579068180688,-0.004603781805516802,-0.00026242472693414827
-0.11924802628019752,-0.004721768713997804,-0.0002670875021939056
-0.1216132182049884,-0.004842199336240397,-0.00027186948621902473
-0.12384299303813977,-0.004964927441861961,-0.0002767730496080759
-0.12597146982441546,-0.0050898346732932385,-0.0002818004306656535
-0.1280424301014102,-0.005216841623256151,-0.0002869537688139282
-0.13010401725004747,-0.00534591484693188,-0.0002922351470490222
-0.13220186449667584,-0.005477067787805242,-0.00029764663836639077
-0.1343721083761204,-0.00561035477424164,-0.0003031903496474142
-0.13663590304431555,-0.005745858779951858,-0.00030886845642451094
-0.13899665525508334,-0.0058836750591015575,-0.00031468322334403766
-0.14144037170676177,-0.00602389357258248,-0.0003206370076598797
-0.14393862157707446,-0.006166583069224399,-0.00032673224598078315
-0.1464530324369091,-0.00631177889623139,-0.00033297142696351104
-0.14894010881776912,-0.006459475466858729,-0.0003393570541450561
-0.15135546213118095,-0.006609623252333204,-0.00034589160350465204
-0.1536571087759379,-0.0067621295377867634,-0.000352577479899712
-0.155807992853954,-0.0069168620886017095,-0.00035941697571290624
-0.15777795990776425,-0.007073655064982569,-0.00036641223428969836
-0.1595450537191627,-0.007232316571796032,-0.00037356522010808765
-0.1610956839051261,-0.007392636940608177,-0.00038087769686428975
-0.16242335794109367,-0.007554396461531287,-0.00038835121356535946
-0.16352626792852312,-0.0077173712744660955,-0.00039598709743335814
-0.1644046563380037,-0.007881336736599359,-0.0004037864514388909
-0.16505913473556555,-0.008046068632136144,-0.00041175015412325865
-0.16549082286431133,-0.008211343610936082,-0.00041987886024479477
-0.16570338271398813,-0.008376940713725233,-0.00042817300240712545
-0.1657060363471514,-0.008542645423255803,-0.000436632795475616
-0.16551599967669922,-0.008708256441267728,-0.00044525824640787774
-0.16515888539677684,-0.008873593883804466,-0.00045404917157041384
-0.16466644650949455,-0.009038506549757602,-0.0004630052217871949
-0.16407200470011116,-0.009202875775362405,-0.0004721259129497549
-0.1634045722337408,-0.009366614063829331,-0.0004814106578693508
-0.16268292518124247,-0.009529657812536823,-0.0004908587938075339
-0.1619107909639006,-0.009691954670609395,-0.000500469600049107
-0.16107397727525524,-0.009853447054728973,-0.0005102423009117761
-0.16013989043350227,-0.01001405398858335,-0.0005201760514334323
-0.15905968049864416,-0.010173653774049425,-0.0005302699053147487
-0.15777317329445006,-0.010332070200945972,-0.0005405227673022465
-0.15621653371404987,-0.010489065054450223,-0.0005509333349299445
-0.1543320562360768,-0.010644339349425287,-0.0005615000371318822
-0.15207872313014875,-0.010797544739108399,-0.000572220979176149
-0.14944160253352634,-0.010948304901940237,-0.0005830939039966733
-0.14643810237111132,-0.011096244754392555,-0.0005941161788248397
-0.1431195676973856,-0.011241023589426804,-0.0006052848129967493
-0.1395676106380558,-0.011382367178594524,-0.00061659650838076
-0.135885832708842,-0.011520093900267973,-0.0006280477389201913
-0.13218892531227971,-0.011654131279278534,-0.0006396348515099646
-0.12859184368603166,-0.01178452166377769,-0.0006513541779814926
-0.12520132724350566,-0.011911418249242458,-0.0006632021479380028
-0.12211065338476138,-0.012035074239556591,-0.0006751753941824023
-0.11939694735697984,-0.012155828039927461,-0.0006872708453221443
-0.11711950578051268,-0.012274086266496207,-0.0006994858024753561
-0.11531783636264717,-0.012390304937567787,-0.0007118179980773881
-0.11400916498916024,-0.012504968438243691,-0.0007242656347652938
-0.11318622295797177,-0.012618566132217257,-0.0007368274020505243
-0.11281646126152219,-0.012731567474327004,-0.0007495024688537964
-0.11284326441344332,-0.012844397337164486,-0.0007622904512595421
-0.1131887754698235,-0.01295741335710612,-0.0007751913566066774
-0.11375738271582085,-0.013070886436198942,-0.0007882055065033299
-0.11443914180453402,-0.013184984698459119,-0.0008013334420706589
-0.11511316115045211,-0.013299760849936611,-0.0008145758148448568
-0.11565166529061599,-0.013415143263157146,-0.0008279332669014037
-0.11592558969256958,-0.013530931890648738,-0.0008414063044783067
-0.11581210221539516,-0.01364680073660272,-0.0008549951707919324
-0.11520374218582384,-0.01376230865880333,-0.0008686997254896354
-0.11401830485149553,-0.01387691968232199,-0.0008825193396601981
-0.11220828219038667,-0.013990032975842932,-0.0008964528159892805
-0.10976848700824804,-0.014101021360442249,-0.0009104983431574231
-0.10674039723956091,-0.014209275802566153,-0.0009246534917389272
-0.10321189305437053,-0.014314251947713118,-0.0009389152556140669
-0.09931152740769562,-0.014415513657944152,-0.0009532801384168956
-0.09519726556988839,-0.014512768054432943,-0.0009677442792730841
-0.09104071909799073,-0.014605887046766883,-0.000982303606823684
-0.08700906112347233,-0.014694911936877615,-0.0009969540063155063
-0.08324748415102018,-0.014780040209514862,-0.0010116914823887024
-0.07986484123770693,-0.014861596372209225,-0.0010265123006795644
-0.07692420978631612,-0.014939990897721236,-0.0010414130943145296
-0.07443898999228485,-0.015015672497610537,-0.0010563909260121955
-0.0723740292255318,-0.015089079007219446,-0.0010714433017646105
-0.0706503916770809,-0.015160591217670752,-0.0010865681368770557
-0.06915219837732059,-0.015230492512697954,-0.00110176367874224
-0.06773459122448344,-0.015298935907498855,-0.0011170283929523386
-0.06623282414824172,-0.015365919615185217,-0.0011323608207136806
-0.06447300406145591,-0.015431272529290066,-0.0011477594167859182
-0.06228477732872419,-0.015494651419985156,-0.001163222378760556
-0.05951554133205122,-0.015555551579315544,-0.0011787474802602063
-0.056044980249857664,-0.0156133318401065,-0.0011943319219699174
-0.05179819293622694,-0.015667253426699543,-0.0012099722146033205
-0.04675557079053538,-0.015716530308562925,-0.0012256641064709516
-0.04095784983200067,-0.01576038701887419,-0.0012414025651346701
-0.034505221566462387,-0.015798118554573422,-0.001257181817921394
-0.027550029316226018,-0.015829146180014766,-0.0012729954502886881
-0.02028353499546775,-0.01585306296217061,-0.0012888365548597808
-0.012918358117218743,-0.015869663908726954,-0.0013046979182952296
-0.005668954044636067,-0.01587895756480788,-0.001320572229031997
0.00126736921198472,-0.015881158357224204,-0.001336452286993013
0.007726677301770316,-0.015876661333967326,-0.0013523311968386088
0.013590128975936273,-0.015866002930828474,-0.0013682025289710068
0.018790149533361125,-0.015849812791573825,-0.0013840604368322079
0.023310927640382274,-0.015828762252986954,-0.0013998997243544883
0.02718391785332534,-0.0158035148302401,-0.001415715862896102
0.030479571688358593,-0.015774683085469258,-0.0014315049618539566
0.033296836880403004,-0.015742794881184876,-0.0014472637008372837
0.035752081906681527,-0.015708270421791334,-0.0014629892334887718
0.03796896889946578,-0.01567140989638826,-0.0014786790736478616
0.04007040656388911,-0.01563239020865658,-0.001494330973700384
0.04217309516402513,-0.015591268457792623,-0.0015099428030336086
0.04438440585099632,-0.015547989707285112,-0.0015255124321161475
0.04680066888371887,-0.015502397169917755,-0.001541037625554749
0.04950567232087384,-0.015454243999315458,-0.0015565159461393655
0.052568300380591786,-0.015403207012964725,-0.0015719446716455055
0.05603861042097425,-0.015348903557563942,-0.0015873207269307698
0.05994227644137744,-0.015290913114132765,-0.0016026406352666182
0.06427419570243623,-0.015228804878060859,-0.001617900494262715
0.06899283095786495,-0.015162171364730708,-0.0016330959823841107
0.07401724756932121,-0.015090666325467114,-0.0016482224012292095
0.07922879044925915,-0.015014043306457824,-0.001663274756045172
0.08447884034626997,-0.01493218949106006,-0.0016782478724439308
0.08960282458155612,-0.014845148658596145,-0.001693136541518759
0.09443877440210166,-0.014753127859104317,-0.001707935679777609
0.09884705455116229,-0.014656484944627684,-0.001722640486179475
0.10272732261021772,-0.014555697756046993,-0.0017372465775298124
0.10602951868671258,-0.014451319335398529,-0.0017517500860755352
0.10875730810783611,-0.014343925922001255,-0.001766147708704235
0.11096421344636152,-0.014234065161224156,-0.0017804367042458479
0.11274407358208612,-0.014122211017709932,-0.001794614842335315
0.1142182038249128,-0.014008729879006433,-0.001808680312783673
0.11552174005012456,-0.013893859907068914,-0.0018226316076767107
0.11679116752363115,-0.013777703453282037,-0.0018364673893568862
0.11815406969401734,-0.013660230834673213,-0.0018501863565008637
0.11972115522653,-0.01354129322221294,-0.0018637871185293068
0.12158021387037617,-0.013420642537664488,-0.0018772680864092455
0.12379187243915772,-0.013297956494509721,-0.0018906273859253327
0.12638737876518755,-0.013172866868907548,-0.0019038627976070413
0.12936868432863613,-0.013044988837360636,-0.0019169717254601754
0.1327107709163556,-0.01291394910973814,-0.0019299511944337248
0.13636575342240143,-0.012779410847568761,-0.0019427978744123782
0.1402681488186819,-0.01264109389644822,-0.0019555081267843867
0.1443408408671565,-0.0124987894016053,-0.0019680780684334133
0.148501323454886,-0.012352368319444279,-0.0019805036472939383
0.15266762951837537,-0.012201783842957649,-0.0019927807233751393
0.15676326237158797,-0.012047068397012667,-0.0020049051494951246
0.1607207064149387,-0.011888326412619403,-0.0020168728468999407
0.16448357029523827,-0.011725724274264314,-0.0020286798722433824
0.16800775464205273,-0.01155947861179567,-0.0020403224736864124
0.17126199934786585,-0.01138984373480071,-0.0020517971348597104
0.17422785057250006,-0.011217098809840526,-0.002063100606132031
0.17689885254897145,-0.01104153545827979,-0.002074229923266091
0.17927888175874823,-0.010863446591125932,-0.002085182414290794
0.18137991628262884,-0.010683117192105244,-0.0020959556961824095
0.1832198010584014,-0.010500817333434729,-0.0021065476634451793
0.1848204707145497,-0.010316797197548253,-0.0021169564707106707
0.18620677613434367,-0.010131283574123805,-0.0021271805110965065
0.18740583548221432,-0.009944477268315526,-0.002137218391517726
0.1884467578827813,-0.009756550971633028,-0.0021470689056377
0.1893605364969708,-0.009567647324443153,-0.002156731004785738
0.19017979178393296,-0.009377877160302701,-0.002166203767028111
0.19093789519100246,-0.009187318316815234,-0.00217548636476667
0.19166697903307026,-0.008996015879703197,-0.002184578031864929
0.19239468475105284,-0.008803985047811136,-0.002193478032328686
0.19314027365113887,-0.00861121756861004,-0.0022021856336368966
0.19391152124915997,-0.008417691671159891,-0.0022107000882567816
0.19470397813061896,-0.008223383921470002,-0.0022190206260530965
0.19550338561521907,-0.008028280239597082,-0.00222714645813363
0.1962906675155267,-0.007832383213031709,-0.0022350767898599447
0.19704775355923898,-0.007635714002494326,-0.0022428108384677076
0.1977620787735844,-0.007438309086327914,-0.0022503478500121186
0.19842806909234637,-0.007240214012394949,-0.00225768711156148
0.19904511915116624,-0.007041477418273192,-0.0022648279572768143
0.19961310929999165,-0.006842148304047613,-0.0022717697701379745
0.20012771180015976,-0.006642277893497537,-0.0022785119832367472
0.20057788980388852,-0.006441925092695512,-0.0022850540847298437
0.20094695065133156,-0.006241162672467902,-0.0022913956286124255
0.20121691629695632,-0.006040080738993758,-0.002297536250318156
0.20137463212340004,-0.00583878496478358,-0.002303475683170045
0.20141731593119241,-0.0056373889907562836,-0.002309213770147815
0.20135530323535095,-0.005436002681173012,-0.0023147504659837797
0.20121078054453626,-0.005234719639283068,-0.0023200858271440077
0.20101304231057346,-0.005033607727855513,-0.002325219990827577
0.20079224660210138,-0.004832705083399175,-0.0023301531472332045
0.20057389614373716,-0.004632022012026256,-0.002334885510780917
0.20037542537575462,-0.004431547351266511,-0.0023394172954625636
0.20020513737050125,-0.004231257069893383,-0.0023437486976731437
