frame_number,force
0,546.667050000029
1,546.5406261895915
2,546.4150101323887
3,546.2907786405714
4,546.1681099094917
5,546.0467246729045
6,545.925947694736
7,545.8048607465767
8,545.6824904830894
9,545.5579729013308
10,545.4306565509474
11,545.300137196757
12,545.1662500198227
13,545.0290723069955
14,544.8889890857544
15,544.7468339006781
16,544.6040574291599
17,544.4628380358548
18,544.3260547034148
19,544.1970857434583
20,544.0794498345919
21,543.9763493972919
22,543.8902044381663
23,543.8222757526946
24,543.7724642915817
25,543.7393327275038
26,543.7203317890935
27,543.7121568906615
28,543.7111437162363
29,543.7136369827829
30,543.7163062986084
31,543.7164113815085
32,543.712026821355
33,543.702223254555
34,543.6871752446464
35,543.6681468695152
36,543.6473147905142
37,543.627427568253
38,543.6113501700245
39,543.6015801927616
40,543.5998349104601
41,543.606794875536
42,543.6220524904994
43,543.6442603691982
44,543.6714252697616
45,543.701271178454
46,543.731601419057
47,543.7606062589853
48,543.7870741624638
49,543.8104721257923
50,543.8308717049794
51,543.8487191543471
52,543.8644814723065
53,543.8782348543124
54,543.8892826352743
55,543.8958917762151
56,543.8952238282214
57,543.883503192801
58,543.856408838264
59,543.8096181601558
60,543.7394061244846
61,543.6432068836674
62,543.5200498880467
63,543.3707884332019
64,543.1980755782658
65,543.0061121444176
66,542.8002530242055
67,542.5865751103408
68,542.3714842469653
69,542.1613934478664
70,541.9624594437687
71,541.7803319068622
72,541.6198666342092
73,541.484793562157
74,541.3773965765434
75,541.2983081286062
76,541.2465066436682
77,541.2195334461366
78,541.2138671091136
79,541.2253511521517
80,541.2495729182186
81,541.2821252853513
82,541.3187382144419
83,541.3553254234653
84,541.3880235123804
85,541.4132881112846
86,541.4280616475263
87,541.4299713397256
88,541.4174912300965
89,541.3900215574548
90,541.3478790951974
91,541.292220205073
92,541.2249227599787
93,541.1484418605723
94,541.0656389503112
95,540.979575538598
96,540.8932687044655
97,540.8094211322025
98,540.7301518148575
99,540.656760908844
100,540.5895678711131
101,540.5278663944551
102,540.4700354162528
103,540.4138252532638
104,540.3568018784055
105,540.2968880428666
106,540.2329002579253
107,540.1649638070057
108,540.0947075735978
109,540.0251881388233
110,539.9605452985095
111,539.9054384609267
112,539.8643536597194
113,539.8408909847257
114,539.8371368543824
115,539.8532160088674
116,539.8871149344259
117,539.9348460530579
118,539.9909603508552
119,540.049335650465
120,540.1041045021726
121,540.1505574316145
122,540.1858629206206
123,540.2094796565522
124,540.2231938766078
125,540.2307814742312
126,540.2373506298569
127,540.2484588871833
128,540.2691311307333
129,540.3029386448546
130,540.3513140896316
131,540.4132427477498
132,540.4853844791946
133,540.5625785823795
134,540.6386087244041
135,540.7070765128798
136,540.7622398499614
137,540.7996991897693
138,540.8168581984567
139,540.8131422283698
140,540.7900053875528
141,540.7507718165062
142,540.7003483154915
143,540.6448391467137
144,540.5910933814248
145,540.546207474484
146,540.5169921868244
147,540.5094091927866
148,540.5279940561846
149,540.5753004481696
150,540.6514200508747
151,540.7536529140524
152,540.8764150963203
153,541.0114564769958
154,541.148413624368
155,541.2756545690087
156,541.3813112874119
157,541.4543640664657
158,541.485644394399
159,541.4686457617086
160,541.4000610120278
161,541.2800020721822
162,541.111904540295
163,540.9021621988738
164,540.6595599726927
165,540.3945744328728
166,540.1185945249182
167,539.8430992116141
168,539.5788346854883
169,539.3350616756202
170,539.1189650324666
171,538.9353049717039
172,538.7863407251575
173,538.6719974286016
174,538.5902055373193
175,538.5373340879532
176,538.5086604189937
177,538.4988512283869
178,538.50244953063
179,538.5143558043194
180,538.5302690770721
181,538.5470381464338
182,538.5628778771159
183,538.5774234835428
184,538.5916133379573
185,538.6074094874842
186,538.6273955944799
187,538.6543239406117
188,538.6906860067254
189,538.7383505484402
190,538.7982837965284
191,538.8703653220591
192,538.9533279163334
193,539.0448519427348
194,539.1418218141176
195,539.2407164218308
196,539.3380776246389
197,539.4309902959577
198,539.517506396172
199,539.5969470867809
200,539.6700257503811
201,539.7387572817319
202,539.806152596767
203,539.875736596499
204,539.9509705341248
205,540.0346957966224
206,540.1287228693382
207,540.2336528269562
208,540.3489511872936
209,540.4732216224319
210,540.6045745062329
211,540.7409715908502
212,540.8804592495542
213,541.0212633825654
214,541.1617786121296
215,541.3005154444069
216,541.43606417677
217,541.5671064830925
218,541.6924728279162
219,541.8112159638789
220,541.9226548216487
221,542.0263522648451
222,542.1220303108595
223,542.2094770316188
224,542.2885233588739
225,542.3591436563822
226,542.4216728815007
227,542.4770674111725
228,542.5270947200145
229,542.5743363024152
230,542.621935075962
231,542.6731014683933
232,542.7304775493151
233,542.7955083906778
234,542.8679705347956
235,542.9457696660589
236,543.0250589213672
237,543.1006591450305
238,543.1666968393375
239,543.2173304723469
240,543.2474291285725
241,543.253105693871
242,543.2320679338159
243,543.1837988593508
244,543.1095938507431
245,543.0124741413649
246,542.8969839814555
247,542.7688724458584
248,542.6346600395761
249,542.5011019421595
250,542.3745942805543
251,542.2606120650751
252,542.1632794240135
253,542.0851360578645
254,542.0271032814769
255,541.9886115234955
256,541.9678451206496
257,541.9620690069628
258,541.968001723283
259,541.982191806037
260,542.0013560881144
261,542.0226539468431
262,542.043890953619
263,542.063659304951
264,542.0814319406344
265,542.0976330107984
266,542.1136972568639
267,542.1320932951766
268,542.1562399774664
269,542.1902385226252
270,542.2383981342176
271,542.3046135247521
272,542.3917070878683
273,542.5008603274388
274,542.6312422714343
275,542.7799064573529
276,542.9419747391781
277,543.111069792047
278,543.2799224513991
279,543.4410733568309
280,543.5875950726947
281,543.7137615658138
282,543.8155883998996
283,543.8911787111141
284,543.9408457345385
285,543.9670274603859
286,543.9740416156784
287,543.9677389760787
288,543.9550991938513
289,543.9437831787706
290,543.9416301365696
291,543.9560898963164
292,543.9936134262068
293,544.0590613177567
294,544.1552099432311
295,544.2824355725995
296,544.4386418955224
297,544.6194683405698
298,544.8187760003744
299,545.0293543394923
300,545.2437359199919
301,545.4549777230487
302,545.6572903593758
303,545.8464600497135
304,546.0200727642743
305,546.177577002555
306,546.320205290955
307,546.4507468642121
308,546.5731623989809
309,546.6920609625413
310,546.8120981523425
311,546.937381335113
312,547.0709693937633
313,547.2145282012303
314,547.3681653388569
315,547.5304402237176
316,547.698530462109
317,547.8685161840069
318,548.0357227186679
319,548.1950660634861
320,548.34138760907
321,548.4698110354699
322,548.5761589796614
323,548.6574221395239
324,548.712213847879
325,548.7411091647039
326,548.7467733084246
327,548.7338216555725
328,548.7084108012792
329,548.6776212854893
330,548.6487351754636
331,548.6285236960704
332,548.622644611062
333,548.6352107961269
334,548.6685413322923
335,548.7230717965175
336,548.797400273844
337,548.888462020781
338,548.9918258939683
339,549.1020857212861
340,549.2133038732786
341,549.3194670785504
342,549.4149247661732
343,549.4947816278558
344,549.5552097019712
345,549.5936438439301
346,549.6088374579112
347,549.6007869314485
348,549.5705753834114
349,549.520210290249
350,549.4525086587627
351,549.3710278294927
352,549.2799912890353
353,549.1841523074884
354,549.0885740792038
355,548.9983501582221
356,548.9183088527839
357,548.8527334460965
358,548.8051006661466
359,548.7778115136886
360,548.7718871669919
361,548.7866450324449
362,548.8194326505746
363,548.8655300858337
364,548.9183105545162
365,548.969694136285
366,549.0108688231132
367,549.0331967935327
368,549.0291778752138
369,548.9933229328051
370,548.922809795447
371,548.8178478054691
372,548.6817400645168
373,548.5206731046202
374,548.343268424494
375,548.159919062
376,547.9819382828222
377,547.8205787370695
378,547.6860272486412
379,547.5865155603656
380,547.5276812976782
381,547.5122576237278
382,547.5400922288699
383,547.6084388307486
384,547.7124424428476
385,547.8457321865944
386,548.0010235868882
387,548.1706306422636
388,548.346821701026
389,548.5220184878372
390,548.6889032614512
391,548.8405355972981
392,548.9705709694906
393,549.0736151319068
394,549.1456653572845
395,549.1845291756638
396,549.1901048350153
397,549.1644457508497
398,549.1115836110359
399,549.0371301575872
400,548.9477106862606
401,548.850308189187
402,548.7516182676981
403,548.6575192059167
404,548.5727327323611
405,548.5006926232454
406,548.4435778743481
407,548.4024359124774
408,548.3773316782874
409,548.3674955416118
410,548.3714747847976
411,548.3872965637157
412,548.4126332532625
413,548.4449527432952
414,548.4816483007174
415,548.5201575296801
416,548.5580805267439
417,548.5932991823305
418,548.624094813573
419,548.6492571652899
420,548.668165251637
421,548.6808044009266
422,548.687682407201
423,548.6896318372986
424,548.6875254887284
425,548.681966663557
426,548.6730314324138
427,548.660135548428
428,548.6420759911964
429,548.6172533429793
430,548.584021575908
431,548.5410623574022
432,548.4876711441598
433,548.4238797138677
434,548.3504079261998
435,548.2685055607775
436,548.1797783866384
437,548.0860719369927
438,547.9894245796996
439,547.8920380640899
440,547.7961897191032
441,547.7040400893349
442,547.6173524392296
443,547.5371970200193
444,547.4637309402988
445,547.3961183513543
446,547.3326071552375
447,547.2707365451411
448,547.2076295163872
449,547.1403202891889
450,547.0660650920648
451,546.9825881981857
452,546.8882381695179
453,546.7820686303127
454,546.6638848268711
455,546.5342894274104
456,546.3947288125624
457,546.2475134586559
458,546.0957775168112
459,545.9433466240276
460,545.7944942994508
461,545.6535917948939
462,545.5246900523657
463,545.4110947546064
464,545.3149946543003
465,545.2371894449668
466,545.1769481596912
467,545.1320140752597
468,545.0987575299214
469,545.0724661056089
470,545.0477523323827
471,545.0190491470245
472,544.9811485369712
473,544.9297209625668
474,544.861744125272
475,544.775781571159
476,544.6720820860676
477,544.5525021217261
478,544.420271439308
479,544.279631760247
480,544.1353903225405
481,543.9924408277212
482,543.8553038966572
483,543.7277343377431
484,543.6124455235918
485,543.5110036440549
486,543.42392492257
487,543.3509627260131
488,543.291516315741
489,543.2450514225912
490,543.2114146519297
491,543.1909567668512
492,543.184439575143
493,543.1927611563384
494,543.2165760197076
495,543.2559029449847
496,543.3098021288445
497,543.3761716530507
498,543.4516824321174
499,543.5318653338315
500,543.6113795075844
501,543.6844870735372
502,543.7457091485602
503,543.7905636270871
504,543.816230411239
505,543.8219830671444
506,543.8092730677347
507,543.781441899912
508,543.7431357603617
509,543.6995648295594
510,543.6557592430312
511,543.6159379262356
512,543.5830550469179
513,543.5585466238695
514,543.5422765765551
515,543.5326729313068
516,543.5270381533805
517,543.5219993630121
518,543.5140310146927
519,543.4999529053576
520,543.4773116625464
521,543.444602499022
522,543.4013479289556
523,543.3480775139855
524,543.286234198549
525,543.218001450014
526,543.1460499197023
527,543.0732490853632
528,543.0024283347681
529,542.9362551731027
530,542.8772349023686
531,542.8277776327297
532,542.7902633612025
533,542.7670577106322
534,542.7604567285747
535,542.7725548016788
536,542.8050520207381
537,542.8590524707079
538,542.934922236287
539,543.032246300185
540,543.149864040124
541,543.2859195306673
542,543.4378635623384
543,543.6023859920329
544,543.7753164013996
545,543.9515740078824
546,544.1252455391357
547,544.289822599036
548,544.4385722705628
549,544.5649868276449
550,544.663267685318
551,544.7288144750314
552,544.7586867414435
553,544.751991452182
554,544.710141926454
555,544.6369335085406
556,544.5383842748797
557,544.4223054320512
558,544.2976109468589
559,544.1734439455781
560,544.0582566011549
561,543.958998203597
562,543.8805363840017
563,543.8253740059944
564,543.7936480035028
565,543.783329943873
566,543.7905234230229
567,543.8097868016603
568,543.8344739814801
569,543.8571308107707
570,543.8699845581687
571,543.8655275591866
572,543.8371464487844
573,543.7797117698041
574,543.6900390108802
575,543.5671557136138
576,543.4123386542834
577,543.2289150890277
578,543.0218615319634
579,542.7972727459431
580,542.5617850451464
581,542.3220152989147
582,542.0840494720422
583,541.8530121526502
584,541.6327648384272
585,541.4257807933694
586,541.2332066692238
587,541.0550649661758
588,540.8905196511266
589,540.7381439437116
590,540.5961737728621
591,540.4627579922023
592,540.3362069424862
593,540.2152157815008
594,540.0990277750224
595,539.9875092571469
596,539.8811164798122
597,539.7807403195816
598,539.6874344868688
599,539.6020759554453
600,539.525048145728
601,539.4560411399042
602,539.394022877272
603,539.3373794619365
604,539.2841820280869
605,539.2325220955049
606,539.1808579869406
607,539.1283160503705
608,539.0748869113107
609,539.0214620996351
610,538.9696854793197
611,538.9216412695124
612,538.8794432180457
613,538.8448119234823
614,538.8187290145138
615,538.8012400096197
616,538.7914428807662
617,538.787654902174
618,538.7877103871238
619,538.7893176106019
620,538.7904017495243
621,538.7893795615022
622,538.7853330418059
623,538.7780601349314
624,538.7679933216153
625,538.7560102749444
626,538.743202468987
627,538.7306784506172
628,538.7194411192631
629,538.7103269687024
630,538.7039769083827
631,538.7008246529095
632,538.7011040731666
633,538.7048743669135
634,538.7120563790209
635,538.7224764763001
636,538.7359186744657
637,538.7521829188411
638,538.7711406503238
639,538.7927757501552
640,538.8172030963631
641,538.8446649810326
642,538.875507344766
643,538.910124974095
644,538.948850557299
645,538.9917766676417
646,539.0385468758628
647,539.0881916571818
648,539.1390760084994
649,539.1889800209955
650,539.2352968413918
651,539.2753234729465
652,539.3066160487297
653,539.3273641947995
654,539.3367226476723
655,539.335043041993
656,539.323973745859
657,539.3064224698668
658,539.2863897196639
659,539.2686797516417
660,539.2584909957134
661,539.260896627057
662,539.2802565665636
663,539.3196417576665
664,539.3803731311469
665,539.4617664220696
666,539.5611374253325
667,539.6740730937554
668,539.7949212213521
669,539.9174115837732
670,540.035311765004
671,540.1430361599967
672,540.2361447960782
673,540.3116834857473
674,540.3683397732744
675,540.406420749568
676,540.4276829704635
677,540.435050607887
678,540.432253770459
679,540.4234219258066
680,540.4126829706119
681,540.4038305683431
682,540.4001098048343
683,540.4041338588543
684,540.4179038103892
685,540.4428822541779
686,540.4800780563695
687,540.5301246830953
688,540.5933537369572
689,540.6698631749766
690,540.7595662980841
691,540.8622037181948
692,540.9773143509962
693,541.1041828311819
694,541.2417908327229
695,541.3887890800071
696,541.543484033035
697,541.7038154373158
698,541.8673009619323
699,542.0309463908205
700,542.1911573514825
701,542.3437204182117
702,542.4839212498168
703,542.6068261369562
704,542.7076939240653
705,542.782444581188
706,542.828106715347
707,542.8431895737566
708,542.8279528370731
709,542.7845598239027
710,542.7170933129789
711,542.6314037469969
712,542.5347646152115
713,542.4353326384247
714,542.341445795268
715,542.2608346126115
716,542.1998589952963
717,542.1628959364865
718,542.1519860734835
719,542.1668087106578
720,542.2050041350095
721,542.2627978874929
722,542.335809248204
723,542.4198700413901
724,542.5116717045094
725,542.6091104528588
726,542.7112889812753
727,542.8182156377331
728,542.930292912471
729,543.0477125034879
730,543.1698867272432
731,543.2950413459877
732,543.420064272151
733,543.5406557743097
734,543.6517750363198
735,543.748331451396
736,543.8260242700159
737,543.8821924424353
738,543.9165088640543
739,543.9313575589249
740,543.9317807877565
741,543.9249670472334
742,543.9193428711944
743,543.9234072484543
744,543.9445005440523
745,543.9877284774085
746,544.0552547726787
747,544.1461155979272
748,544.2565899793825
749,544.3810132777497
750,544.5128058310996
751,544.6454571732125
752,544.7732637963942
753,544.8917263943728
754,544.9976187885638
755,545.0888115845034
756,545.1639635696149
757,545.2221981073336
758,545.2628760084787
759,545.2855547152004
760,545.290167091995
761,545.2773667969001
762,545.2489120177862
763,545.2079372905108
764,545.1590006435296
765,545.107861902842
766,545.0610121320403
767,545.0250153769955
768,545.005744410585
769,545.0076040513362
770,545.0328458116688
771,545.0810812657822
772,545.149090251577
773,545.2309920018959
774,545.3188036002458
775,545.4033482943004
776,545.4754002614948
777,545.5268879417137
778,545.5519570840605
779,545.5477223653936
780,545.5145930786407
781,545.4561287678068
782,545.3784581114435
783,545.2893678921704
784,545.1972232757049
785,545.1098986060904
786,545.0338699338902
787,544.9735643568888
788,544.9310109934482
789,544.9058051148287
790,544.8953650756894
791,544.8954249273079
792,544.9006803102648
793,544.9055041592803
794,544.90466262671
795,544.8939727553325
796,544.8708429684617
797,544.8346274116875
798,544.7867186635752
799,544.7303227338988
800,544.6699179624505
801,544.6104766565478
802,544.5565876492401
803,544.5116399263104
804,544.4772203268029
805,544.4528512482501
806,544.4361427192464
807,544.4233552044578
808,544.4102748411509
809,544.3932082016041
810,544.3698427106671
811,544.3397403685144
812,544.3043526281502
813,544.2666078980996
814,544.2302411905366
815,544.1990608151565
816,544.1763014187914
817,544.164148743273
818,544.1634750861168
819,544.1737989528956
820,544.1934596210867
821,544.219962308053
822,544.2504150157132
823,544.2819733954707
824,544.312238696085
825,544.3395852936794
826,544.3634046346733
827,544.3842482454824
828,544.4038515340457
829,544.4250304298396
830,544.451458126869
831,544.4873353888678
832,544.5369630560492
833,544.6042290575916
834,544.6920509753919
835,544.8018546369506
836,544.9331867072752
837,545.0835409025359
838,545.2484372009108
839,545.4217494384466
840,545.5962366189417
841,545.7642029643729
842,545.9182001389227
843,546.0516938115211
844,546.159634860878
845,546.2388907462653
846,546.2885027700607
847,546.3097454222442
848,546.3059778598974
849,546.2822957395991
850,546.2450173847119
851,546.2010718174047
852,546.1573850367587
853,546.1203631245808
854,546.0955326393876
855,546.0873321039243
856,546.0989892051687
857,546.1324043864257
858,546.1880029419848
859,546.2645849867317
860,546.3592497470968
861,546.4674725572418
862,546.5833770164843
863,546.700193541422
864,546.8108506345324
865,546.908620619744
866,546.9877397767424
867,547.0439359368339
868,547.0748156619939
869,547.0800832697231
870,547.0615819705615
871,547.023160012666
872,546.9703704693833
873,546.9100162045002
874,546.849563682036
875,546.7964791940826
876,546.7575755774674
877,546.7384684339427
878,546.7432148094146
879,546.7741574062838
880,546.831946876215
881,546.9156810884218
882,547.0230914589661
883,547.1507187931655
884,547.2940455023712
885,547.4475833684389
886,547.6049509753341
887,547.7589989036211
888,547.9020446178264
889,548.0262638022576
890,548.1242507173041
891,548.1897080944588
892,548.218172272804
893,548.207644896909
894,548.1590025880606
895,548.0760912968876
896,547.9654744364451
897,547.8358738774958
898,547.6973929823138
899,547.5606271504478
900,547.4357600746202
901,547.3317289945924
902,547.2555255472072
903,547.2116825668611
904,547.2019855720828
905,547.2254387072395
906,547.2784974021741
907,547.3555463784467
908,547.4495604611847
909,547.5528562989116
910,547.657837937907
911,547.7576542655702
912,547.8467090281363
913,547.9209865328269
914,547.9781783744902
915,548.0176211110071
916,548.0400817956013
917,548.0474506134872
