acceleration,velocity,displacement
-0.015633421388361463,0.0,0.0
-0.015193657562168443,-7.706769737632476e-06,-1.926692434408119e-09
-0.014754460022315782,-1.5193799133753533e-05,-7.651834652254622e-09
-0.014316391706169803,-2.246151206587493e-05,-1.706566245216174e-08
-0.013880008895846322,-2.951061221637896e-05,-3.005869352272521e-08
-0.01344585799130812,-3.6342078938167565e-05,-4.652186631136184e-08
-0.013014472390053844,-4.2957161533508055e-05,-6.634667642928075e-08
-0.012586369490089133,-4.93573720035438e-05,-8.942530981354372e-08
-0.012162047828606455,-5.55444763332177e-05,-1.1565077189773409e-07
-0.011741984373827306,-6.152048438382613e-05,-1.4491701207699505e-07
-0.011326631995860504,-6.728763847624809e-05,-1.771190427920136e-07
-0.010916417145808904,-7.284840076166544e-05,-2.1215305260149198e-07
-0.0105117377707553,-7.820543949080649e-05,-2.4991651266460995e-07
-0.010112961494341172,-8.33616143070806e-05,-2.9030827611408174e-07
-0.009720424101908803,-8.83199607061431e-05,-3.3322866986738764e-07
-0.009334428377017832,-9.308367382587477e-05,-3.785795785003921e-07
-0.008955243330702434,-9.765609175280483e-05,-4.2626451989506203e-07
-0.008583103844827413,-0.0001020406785466873,-4.7618871246993506e-07
-0.008218210723131154,-0.00010624100718867694,-5.282591339037761e-07
-0.007860731114720925,-0.00011026074264813996,-5.823845713629803e-07
-0.007510799252352185,-0.00011410362523990823,-6.384756633349923e-07
-0.0071685174434040645,-0.00011777345441384729,-6.964449332484312e-07
-0.0068339572688329835,-0.00012127407309190656,-7.562068151248697e-07
-0.00650716097176175,-0.00012460935265205523,-8.176776715608601e-07
-0.006188143039200003,-0.00012778317865479568,-8.807758043875728e-07
-0.005876891997941541,-0.00013079943741408105,-9.454214584047921e-07
-0.0055733724637821395,-0.00013366200352951196,-1.0115368186406903e-06
-0.0052775274963483875,-0.0001363747285195446,-1.0790460016529545e-06
-0.004989281310890958,-0.00013894143072135445,-1.1478750414631793e-06
-0.004708542382759341,-0.00014136588664476703,-1.2179518708047096e-06
-0.0044352069533602195,-0.00014365182397879693,-1.2892062984606005e-06
-0.004169162907911464,-0.00014580291644411485,-1.3615699835663284e-06
-0.003910293948920437,-0.00014782278065832282,-1.434976407841938e-06
-0.0036584839490112274,-0.00014971497513280573,-1.5093608467897201e-06
-0.0034136213479996807,-0.00015148300145705846,-1.5846603409371862e-06
-0.0031756034651742055,-0.00015313030766035194,-1.6608136682165388e-06
-0.0029443406195699515,-0.00015466029368153798,-1.7377613185520111e-06
-0.0027197599766018085,-0.00015607631883058092,-1.815445471680041e-06
-0.00250180906064035,-0.00015738171108989145,-1.893809979160159e-06
-0.002290458883552169,-0.0001585797780759396,-1.972800351451617e-06
-0.0020857066346937174,-0.00015967381945550106,-2.052363750834477e-06
-0.0018875778616852586,-0.0001606671405795958,-2.132448990843251e-06
-0.001696128055594782,-0.0001615630670589158,-2.213006542752879e-06
-0.0015114435539249535,-0.00016236495996129575,-2.2939885495079316e-06
-0.0013336416991477028,-0.0001630762312745639,-2.3753488473168964e-06
-0.0011628702349608957,-0.00016370035925809104,-2.4570429949500604e-06
-0.0009993059680642297,-0.00016424090330884733,-2.539028310591795e-06
-0.0008431527508017922,-0.00016470151798856383,-2.6212639159161477e-06
-0.0006946388474907022,-0.00016508596588813695,-2.703710786885323e-06
-0.0005540137490757972,-0.0001653981290372786,-2.786331810616677e-06
-0.00042154450907113923,-0.00016564201860181532,-2.8690918475264504e-06
-0.0002975116882876687,-0.000165821782651155,-2.951957797839693e-06
-0.00018220501027094838,-0.00016594171182579467,-3.0348986714589304e-06
-7.59188412052704e-05,-0.00016600624278866372,-3.117885660112545e-06
2.105238219911221e-05,-0.00016601995940341527,-3.200892210660565e-06
0.00010841864693696167,-0.00016598759164613127,-3.2838940984229515e-06
0.00018589864986483,-0.00016591401232193083,-3.366869499414967e-06
0.00025322375644068316,-0.00016580423172035444,-3.4497990604255383e-06
0.0003101415385951492,-0.00016566339039659548,-3.5326659659547757e-06
0.00035641883601279345,-0.0001654967503029435,-3.6154560011296603e-06
0.00039184432386457776,-0.00016530968451297415,-3.6981576098336395e-06
0.0004162306006041475,-0.00016510766578185698,-3.7807619474073475e-06
0.0004294158304526248,-0.00016489625417409279,-3.863262927396335e-06
0.0004312649935392553,-0.0001646810839680948,-3.945657261931882e-06
0.00042167082055104667,-0.00016446785001457225,-4.0279444954275485e-06
0.0004005545136087202,-0.0001642622936810323,-4.110127031351449e-06
0.00036786636122583733,-0.00016407018846232365,-4.1922101518872886e-06
0.00032358632714277435,-0.0001638973252902315,-4.274202030325427e-06
0.0002677246392969565,-0.00016374949754862156,-4.35611373603514e-06
0.00020032235413441603,-0.0001636324858002637,-4.4379592318723615e-06
0.00012145184637458795,-0.00016355204225013646,-4.519755363884962e-06
3.121717814438448e-05,-0.00016351387499400673,-4.601521843195997e-06
-7.024567926794608e-05,-0.0001635236321192876,-4.683281219974321e-06
-0.0001827687770469219,-0.00016358688573336633,-4.7650588494374845e-06
-0.0003061522653410931,-0.00016370911599396335,-4.846882849869317e-06
-0.0004401646015036597,-0.00016389569521067454,-4.928784052670476e-06
-0.0005845428853122091,-0.0001641518720823785,-5.010795944493739e-06
-0.0007389933347321906,-0.0001644827561373896,-5.092954601548681e-06
-0.0009031919301351851,-0.00016489330245360645,-5.17529861619643e-06
-0.0010767852514798678,-0.00016538829674901022,-5.257869015997084e-06
-0.0012593915130594787,-0.00016597234094014506,-5.340709175419373e-06
-0.0014506017772877302,-0.00016664983926273187,-5.423864720470092e-06
-0.0016499813152338887,-0.0001674249850358623,-5.50738342654474e-06
-0.001857071083990035,-0.00016830174813566826,-5.591315109837623e-06
-0.0020713893109045095,-0.0001692838632343919,-5.675711512680138e-06
-0.0022924332033090102,-0.00017037481886294527,-5.760626183204472e-06
-0.002519680822000622,-0.0001715778473692727,-5.846114349762527e-06
-0.002752593156365876,-0.00017289591586386433,-5.9322327905708116e-06
-0.0029906164236912615,-0.0001743317182588786,-6.019039699101497e-06
-0.0032331845973019614,-0.0001758876685141269,-6.106594545794748e-06
-0.003479722154073251,-0.0001775658952019707,-6.1949579367237726e-06
-0.003729647021202715,-0.0001793682374957897,-6.2841914698982126e-06
-0.003982373692334133,-0.00018129624267417392,-6.3743575899407035e-06
-0.004237316475275459,-0.0001833511652160763,-6.465519441913266e-06
-0.004493892833266323,-0.00018553396754321174,-6.5577407251030874e-06
-0.0047515267873013845,-0.00018784532244835368,-6.651085547600979e-06
-0.005009652345666688,-0.0001902856172315957,-6.745618282520966e-06
-0.005267716910588736,-0.00019285495954565954,-6.84140342671528e-06
-0.005525184590482968,-0.00019555318492092748,-6.938505462831927e-06
-0.005781539335507047,-0.00019837986590242498,-7.036988725537765e-06
-0.006036287816797032,-0.000201334322690501,-7.136917272685997e-06
-0.006288961976558574,-0.0002044156351388399,-7.238354762143332e-06
-0.00653912117972245,-0.00020762265592791016,-7.34136433491002e-06
-0.006786353899874113,-0.0002109540246978093,-7.44600850506645e-06
-0.007030278878501905,-0.0002144081828924033,-7.552349056964003e-06
-0.0072705457097845365,-0.0002179833890394749,-7.660446949946972e-06
-0.0075068348212119496,-0.000221677734172224,-7.770362230749897e-06
-0.007738856842453636,-0.0002254891570881404,-7.882153953564988e-06
-0.007966351380533398,-0.00022941545914388715,-7.995880107622994e-06
-0.008189085244062828,-0.0002334543183000362,-8.111597551983976e-06
-0.008406850180009676,-0.00023760330215605432,-8.229361957097999e-06
-0.008619460207244675,-0.00024185987975286792,-8.34922775257523e-06
-0.00882674865220959,-0.00024622143196773147,-8.47124808050538e-06
-0.009028565000908395,-0.00025068526038101097,-8.595474753592565e-06
-0.009224771665090078,-0.0002552485945475106,-8.721958217324696e-06
-0.009415240722673772,-0.00025990859764445155,-8.850747515372686e-06
-0.009599850650051853,-0.00026466237048763296,-8.981890257405707e-06
-0.009778483035364606,-0.0002695069539089871,-9.115432588504861e-06
-0.00995101926028085,-0.00027443932948289845,-9.251419159352833e-06
-0.010117337162764644,-0.0002794564185886598,-9.389893096370722e-06
-0.010277307728505835,-0.00028455507981147744,-9.530895970970756e-06
-0.010430791889402193,-0.00028973210471595445,-9.674467767102614e-06
-0.010577637532821956,-0.0002949842120715105,-9.82064684629948e-06
-0.010717676847784926,-0.0003003080406666622,-9.969469909484024e-06
-0.010850724150299007,-0.0003057001409161832,-1.0120971954879736e-05
-0.010976574337534347,-0.0003111569655381415,-1.0275186231493316e-05
-0.01109500211694426,-0.00031667485965176115,-1.0432144187790792e-05
-0.011205762133463257,-0.00032225005071436305,-1.0591875415382324e-05
-0.01130859006997674,-0.00032787863876522304,-1.075440758775222e-05
-0.011403204734975442,-0.0003335565874664611,-1.0919766394310141e-05
-0.011489311098535812,-0.0003392797164248389,-1.1087975470282966e-05
-0.011566604206533744,-0.00034504369525110626,-1.1259056323201953e-05
-0.011634773890239687,-0.0003508440397752996,-1.1433028256958555e-05
-0.011693510185062374,-0.0003566761107941251,-1.160990829460091e-05
-0.01174250937486771,-0.0003625351156841076,-1.178971110122047e-05
-0.011781480586180122,-0.0003684161131743696,-1.197244890843509e-05
-0.01181015286332976,-0.0003743140215367471,-1.2158131442112868e-05
-0.011828282652690463,-0.00038022363041575216,-1.2346765855100993e-05
-0.011835661613534084,-0.0003861396164823083,-1.2538356666825508e-05
-0.011832124662755789,-0.0003920565630513808,-1.273290571170893e-05
-0.011817558151894872,-0.00039796898375504347,-1.2930412098410536e-05
-0.011791908061122236,-0.00040387135030829776,-1.3130872181926372e-05
-0.011755188074091543,-0.0004097581243421012,-1.3334279550588971e-05
-0.011707487372328356,-0.00041562379320370617,-1.3540625029975422e-05
-0.011648977960645363,-0.0004214629095369496,-1.3749896705660586e-05
-0.011579921312969704,-0.0004272701343553534,-1.3962079966633661e-05
-0.0115006741226542,-0.0004330402832142594,-1.4177157571026065e-05
-0.011411692957918988,-0.00043876837498440266,-1.439510973557573e-05
-0.011313537656518605,-0.00044444968263801206,-1.4615914249981334e-05
-0.01120687333511143,-0.0004500797853859196,-1.4839546616987317e-05
-0.011092470930035053,-0.0004556546214522062,-1.5065980218696848e-05
-0.010971206220565537,-0.0004611705407398564,-1.5295186509244862e-05
-0.010844057310668745,-0.00046662435662266495,-1.552713523358549e-05
-0.010712100566633506,-0.0004720133960919905,-1.5761794671764154e-05
-0.010576505036744194,-0.00047733554749283493,-1.599913190766036e-05
-0.010438525420504188,-0.000482589305107147,-1.6239113120810355e-05
-0.010299493701010107,-0.0004877738098875256,-1.6481703899559022e-05
-0.010160809593012634,-0.0004928888857110312,-1.6726869573458662e-05
-0.010023929988958034,-0.0004979350706065239,-1.697457556253805e-05
-0.00989035760998003,-0.0005029136425062584,-1.7224787740816245e-05
-0.009761629084574244,-0.000507826639179897,-1.7477472811237782e-05
-0.009639302672424688,-0.0005126768721191468,-1.7732598689062544e-05
-0.009524945821896455,-0.000517467934242727,-1.799013489065301e-05
-0.009420122709469403,-0.0005222042013755684,-1.8250052924557586e-05
-0.00932638187611783,-0.0005268908275219653,-1.851232668178197e-05
-0.009245244062057453,-0.000531533734006509,-1.8776932822164088e-05
-0.009178190345523016,-0.0005361395926084041,-1.9043851153817817e-05
-0.009126650697592649,-0.000540715802869183,-1.9313065002687213e-05
-0.009091993059419221,-0.000545270463808436,-1.9584561569356616e-05
-0.009075513031228763,-0.000549812340331098,-1.98583322703915e-05
-0.009078424243443257,-0.000554350824649766,-2.013437306163672e-05
-0.009101849465361215,-0.0005588958930769671,-2.0412684741068402e-05
-0.00914681249459513,-0.0005634580585669562,-2.0693273228979382e-05
-0.009214230855176801,-0.0005680483194043991,-2.0976149823472222e-05
-0.009304909311702044,-0.0005726781044461188,-2.1261331429434853e-05
-0.009419534189969825,-0.0005773592153215368,-2.1548840759376766e-05
-0.009558668496156891,-0.0005821037659930685,-2.1838706504705416e-05
-0.009722747853061523,-0.0005869241200803731,-2.2130963476223777e-05
-0.009912077310502887,-0.0005918328263712642,-2.2425652712836687e-05
-0.010126829111555153,-0.0005968425529767787,-2.27228215576737e-05
-0.010367041490214168,-0.0006019660206272211,-2.3022523701074698e-05
-0.010632618548971903,-0.0006072159356370175,-2.3324819190140756e-05
-0.01092333123713644,-0.0006126049230835446,-2.3629774404820895e-05
-0.011238819429799266,-0.0006181454607502785,-2.393746200077935e-05
-0.011578595089517044,-0.0006238498143801076,-2.4247960819561947e-05
-0.011942046479910817,-0.0006297299747724646,-2.456135576685009e-05
-0.01232844339931329,-0.0006357975972422706,-2.4877737659853772e-05
-0.012736943411225096,-0.0006420639439449052,-2.5197203045150568e-05
-0.013166599055553813,-0.0006485398295615999,-2.5519853988527193e-05
-0.013616366021889849,-0.0006552355708309608,-2.5845797838625333e-05
-0.01408511225390483,-0.0006621609403999095,-2.617514696643305e-05
-0.014571627937208132,-0.0006693251254476877,-2.650801848289495e-05
-0.015074636303201463,-0.0006767366915077901,-2.684453393713382e-05
-0.015592805154487343,-0.0006844035518722123,-2.7184818997978823e-05
-0.016124758979735893,-0.0006923329429057682,-2.7529003121673317e-05
-0.016669091484450976,-0.0007005314055218149,-2.787721920878021e-05
-0.01722437833497949,-0.0007090047729766725,-2.8229603253404834e-05
-0.01778918990463494,-0.0007177581650365762,-2.8586293987908145e-05
-0.01836210381584802,-0.000726795988466697,-2.8947432526283963e-05
-0.01894171708389046,-0.0007361219436916316,-2.9313162009323544e-05
-0.01952665768900635,-0.0007457390373848559,-2.9683627254592665e-05
-0.02011559543337143,-0.0007556496006654504,-3.005897441410524e-05
-0.020707251963737357,-0.0007658553125147276,-3.0439350642400286e-05
-0.021300409850164004,-0.000776357227968203,-3.082490377752102e-05
-0.021893920613644067,-0.000787155810584155,-3.121578203715911e-05
-0.02248671160784192,-0.0007982509686395265,-3.161213373196503e-05
-0.023077791693219628,-0.0008096420944647918,-3.2014106997741114e-05
-0.023666255691698775,-0.0008213281063110215,-3.2421849547935066e-05
-0.02425128766153671,-0.0008333074921493303,-3.2835508447550155e-05
-0.02483216306910845,-0.0008455783548319916,-3.3255229909295485e-05
-0.02540824995032387,-0.0008581384580868497,-3.3681159112525196e-05
-0.02597900915429381,-0.0008709852728630041,-3.411344004526266e-05
-0.026543993756063127,-0.0008841160235905933,-3.4552215369376064e-05
-0.02710284771915719,-0.0008975277339593984,-3.499762630876356e-05
-0.02765530387818429,-0.0009112172718587338,-3.54498125602181e-05
-0.028201181294025487,-0.0009251813931517863,-3.590891222647073e-05
-0.028740382018202535,-0.0009394167839798433,-3.6375061770753636e-05
-0.02927288730151858,-0.0009539201013097735,-3.684839599207604e-05
-0.029798753294044137,-0.0009686880114586642,-3.732904802026815e-05
-0.030318106296236536,-0.0009837172263562344,-3.7817149329721874e-05
-0.030831137627341666,-0.000999004537337129,-3.8312829770645215e-05
-0.03133809818123544,-0.0010145468462892733,-3.8816217616551816e-05
-0.03183929274527925,-0.001030341194020902,-3.932743962662936e-05
-0.0323350741595977,-0.0010463847857471213,-3.984662112157137e-05
-0.03282583738284921,-0.001062675013632733,-4.0373886071416334e-05
-0.033312013503025616,-0.0010792094763542018,-4.090935719391307e-05
-0.033794063695479895,-0.001095985995653828,-4.145315606191508e-05
-0.03427247309905681,-0.0011130026298524624,-4.200540321829165e-05
-0.03474774456897492,-0.0011302576842694703,-4.256621829682213e-05
-0.035220392276387597,-0.0011477497184808109,-4.31357201475097e-05
-0.03569093514998691,-0.0011654775503374044,-4.371402696471425e-05
-0.03615989018096171,-0.0011834402566701415,-4.430125641646614e-05
-0.03662776563145312,-0.0012016371706232453,-4.489752577328948e-05
-0.03709505419277575,-0.0012200678755793024,-4.550295203484012e-05
-0.03756222613161783,-0.0012387321956604008,-4.6117652052650046e-05
-0.038029722452457414,-0.0012576301828064196,-4.6741742647266754e-05
-0.03849794811050554,-0.0012767621004471602,-4.7375340718080146e-05
-0.038967265334427376,-0.0012961284038083935,-4.801856334414403e-05
-0.039437987149247726,-0.0013157297169293122,-4.867152787432846e-05
-0.03991037121770075,-0.0013355668065210494,-4.933435200519105e-05
-0.04038461414045567,-0.0013556405528605884,-5.000715384503646e-05
-0.04086084636541566,-0.0013759519179870562,-5.069005196274837e-05
-0.04133912784480302,-0.0013965019115396108,-5.138316542013004e-05
-0.041819444547723274,-0.0014172915546377424,-5.2086613786674375e-05
-0.04230170589690808,-0.0014383218422489002,-5.280051713589604e-05
-0.04278574316066079,-0.0014595937045132925,-5.352499602258659e-05
-0.04327130879823884,-0.0014811079675030173,-5.4260171440590666e-05
-0.043758076731423026,-0.0015028653138854328,-5.500616476093778e-05
-0.04424564349980533,-0.00152486624394324,-5.5763097650394946e-05
-0.0447335302498499,-0.0015471110373806538,-5.653109197072592e-05
-0.04522118549765895,-0.001569599716317531,-5.731026965915047e-05
-0.04570798858495816,-0.0015923320098381853,-5.8100752590689396e-05
-0.04619325372232561,-0.0016153073204150062,-5.890266242325269e-05
-0.04667623449238355,-0.0016385246924686834,-5.971612042647361e-05
-0.04715612866879168,-0.0016619827832589772,-6.054124729540553e-05
-0.047632083191115726,-0.001685679836223954,-6.137816295027626e-05
-0.0481031991254668,-0.0017096136568030998,-6.222698632353302e-05
-0.04856853644556293,-0.0017337815906958572,-6.308783513540776e-05
-0.04902711849063316,-0.0017581805044299063,-6.39608256591892e-05
-0.04947793598903844,-0.001782806768049824,-6.484607247730913e-05
-0.04991995057657271,-0.0018076562396912269,-6.57436882292444e-05
-0.05035209778453656,-0.0018327242517815043,-6.665378335211257e-05
-0.050773289514420575,-0.0018580055986062436,-6.757646581470951e-05
-0.0511824160397123,-0.001883494524994777,-6.851184084560977e-05
-0.05157834758002741,-0.0019091847158997119,-6.94600106558334e-05
-0.05195993548938706,-0.0019350692866670655,-7.042107415647509e-05
-0.05232601309515338,-0.0019611407738132007,-7.139512667159516e-05
-0.052675396210853646,-0.0019873911261397027,-7.238225964658338e-05
-0.053006883322725275,-0.0020138116960230976,-7.338256035212409e-05
-0.05331925543190837,-0.002040393230711756,-7.43961115838078e-05
-0.05361127554296298,-0.0020671258634554737,-7.54229913573496e-05
-0.0538816878299238,-0.0020939991042986956,-7.646327259928814e-05
-0.054129216568166626,-0.002121001830398218,-7.751702283296238e-05
-0.05435256497127785,-0.0021481222757830792,-7.85843038595077e-05
-0.05455041410317768,-0.0021753480205516933,-7.96651714335914e-05
-0.054721422049341543,-0.0022026659795898232,-8.075967493362677e-05
-0.05486422353583258,-0.002230062390986117,-8.186785702627076e-05
-0.0549774301836988,-0.0022575228044159996,-8.298975332512129e-05
-0.055059631574383636,-0.00228503206985552,-8.412539204368918e-05
-0.05510939727276277,-0.002312574327067307,-8.527479364291988e-05
-0.05512527990450301,-0.0023401329963616234,-8.643797047377712e-05
-0.05510581931851919,-0.002367690771167379,-8.761492641565937e-05
-0.05504954780144996,-0.0023952296129473713,-8.880565651168806e-05
-0.05495499626680488,-0.002422730748964435,-9.001014660216601e-05
-0.05482070131550826,-0.002450174673360013,-9.122837295774713e-05
-0.054645213046094473,-0.002477541151950414,-9.246030191407473e-05
-0.05442710348152892,-0.0025048092310823197,-9.370588950983292e-05
-0.05416497548117192,-0.002531957250822995,-9.496508113030925e-05
-0.05385747201627562,-0.002558962862697357,-9.623781115868934e-05
-0.053503285696465966,-0.0025858030521255424,-9.752400263739506e-05
-0.05310116844162118,-0.0026124541656600644,-9.882356694184147e-05
-0.052649941201540956,-0.002638891943070855,-0.0001001364034690242
