frame_number,force
0,571.1782900000419
1,571.2675215642181
2,571.3445628016765
3,571.3984130395214
4,571.4203234513449
5,571.4046057081431
6,571.3490795151129
7,571.2551005250955
8,571.1271871064652
9,570.9723452116111
10,570.799235205681
11,570.6173093684279
12,570.4359984342809
13,570.2639893293073
14,570.1086317363515
15,569.9755150783137
16,569.8682461344464
17,569.7884276572729
18,569.735800651008
19,569.7084878909609
20,569.7032831206253
21,569.7159638659318
22,569.7416380437303
23,569.7751452148176
24,569.8115201821125
25,569.8464929910355
26,569.8769582576128
27,569.9013249106094
28,569.9196690597545
29,569.9336456260952
30,569.9461554982216
31,569.9608137635412
32,569.981316196707
33,570.0108381839844
34,570.0516018644879
35,570.104701687188
36,570.1701950898594
37,570.2473775077971
38,570.335112387843
39,570.4321008717773
40,570.5370361197545
41,570.6486489895766
42,570.7656803358027
43,570.886814685483
44,571.0106095074306
45,571.1354654354368
46,571.25968310496
47,571.3816187165099
48,571.4998961857075
49,571.6135959641022
50,571.7223416750028
51,571.8262409589327
52,571.9256913709304
53,572.0211166626566
54,572.112724545236
55,572.2003530638966
56,572.2834141217179
57,572.3608941810398
58,572.4313699141961
59,572.49303798907
60,572.5438009826472
61,572.5814482480655
62,572.6039193272776
63,572.609588060736
64,572.5975030213897
65,572.5675550484929
66,572.5205708297256
67,572.4583284522471
68,572.3834761304024
69,572.299341670832
70,572.2096515353927
71,572.1182084452705
72,572.0285829671827
73,571.9438570438415
74,571.8664277279745
75,571.7978543527897
76,571.7387333353806
77,571.6886193054929
78,571.646050391899
79,571.6087327775924
80,571.5738853855805
81,571.5386817276244
82,571.5006957525931
83,571.4582663526622
84,571.4107228179136
85,571.3584476209593
86,571.3027878661671
87,571.2458571538278
88,571.1902861911626
89,571.1389740229865
90,571.0948648081053
91,571.0607437485177
92,571.0390255743348
93,571.0315088220871
94,571.0390949705933
95,571.0615144489235
96,571.0971324029057
97,571.1429046603434
98,571.1945232238932
99,571.246745215402
100,571.2938567129191
101,571.3302029352817
102,571.3507197918939
103,571.3514112145529
104,571.3297262392546
105,571.28480639434
106,571.2175920593498
107,571.1307847967745
108,571.0286651127761
109,570.9167727520423
110,570.8014700920315
111,570.6894219970869
112,570.5870366838075
113,570.4999249065246
114,570.4324453816293
115,570.3874026088218
116,570.3659420025374
117,570.3676467259565
118,570.3907932641213
119,570.4326941314374
120,570.4900603185881
121,570.5593344007673
122,570.6369542835573
123,570.7195186023214
124,570.803862820119
125,570.8871065933942
126,570.9667495447093
127,571.0408504349163
128,571.1082548958775
129,571.1687910703912
130,571.2233579705985
131,571.2738777235677
132,571.3231347211963
133,571.3745477319153
134,571.4319086455715
135,571.4990975838796
136,571.579775362135
137,571.6770648009913
138,571.7932480396455
139,571.929513332067
140,572.0857783711521
141,572.260608700969
142,572.4512492366737
143,572.6537839322494
144,572.8634170128296
145,573.0748391754315
146,573.2826322995692
147,573.481682338557
148,573.6675866443085
149,573.8370381134944
150,573.9881528029133
151,574.1207002310783
152,574.2362015404134
153,574.3378706956712
154,574.4303817204855
155,574.5194559166167
156,574.6112874814337
157,574.7118671675527
158,574.8263079073579
159,574.9582947738054
160,575.1097529241046
161,575.2807631422495
162,575.4696916810085
163,575.6734673467796
164,575.8879385038985
165,576.1082608364932
166,576.3292811953481
167,576.5458861853374
168,576.7532909831817
169,576.9472669211607
170,577.1243332921227
171,577.2819431432624
172,577.418664825742
173,577.5343212265815
174,577.630028263273
175,577.708087230094
176,577.771721546676
177,577.824689266747
178,577.870837601602
179,577.9136865819131
180,577.9561228012232
181,578.0002460373429
182,578.0473604715272
183,578.0980680860187
184,578.1524158179365
185,578.2100558667188
186,578.2703815861745
187,578.3325993615266
188,578.3957084895031
189,578.4583976110696
190,578.5189083550458
191,578.5749331503368
192,578.6235978167846
193,578.6615495342919
194,578.6851458754622
195,578.6907284266784
196,578.6749660417812
197,578.6352592351612
198,578.5701883706695
199,578.4799522738665
200,578.3667027316628
201,578.2346763486327
202,578.0900680958774
203,577.9406408588463
204,577.7950905848808
205,577.6622076525949
206,577.549921476813
207,577.4643710211213
208,577.4091673201151
209,577.3849860651861
210,577.3895568057578
211,577.4180235509816
212,577.4635758735799
213,577.5182219074012
214,577.5735957714872
215,577.6217337442029
216,577.6557843328302
217,577.6706223493783
218,577.6633230442961
219,577.63344083262
220,577.5830474548465
221,577.5165168764374
222,577.4400823946708
223,577.3612177079157
224,577.2878987625145
225,577.2277936795771
226,577.1874294674888
227,577.171414903125
228,577.1818387717361
229,577.2179681202539
230,577.2763218802431
231,577.3511107924477
232,577.4349526442608
233,577.5197233534104
234,577.5974025638407
235,577.6608088208693
236,577.7041692692118
237,577.7235056195318
238,577.7168287380474
239,577.6841278360876
240,577.6271429379033
241,577.5489405628495
242,577.4533657518175
243,577.344489880708
244,577.2261805442973
245,577.1018739203388
246,576.9745513851925
247,576.8468491227293
248,576.7211928601913
249,576.5998616032507
250,576.4849338027474
251,576.378127077732
252,576.2805784677059
253,576.1926175643425
254,576.1135776610696
255,576.0416948977842
256,575.9741612885089
257,575.9073915642163
258,575.8375093127354
259,575.7609735277338
260,575.6752042356061
261,575.5790634515664
262,575.473101443452
263,575.359551572275
264,575.2421093923911
265,575.1255478225187
266,575.015216977047
267,574.9164784399434
268,574.834132364138
269,574.7718985207554
270,574.7320031286183
271,574.7149125407908
272,574.7192529271617
273,574.7419491487528
274,574.778582854252
275,574.823916081041
276,574.8724915838092
277,574.9192293300376
278,574.9599708265146
279,574.9919412183724
280,575.014087522912
281,575.0272312891517
282,575.0339832821003
283,575.0384191014014
284,575.0455773454653
285,575.0608737033268
286,575.0895135013114
287,575.1359550793256
288,575.2034551672026
289,575.2937223252018
290,575.4067043504926
291,575.5405291778437
292,575.6916053410422
293,575.8548753419193
294,576.0242067000157
295,576.1928899643044
296,576.3541868462333
297,576.5018600760071
298,576.6306401818346
299,576.7366214455855
300,576.817595220849
301,576.8733188560809
302,576.9056956914573
303,576.9188131942813
304,576.9187652112098
305,576.9131972129461
306,576.9105744122403
307,576.9192625622894
308,576.9465904819459
309,576.9980925569162
310,577.0770839827046
311,577.1846111935513
312,577.3196978012303
313,577.4797370734718
314,577.6608918835061
315,577.8584265782473
316,578.0669640038635
317,578.280699230146
318,578.4936060442996
319,578.6996650749215
320,578.8931380936135
321,579.0689034496999
322,579.2228441422283
323,579.3522490454286
324,579.4561586168943
325,579.5355669689413
326,579.593396860574
327,579.6342046721481
328,579.6636373027558
329,579.6877213686867
330,579.7120959581171
331,579.7413033214671
332,579.7782316806499
333,579.8237682282823
334,579.8766890188004
335,579.9338003624674
336,579.990338712436
337,580.0406075174748
338,580.0787771316667
339,580.0997220315284
340,580.0997502983149
341,580.0771075303683
342,580.0321944437046
343,579.967493650653
344,579.8872417359137
345,579.796912711778
346,579.7025985510086
347,579.6103718377469
348,579.5256954376854
349,579.4529214568137
350,579.3949124143965
351,579.3528217429705
352,579.3260712333566
353,579.3125382929388
354,579.308913933312
355,579.3111410852234
356,579.3148283761805
357,579.3155673942979
358,579.3091387080722
359,579.2916415028311
360,579.2596034105494
361,579.2101153991188
362,579.1410031230081
363,579.0510169767588
364,578.9400168963243
365,578.809137585395
366,578.6609224750922
367,578.4993973705803
368,578.3300278623391
369,578.1594950055814
370,577.9952543420513
371,577.8449102118462
372,577.7155031125322
373,577.6128305191361
374,577.5408968054693
375,577.5015491761626
376,577.4943310364979
377,577.5165661248539
378,577.5636569919434
379,577.6295424067699
380,577.7072378289822
381,577.7894013384694
382,577.8689084400808
383,577.9394428982164
384,577.9960887017851
385,578.0358497279689
386,578.0579760706469
387,578.0639891043043
388,578.0573746018132
389,578.0430089393016
390,578.0264473426067
391,578.0132133227617
392,578.0081942079463
393,578.0151967871977
394,578.0366761729624
395,578.0736333514443
396,578.125676828182
397,578.191239438314
398,578.2679193033052
399,578.3528842495531
400,578.4432582120253
401,578.536407182216
402,578.630071177689
403,578.7223473869678
404,578.8115932510174
405,578.8963493111441
406,578.9753626173267
407,579.047736913819
408,579.113169277495
409,579.1721708487912
410,579.2261368510123
411,579.2771613663942
412,579.3275863904671
413,579.379385457726
414,579.4335537507953
415,579.4896822834221
416,579.5458386156475
417,579.5987865881914
418,579.6444857483853
419,579.6787443664664
420,579.6978726262035
421,579.6991943355606
422,579.6813172763959
423,579.6441282825714
424,579.5885610746201
425,579.5162547224402
426,579.4292400620965
427,579.3297482685562
428,579.2201606659402
429,579.1030581698238
430,578.9813044914355
431,578.8580990309429
432,578.7369463132087
433,578.6215049093433
434,578.5153044884929
435,578.421357204088
436,578.3417337059092
437,578.2772071835022
438,578.2270671436391
439,578.1891633572144
440,578.160184982712
441,578.1361361961825
442,578.1129391854153
443,578.0870722917351
444,578.0561417223993
445,578.0192967541245
446,577.9774249478066
447,577.933091351758
448,577.8902043994302
449,577.8534108471326
450,577.8272664632219
451,577.8153016649283
452,577.8191659996492
453,577.8380455930846
454,577.8684883254186
455,577.9046707134888
456,577.939042296656
457,577.963216412397
458,577.968950349937
459,577.9490711650367
460,577.8982442727905
461,577.8135310186497
462,577.694716830458
463,577.5444027206612
464,577.367853289362
465,577.1726055679834
466,576.9678680802655
467,576.7637653193576
468,576.5705006396502
469,576.3975174219286
470,576.252727318703
471,576.1418451398958
472,576.0678437861549
473,576.0305427802895
474,576.0263682868429
475,576.0483512964639
476,576.0864436278766
477,576.12821073038
478,576.159901230152
479,576.1678158309247
480,576.1398312671997
481,576.0668910569809
482,575.944253600795
483,575.772298423729
484,575.5567488159282
485,575.3082652884175
486,575.0414590872139
487,574.7734411621504
488,574.5220732345527
489,574.3041369194748
490,574.1336555278668
491,574.0205604300281
492,573.9698132552159
493,573.981029953016
494,574.0486193134601
495,574.1624185223665
496,574.308758722126
497,574.4718378818545
498,574.6352451589854
499,574.7834797472409
500,574.9033244130293
501,574.9849558792674
502,575.0227020266233
503,575.0153927222946
504,574.9662877239965
505,574.882597319086
506,574.7746553686952
507,574.6548618672505
508,574.5365417594732
509,574.4328357026357
510,574.3556796267865
511,574.31490351996
512,574.3174980416894
513,574.3671235495977
514,574.4639338085984
515,574.6047434522445
516,574.7834954911709
517,574.9919171001661
518,575.2202272504173
519,575.4577945581015
520,575.6937193070902
521,575.9173803006843
522,576.1189960821368
523,576.2902015552783
524,576.4245844243798
525,576.518102881637
526,576.5693205547769
527,576.5794313976266
528,576.5520844943426
529,576.4930353202722
530,576.4096464280489
531,576.3102612882651
532,576.2034930095066
533,576.0974899912633
534,575.9992475642366
535,575.9140303949247
536,575.8449625248279
537,575.7928322976302
538,575.7561440624789
539,575.7314209699254
540,575.7137260338957
541,575.6973387684858
542,575.6765123917941
543,575.6462301598372
544,575.6028698532142
545,575.5446884419699
546,575.4720683419104
547,575.3875062391514
548,575.2953508753193
549,575.2013078641962
550,575.1117464521561
551,575.032875929111
552,574.9698993509618
553,574.9262782047639
554,574.9032358986808
555,574.8995899633408
556,574.9119483586717
557,574.9352492475487
558,574.9635669133047
559,574.9910473099999
560,575.0127934826786
561,575.0255258639683
562,575.0279026383658
563,575.0204706289094
564,575.0052930327513
565,574.9853556119682
566,574.9638879334051
567,574.943743776279
568,574.9269553329439
569,574.9145144162912
570,574.9063643190998
571,574.9015381243273
572,574.8983716164734
573,574.8947456111506
574,574.8883447138427
575,574.8769293264324
576,574.8586064560155
577,574.8320767822702
578,574.7968400424878
579,574.7533431284795
580,574.7030476670194
581,574.6483903757672
582,574.5926227663584
583,574.5395399213753
584,574.4931253280569
585,574.4571457988114
586,574.4347364498441
587,574.4280242321586
588,574.4378410168403
589,574.463569684128
590,574.5031549934272
591,574.5532948669251
592,574.6097995661369
593,574.6680700834199
594,574.7236194629172
595,574.7725558386528
596,574.8119673680123
597,574.8401811950828
598,574.8568817119218
599,574.8630637026876
600,574.8607978777843
601,574.8528224424041
602,574.8420201886299
603,574.8308622395728
604,574.820899060594
605,574.8123776501989
606,574.8040604796386
607,574.7932986914026
608,574.7763661302897
609,574.7490101891738
610,574.70713758057
611,574.6475327762382
612,574.5685042944189
613,574.4703662339014
614,574.3556778775837
615,574.229176778354
616,574.097367151264
617,573.9677869001953
618,573.8480630798365
619,573.7449349836318
620,573.6634385784488
621,573.6063962788991
622,573.5742613391473
623,573.5652704528953
624,573.5758072223679
625,573.6008829083872
626,573.6346743892472
627,573.6710947478845
628,573.7043880439364
629,573.7297230544187
630,573.7437232308862
631,573.7448454203579
632,573.7335275682316
633,573.7120578705037
634,573.6841631210501
635,573.6543720352113
636,573.6272735975635
637,573.6068309214553
638,573.5958950440291
639,573.5959938146198
640,573.6073891578442
641,573.6293400571609
642,573.6604878692897
643,573.6992832830732
644,573.7443843366347
645,573.7949634987779
646,573.8508757116932
647,573.9126693634616
648,573.9814585477351
649,574.0586923380785
650,574.1458468824147
651,574.244049524537
652,574.3536492688055
653,574.4737841435413
654,574.6020435822211
655,574.7343449656505
656,574.8651099385504
657,574.9877475399383
658,575.0953704808771
659,575.1816229998517
660,575.2414844658572
661,575.2719214253636
662,575.2722913252765
663,575.2444490447956
664,575.1925566349253
665,575.1226372166819
666,575.0419454134573
667,574.9582450230797
668,574.8790821436287
669,574.8111192224357
670,574.7595666452448
671,574.7277320122164
672,574.716709264468
673,574.7252389547054
674,574.7497716982383
675,574.7847531336189
676,574.8231234655985
677,574.8569944780404
678,574.8784425469937
679,574.8803474415853
680,574.8572073819709
681,574.8058522265989
682,574.7259565010013
683,574.6202477130734
684,574.4943392747297
685,574.3561873487023
686,574.2152444722047
687,574.081431558258
688,573.9640718523004
689,573.8709327642994
690,573.8075009291191
691,573.7765726259296
692,573.778191451368
693,573.8099201099328
694,573.8673901471591
695,573.9450296114995
696,574.0368362157332
697,574.1370643181913
698,574.2407365773373
699,574.343952731286
700,574.4440142523376
701,574.5394057505757
702,574.6296839634956
703,574.7153225339581
704,574.7975359439647
705,574.8780725058263
706,574.9589552670354
707,575.042169469713
708,575.1293248115969
709,575.2213392176737
710,575.3181917874941
711,575.4187811489609
712,575.5209144704972
713,575.6214481121383
714,575.7165910832344
715,575.8023536332245
716,575.8750840610111
717,575.9320092658946
718,575.9716880207108
719,575.9942937128653
720,576.0016622297766
721,575.9970782855842
722,575.9848305370097
723,575.9696224873295
724,575.9559558379271
725,575.9475968448627
726,575.9472052109547
727,575.9561615224347
728,575.9745832333818
729,576.001486471539
730,576.0350425693085
731,576.0728871645186
732,576.1124526955248
733,576.1513045523776
734,576.1874600206675
735,576.2196543033231
736,576.2475029093002
737,576.2715178900239
738,576.2929720082483
739,576.3136475881147
740,576.3355309273359
741,576.3605130008042
742,576.3901389089989
743,576.4254203514539
744,576.4666990913389
745,576.5135400675717
746,576.564649453511
747,576.6178457165244
748,576.6701327748154
749,576.717909316473
750,576.7573002923904
751,576.7845477668247
752,576.7963831991295
753,576.7903262506321
754,576.7648906005659
755,576.719700544424
756,576.655530322828
757,576.5742780408583
758,576.4788767981739
759,576.3731254874194
760,576.2614083961628
761,576.1482933551699
762,576.0380499152031
763,575.9341750971897
764,575.8390263951716
765,575.7536401358057
766,575.677765673267
767,575.6100827632843
768,575.5485220935724
769,575.4906115088838
770,575.4338115284198
771,575.3758298138458
772,575.3148871643347
773,575.2498792775701
774,575.180386360295
775,575.1065346743236
776,575.0287753196402
777,574.9476728127729
778,574.8637728395364
779,574.7775678121242
780,574.6895422618493
781,574.6002761702962
782,574.510590464771
783,574.4217044416956
784,574.3353436755926
785,574.2537241986137
786,574.1793689523628
787,574.1147726466985
788,574.0619880712778
789,574.02224014484
790,573.9956806663322
791,573.9813720967505
792,573.9775223846536
793,573.9818960140713
794,573.9922509712012
795,574.0066547536215
796,574.0236129241538
797,574.0420320345269
798,574.0610744967898
799,574.0799556416879
800,574.0977310781205
801,574.1131441940115
802,574.1246203180463
803,574.1304658918539
804,574.1292521396889
805,574.1202750141516
806,574.103942399049
807,574.0819672423779
808,574.0573204788199
809,574.0339826209947
810,574.016592108838
811,574.0100977911665
812,574.0194802033416
813,574.0495334465082
814,574.1046366305568
815,574.1884336969806
816,574.3033945686559
817,574.4503125501307
818,574.6278493951575
819,574.8322445015679
820,575.0572703894412
821,575.2944700600125
822,575.5336685861424
823,575.7637124528668
824,575.9733585597959
825,576.1522195938248
826,576.2916743177502
827,576.3856569691844
828,576.4312411428124
829,576.428940287444
830,576.3826721068451
831,576.2993740204882
832,576.1882980697914
833,576.0600512174017
834,575.9254841515823
835,575.7945666623017
836,575.675408018765
837,575.573568812662
838,575.4917555452365
839,575.4299031602711
840,575.3855713871519
841,575.3545437505616
842,575.3315229448814
843,575.3108305257759
844,575.2870228463221
845,575.2553466054247
846,575.2119986148124
847,575.154211339434
848,575.080220269224
849,574.9891666585553
850,574.8809726595098
851,574.756216832953
852,574.6160281574307
853,574.4619985356566
854,574.2961084702836
855,574.1206798717712
856,573.9383816220694
857,573.7522846078235
858,573.5659150827594
859,573.3832407283434
860,573.2085588970479
861,573.046305699063
862,572.9008280876982
863,572.7761544971663
864,572.6757808656245
865,572.602471294554
866,572.5580645527458
867,572.5432874321054
868,572.5576000599306
869,572.5991180218775
870,572.6646546996834
871,572.7499033968254
872,572.849746201308
873,572.9586512215694
874,573.0711051106844
875,573.1820175635504
876,573.2870322164008
877,573.3826943606664
878,573.4664588215965
879,573.5365612844612
880,573.5918134282394
881,573.6314022864213
882,573.6547663147704
883,573.6615919376843
884,573.6519389648447
885,573.6264633270848
886,573.5866629913722
887,573.5350472165583
888,573.4751421744538
889,573.4112954285856
890,573.3483032901662
891,573.2909316875958
892,573.2434203714139
893,573.2090546946898
894,573.1898644756194
895,573.1864731106753
896,573.1980900730516
897,573.222630706414
898,573.2569485207204
899,573.2971548064444
900,573.3389751575187
901,573.3780740586643
902,573.4102921794331
903,573.4317891669683
904,573.4391373932556
905,573.4294287783567
906,573.4004281440266
907,573.3507637513368
908,573.2801209140686
909,573.1893963131537
910,573.080760531813
911,572.9575674747001
912,572.8240666118543
913,572.6849277899285
914,572.5446563435121
915,572.4070239690259
916,572.2746477197603
917,572.1488163929919
