frame_number,force
0,730.6453038165381
1,730.6659143857311
2,730.6874828078182
3,730.7093607041833
4,730.7309109468921
5,730.7515231338585
6,730.7706278208223
7,730.7877091502355
8,730.8023154291853
9,730.8140671639173
10,730.8226621320265
11,730.8278773399436
12,730.8295681286315
13,730.8276650713652
14,730.8221694852112
15,730.8131483166572
16,730.8007289380336
17,730.785094116181
18,730.7664771812147
19,730.7451572930562
20,730.7214547079654
21,730.6957260645873
22,730.6683598400911
23,730.6397721372612
24,730.610402785333
25,730.5807114430094
26,730.5511731642241
27,730.5222728842102
28,730.4944984943762
29,730.4683324378602
30,730.44424193517
31,730.4226680310538
32,730.4040137139837
33,730.3886314706845
34,730.3768108059978
35,730.36876641869
36,730.364627810374
37,730.3644311045374
38,730.3681137883675
39,730.3755129687853
40,730.3863675272626
41,730.4003242521866
42,730.4169476858609
43,730.4357331401596
44,730.4561221451909
45,730.4775194997238
46,730.4993111258252
47,730.5208821026652
48,730.5416344544407
49,730.5610043294963
50,730.5784780877864
51,730.5936066461489
52,730.6060173934784
53,730.6154231433951
54,730.621627864611
55,730.624529185344
56,730.6241178077441
57,730.6204739823695
58,730.6137611548837
59,730.60421689538
60,730.5921413088212
61,730.5778833293818
62,730.5618256087522
63,730.5443690150863
64,730.5259178917618
65,730.5068670725962
66,730.4875912840596
67,730.4684371917116
68,730.4497181092327
69,730.4317112415381
70,730.414657169067
71,730.3987610996217
72,730.384195320581
73,730.371102329225
74,730.3595982284793
75,730.3497760509654
76,730.3417087171852
77,730.3354514176358
78,730.331043355004
79,730.3285089329088
80,730.3278585747734
81,730.3290893865375
82,730.3321858467173
83,730.3371206331473
84,730.3438556131313
85,730.3523429801195
86,730.3625265385502
87,730.3743431760798
88,730.3877245332419
89,730.402598755594
90,730.4188920597745
91,730.436529752825
92,730.4554363763536
93,730.4755348266564
94,730.4967445664811
95,730.5189792700829
96,730.5421443602825
97,730.5661349139481
98,730.5908343513578
99,730.6161141924903
100,730.6418349782743
101,730.6678482544136
102,730.6939993333035
103,730.7201304025209
104,730.7460834533025
105,730.7717024980567
106,730.7968346876421
107,730.8213302473579
108,730.8450415380303
109,730.8678218288486
110,730.8895243908481
111,730.9100023048971
112,730.9291090976097
113,730.9467001409976
114,730.962634727729
115,730.9767788027533
116,730.9890083906757
117,730.9992137516281
118,731.0073042531224
119,731.0132138764662
120,731.01690712322
121,731.0183848385522
122,731.017689265757
123,731.0149076391316
124,731.0101737906714
125,731.0036674607533
126,730.9956111936522
127,730.9862648843301
128,730.9759182404046
129,730.9648815937417
130,730.9534756003516
131,730.9420204284867
132,730.9308250851585
133,730.9201775189257
134,730.9103359763475
135,730.9015218183025
136,730.8939138044154
137,730.8876438722766
138,730.8827946036342
139,730.8793986697061
140,730.8774404495713
141,730.8768597755183
142,730.8775575204542
143,730.8794025923124
144,730.8822398560765
145,730.8858985648748
146,730.8902010197157
147,730.8949713079418
148,730.9000439915334
149,730.9052724961964
150,730.9105367788618
151,730.9157497793243
152,730.920862276501
153,730.9258660018202
154,730.9307950593168
155,730.9357257911569
156,730.9407752673462
157,730.9460986286324
158,730.9518855211925
159,730.958355755278
160,730.9657541334722
161,730.9743442541782
162,730.984401091957
163,730.9962022729743
164,731.0100181211258
165,731.0261006928198
166,731.0446721623982
167,731.0659130919773
168,731.0899512592677
169,731.1168517230623
170,731.1466086866786
171,731.1791396101002
172,731.2142820119477
173,731.2517934129643
174,731.2913547494052
175,731.3325772773849
176,731.3750125997703
177,731.4181651363156
178,731.4615062204495
179,731.5044890077675
180,731.5465634145319
181,731.5871903247512
182,731.6258543821915
183,731.6620748970024
184,731.6954147034797
185,731.725487076915
186,731.7519609809019
187,731.7745649911752
188,731.7930902446524
189,731.8073926760081
190,731.8173946535801
191,731.8230859995989
192,731.8245243424348
193,731.8218347726424
194,731.8152087733342
195,731.8049023251687
196,731.7912329986672
197,731.7745758164139
198,731.7553576861135
199,731.7340502216964
200,731.7111608199043
201,731.687222027792
202,731.6627795033581
203,731.638379119146
204,731.6145538853982
205,731.5918113430273
206,731.5706219414493
207,731.5514087724913
208,731.534538952149
209,731.5203168950526
210,731.5089796141964
211,731.5006939660245
212,731.4955555358123
213,731.4935887467983
214,731.4947478366432
215,731.4989185312486
216,731.5059204384507
217,731.5155102740091
218,731.5273860128108
219,731.5411920123296
220,731.5565251542499
221,731.5729420774787
222,731.5899675650398
223,731.6071040869414
224,731.6238424419489
225,731.6396733980642
226,731.6541001667347
227,731.666651446237
228,731.6768946587171
229,731.6844489041047
230,731.6889970863417
231,731.6902966602488
232,731.688188485789
233,731.6826033045604
234,731.6735653590547
235,731.6611927306752
236,731.64569414762
237,731.6273622769041
238,731.6065637668468
239,731.5837264945487
240,731.5593246058788
241,731.5338619970989
242,731.5078548370847
243,731.4818136128315
244,731.456225135187
245,731.4315350415725
246,731.4081315152107
247,731.38633109733
248,731.3663675228049
249,731.3483844132484
250,731.3324324252011
251,731.3184711548323
252,731.3063757897503
253,731.2959481329196
254,731.2869312178547
255,731.2790264535257
256,731.271912243462
257,731.2652632547944
258,731.2587696949348
259,731.2521558699638
260,731.2451970224946
261,731.2377332446381
262,731.2296793195372
263,731.2210296573865
264,731.2118579498414
265,731.2023116507744
266,731.192601794617
267,731.1829889157976
268,731.173765962175
269,731.1652392224805
270,731.1577084891625
271,731.151447882278
272,731.1466888174763
273,731.1436064141033
274,731.1423102153004
275,731.1428395468184
276,731.1451633671797
277,731.1491841966558
278,731.1547456187528
279,731.1616427758643
280,731.1696351331474
281,731.1784605789218
282,731.1878497533262
283,731.197539447862
284,731.2072840425064
285,731.2168642058705
286,731.2260924160468
287,731.2348152417718
288,731.2429127232678
289,731.2502955222697
290,731.2569006908548
291,731.2626869324876
292,731.2676301324393
293,731.2717197406844
294,731.274956311424
295,731.2773501811932
296,731.2789209791385
297,731.2796974832478
298,731.2797172971989
299,731.2790259052879
300,731.2776748226195
301,731.2757187627095
302,731.2732119869775
303,731.27020425655
304,731.266736994621
305,731.2628402721625
306,731.2585310065053
307,731.2538124166708
308,731.2486744955928
309,731.2430951520425
310,731.2370417509179
311,731.2304729936127
312,731.2233413308494
313,731.2155962270183
314,731.2071884814119
315,731.1980755026508
316,731.1882271003731
317,731.17763117358
318,731.166298706214
319,731.1542676682816
320,731.1416056385668
321,731.1284111125627
322,731.114813502717
323,731.1009717956963
324,731.0870717606081
325,731.0733215854173
326,731.0599459210168
327,731.0471785218583
328,731.0352538806081
329,731.0243983363365
330,731.0148210808198
331,731.0067054236725
332,731.0002007210866
333,730.9954154805743
334,730.9924121696824
335,730.9912041061322
336,730.9917545804135
337,730.9939781917869
338,730.9977442916188
339,731.0028823470373
340,731.0091888971374
341,731.0164355976781
342,731.0243777249137
343,731.0327624972986
344,731.0413366526153
345,731.0498528172135
346,731.0580743205452
347,731.0657783190501
348,731.072757402401
349,731.0788201174332
350,731.0837909192708
351,731.087509960487
352,731.0898329821126
353,731.0906314755122
354,731.0897932494556
355,731.0872234777322
356,731.0828461272795
357,731.0766054055557
358,731.0684666692631
359,731.058416216481
360,731.0464595251105
361,731.0326177267517
362,731.0169223597553
363,730.9994087030689
364,730.9801082432109
365,730.9590410386497
366,730.9362088556875
367,730.9115899206886
368,730.8851359992645
369,730.8567723298333
370,730.8264007169442
371,730.7939058145654
372,730.7591643241409
373,730.7220565413731
374,730.68247942737
375,730.6403601803552
376,730.5956692155437
377,730.5484315577111
378,730.4987358404386
379,730.4467402935064
380,730.3926752774531
381,730.3368421544809
382,730.2796086152346
383,730.2214009735811
384,730.1626942632695
385,730.1040010817029
386,730.0458600050315
387,729.9888241615479
388,729.9334503338227
389,729.8802887951172
390,729.8298739104007
391,729.7827153249256
392,729.7392894089198
393,729.7000306245474
394,729.6653226335961
395,729.6354891941473
396,729.6107851237715
397,729.5913877879624
398,729.5773896737711
399,729.5687925997545
400,729.5655039810608
401,729.5673353630622
402,729.5740032778313
403,729.5851324591139
404,729.6002615443161
405,729.6188514681537
406,729.6402966966062
407,729.6639392487913
408,729.6890851989599
409,729.7150231437798
410,729.7410439747084
411,729.7664611448421
412,729.7906304478544
413,729.8129682473165
414,729.8329672244506
415,729.8502089992948
416,729.8643732732679
417,729.8752433860349
418,729.8827084113618
419,729.8867621137558
420,729.8874991751682
421,729.8851090628442
422,729.8798678061117
423,729.872127846805
424,729.8623060535133
425,729.8508699718592
426,729.8383224871943
427,729.8251853421468
428,729.8119822945062
429,729.7992229370092
430,729.7873881905047
431,729.7769182439148
432,729.7682033942425
433,729.761577976431
434,729.7573174040356
435,729.7556382143356
436,729.7567008550925
437,729.7606147665138
438,729.7674451824445
439,729.7772210529522
440,729.7899435460762
441,729.8055946747061
442,729.8241457031405
443,729.8455650910697
444,729.8698257615366
445,729.8969113975968
446,729.9268213630814
447,729.959573848329
448,729.9952070065099
449,730.0337780669511
450,730.0753605466457
451,730.1200396795375
452,730.1679061200367
453,730.2190479873417
454,730.2735414812033
455,730.3314405606628
456,730.3927663910167
457,730.4574973560391
458,730.5255604553863
459,730.59682492845
460,730.6710989350714
461,730.7481299754268
462,730.8276093806287
463,730.9091807117389
464,730.9924514135315
465,731.0770066978441
466,731.1624244199263
467,731.2482896615924
468,731.3342078537452
469,731.4198155492885
470,731.504788311998
471,731.5888454805543
472,731.6717517324091
473,731.7533154815404
474,731.833384330638
475,731.9118381224147
476,731.9885805329457
477,732.0635304812214
478,732.1366147359264
479,732.2077628649764
480,732.2769051066464
481,732.3439730451222
482,732.40890244101
483,732.4716373489066
484,732.5321346638244
485,732.5903683407382
486,732.6463327090576
487,732.70004455546
488,732.7515438700486
489,732.8008932428521
490,732.8481759025633
491,732.8934924344179
492,732.9369563649799
493,732.9786889976627
494,733.0188139849225
495,733.0574520442311
496,733.0947160330015
497,733.1307064366696
498,733.165507254104
499,733.1991822656786
500,733.2317717334406
501,733.2632896821921
502,733.2937219635872
503,733.3230252625103
504,733.3511270813661
505,733.3779265665573
506,733.4032959027282
507,733.4270820300395
508,733.449108685223
509,733.4691790910879
510,733.4870798072948
511,733.502586198115
512,733.5154697392965
513,733.5255071133208
514,733.532490769173
515,733.5362403160985
516,733.5366138484254
517,733.5335182199816
518,733.5269174553268
519,733.5168387850083
520,733.503376076156
521,733.4866906323784
522,733.4670094546798
523,733.4446211012979
524,733.4198692980766
525,733.3931444867553
526,733.3648735696902
527,733.3355081875875
528,733.3055119369101
529,733.2753470078098
530,733.2454608063127
531,733.2162731784177
532,733.1881648100945
533,733.1614672089356
534,733.136454446262
535,733.113336667126
536,733.0922553426245
537,733.0732803518501
538,733.056409158275
539,733.0415684396063
540,733.0286184256792
541,733.0173599220868
542,733.0075436967044
543,732.9988817139837
544,732.9910596293338
545,732.9837499175455
546,732.9766249389075
547,732.9693691915384
548,732.9616900771126
549,732.9533267609243
550,732.9440570232349
551,732.9337022093354
552,732.9221304192494
553,732.9092579973671
554,732.8950493118019
555,732.8795148366557
556,732.8627076558421
557,732.8447186345836
558,732.8256706191141
559,732.8057121009309
560,732.7850107753558
561,732.7637473351577
562,732.7421097499179
563,732.7202882657388
564,732.6984713934852
565,732.6768431323882
566,732.6555815210494
567,732.6348583690367
568,732.6148398491104
569,732.5956876089745
570,732.5775601178024
571,732.5606139564295
572,732.5450046430967
573,732.5308864595692
574,732.5184107631504
575,732.5077224920614
576,732.4989548964913
577,732.4922228276871
578,732.4876151332328
579,732.4851868132203
580,732.4849515663367
581,732.486875209019
582,732.4908702520135
583,732.4967917644977
584,732.5044346214446
585,732.5135323112174
586,732.5237575831901
587,732.5347252198229
588,732.5459970836822
589,732.557089397832
590,732.5674820830561
591,732.5766299251612
592,732.583975310258
593,732.5889621793639
594,732.5910507263535
595,732.5897322459409
596,732.5845434580303
597,732.5750796025275
598,732.5610056433084
599,732.5420650617084
600,732.5180859322845
601,732.4889842050337
602,732.4547643232694
603,732.4155174388804
604,732.3714175120037
605,732.3227155357984
606,732.2697321124732
607,732.2128486862401
608,732.1524978647525
609,732.0891533235794
610,732.0233197020447
611,731.9555226857701
612,731.8862992830544
613,731.8161882676374
614,731.7457208323577
615,731.6754115511585
616,731.6057497599844
617,731.5371915029451
618,731.4701522673631
619,731.405000801512
620,731.3420543120377
621,731.2815752619937
622,731.2237698896921
623,731.1687884990779
624,731.1167275280873
625,731.0676333470144
626,731.0215076475571
627,730.9783141301035
628,730.9379859897507
629,730.9004335181511
630,730.8655510768217
631,730.8332227992095
632,730.8033266058126
633,730.7757363808561
634,730.7503223731784
635,730.726950002893
636,730.7054773035053
637,730.6857512972626
638,730.6676037508907
639,730.6508469255535
640,730.6352699920699
641,730.6206366730169
642,730.6066844507194
643,730.593125468037
644,730.5796491572551
645,730.5659266617009
646,730.5516171600075
647,730.5363761557333
648,730.5198655991039
649,730.5017653702781
650,730.4817852885935
651,730.4596766157938
652,730.4352421129963
653,730.4083440293165
654,730.3789097818957
655,730.3469353921935
656,730.3124869037691
657,730.2757000413606
658,730.2367783548871
659,730.1959900779032
660,730.1536639068447
661,730.1101838206213
662,730.0659828777143
663,730.0215357172539
664,729.9773493913067
665,729.933952245633
666,729.8918808095326
667,729.8516649803784
668,729.8138121300173
669,729.7787910325098
670,729.7470166308118
671,729.7188366076751
672,729.6945205512361
673,729.6742522442719
674,729.6581252592053
675,729.6461416466659
676,729.638213192762
677,729.6341646442072
678,729.6337384982619
679,729.6366012850845
680,729.6423515303505
681,729.6505296752292
682,729.6606301800721
683,729.6721159052325
684,729.6844346496382
685,729.6970374283039
686,729.7093977474557
687,729.7210308922637
688,729.7315121336497
689,729.7404927832799
690,729.747713140147
691,729.7530115353164
692,729.756328906303
693,729.7577086810203
694,729.7572922038252
695,729.7553103252675
696,729.7520719416314
697,729.7479502281016
698,729.7433671913479
699,729.7387770593871
700,729.7346489733397
701,729.7314495018388
702,729.7296256555137
703,729.7295892056491
704,729.7317030567933
705,729.7362701644078
706,729.7435251510884
707,729.7536285124717
708,729.7666631801615
709,729.7826331827717
710,729.8014641398203
711,729.8230053059393
712,729.8470328813542
713,729.8732543386496
714,729.9013135848385
715,729.9307968997388
716,729.9612397755443
717,729.9921349629057
718,730.0229420840411
719,730.0530990273473
720,730.0820350382741
721,730.1091851116339
722,730.1340051087209
723,730.1559869999239
724,730.174673673109
725,730.1896727364746
726,730.2006686903941
727,730.2074328514428
728,730.2098305343675
729,730.2078251757563
730,730.2014792504734
731,730.1909519973827
732,730.1764941580536
733,730.1584401063052
734,730.1371978679961
735,730.1132376107319
736,730.087079219028
737,730.0592795012809
738,730.0304193706468
739,730.001091076996
740,729.9718853684425
741,729.9433784197432
742,729.9161184938563
743,729.8906125315497
744,729.8673130827361
745,729.8466061401813
746,729.8288005199946
747,729.8141194607065
748,729.802695046106
749,729.7945658616608
750,729.7896780039234
751,729.7878892831042
752,729.7889762780009
753,729.7926438074653
754,729.7985363231397
755,729.8062506958008
756,729.8153498611325
757,729.825376782211
758,729.8358681669557
759,729.8463673940225
760,729.8564361937032
761,729.8656647609563
762,729.8736800541349
763,729.8801520454564
764,729.8847977344852
765,729.8873828879094
766,729.8877216865143
767,729.8856746398022
768,729.8811452134428
769,729.8740756346176
770,729.8644423555318
771,729.8522516721071
772,729.8375359488691
773,729.820350745181
774,729.8007729313039
775,729.7788997443413
776,729.7548487109727
777,729.7287583941592
778,729.7007899290539
779,729.6711292728901
780,729.6399899910981
781,729.6076162367311
782,729.5742854154056
783,729.5403099527849
784,729.5060376297336
785,729.4718501013685
786,729.4381594468583
787,729.4054028909738
788,729.3740361483793
789,729.3445260564345
790,729.3173431583762
791,729.2929546543538
792,729.2718177814365
793,729.2543734016973
794,729.2410394796474
795,729.2322042085902
796,729.2282187157595
797,729.2293894468171
798,729.2359704653037
799,729.2481560134681
800,729.2660737681426
801,729.2897792665331
802,729.3192519499123
803,729.3543931666513
804,729.3950262953995
805,729.4408989272254
806,729.4916868442734
807,729.5469994121112
808,729.6063859765087
809,729.6693429060707
810,729.7353210393046
811,729.8037334434756
812,729.8739635032432
813,729.9453733946726
814,730.0173129880988
815,730.0891291820557
816,730.1601755982296
817,730.2298224831247
818,730.2974666158791
819,730.3625410509538
820,730.424524606001
821,730.482951043649
822,730.5374177907084
823,730.5875938118752
824,730.6332260855195
825,730.6741441780509
826,730.7102626423025
827,730.7415812010227
828,730.7681828134953
829,730.7902297716803
830,730.8079579604545
831,730.8216693686645
832,730.8317229174108
833,730.8385237355353
834,730.8425111375064
835,730.844145685301
836,730.843895811389
837,730.8422245369266
838,730.8395768277321
839,730.8363680798226
840,730.8329741400036
841,730.8297232061253
842,730.8268899322278
843,730.8246920208853
844,730.8232894692372
845,730.8227864753026
846,730.8232358504144
847,730.8246456380862
848,730.8269875373861
849,730.8302067076687
850,730.8342325654263
851,730.8389901575827
852,730.844411503447
853,730.8504459892783
854,730.8570686854725
855,730.864285529463
856,730.8721346935598
857,730.8806840042548
858,730.8900248287064
859,730.9002632529839
860,730.9115095851721
861,730.9238672751634
862,730.9374223320835
863,730.9522342431553
864,730.9683291954954
865,730.9856960576864
866,731.0042851706306
867,731.0240096482129
868,731.0447486638509
869,731.0663520964328
870,731.0886459309835
871,731.1114379801085
872,731.1345237590326
873,731.1576925408089
874,731.1807336017498
875,731.2034424847229
876,731.2256269267626
877,731.2471120369655
878,731.267744366961
879,731.2873946133889
880,731.3059587678205
881,731.3233575833965
882,731.3395343093932
883,731.3544508088827
884,731.3680824222484
885,731.3804121942093
886,731.3914252279955
887,731.4011038950556
888,731.4094244352573
889,731.4163552174857
890,731.4218566744478
891,731.4258827223701
892,731.4283833419985
893,731.429307930443
894,731.428609027911
895,731.4262460763202
896,731.4221889546556
897,731.4164211043229
898,731.4089420826328
899,731.399769404008
900,731.3889395651922
901,731.3765081530499
902,731.3625488855641
903,731.3471514132997
904,731.3304177856066
905,731.3124576644182
906,731.2933825915779
907,731.2732998103813
908,731.2523062500186
909,731.2304832629261
910,731.2078925471831
911,731.184573445543
912,731.1605416061651
913,731.1357888957773
914,731.110284449502
915,731.0839767499194
916,731.0567966129285
