acceleration,velocity,displacement
-0.0025234372821064215,0.0,0.0
-0.0026537592516126278,-1.2942991334297623e-06,-3.235747833574406e-10
-0.002779458584610667,-2.652603592485586e-06,-1.3103004648362778e-09
-0.002900544223062311,-4.072604294403831e-06,-2.991602436558632e-09
-0.0030170706873007503,-5.552008021994596e-06,-5.397755515658239e-09
-0.0031291314434391156,-7.088558554679562e-06,-8.557897159826779e-09
-0.003236852234273554,-8.68005447410773e-06,-1.2500050417023601e-08
-0.0033403845182058012,-1.032436366222757e-05,-1.7251154951107425e-08
-0.0034398991724468634,-1.2019434584890736e-05,-2.2837104512887e-08
-0.0035355806203536985,-1.3763304533090877e-05,-2.9282789292382403e-08
-0.0036276215267372104,-1.5554105069863604e-05,-3.6612141693121025e-08
-0.0037162181582696976,-1.739006499111533e-05,-4.484818420836576e-08
-0.003801566435568625,-1.926951113957491e-05,-5.4013078241038327e-08
-0.003883858637047163,-2.1190867407728857e-05,-6.412817287786426e-08
-0.003963280678328557,-2.3152652236572787e-05,-7.521405278893967e-08
-0.004040009890195951,-2.5153474878703914e-05,-8.729058456775885e-08
-0.004114213241681273,-2.719203066167322e-05,-1.0037696095285313e-07
-0.004186045985996285,-2.926709546859261e-05,-1.1449174248541958e-07
-0.004255650731814227,-3.137751964804524e-05,-1.2965289626457905e-07
-0.0043231569516143376,-3.352222156890238e-05,-1.4587783156881595e-07
-0.004388680927934546,-3.5700181038789605e-05,-1.6318343222073895e-07
-0.0044523261109203705,-3.7910432798503336e-05,-1.8158608568006217e-07
-0.0045141838317763455,-4.0152060284177516e-05,-2.0110170895073238e-07
-0.0045743343071914,-4.242418981891945e-05,-2.217457714765066e-07
-0.004632847890037516,-4.472598536822668e-05,-2.4353331527329313e-07
-0.00468978656069306,-4.705664398090932e-05,-2.6647897261057715e-07
-0.0047452056835795,-4.941539204197746e-05,-2.9059698161629887e-07
-0.004799156050878868,-5.180148247559205e-05,-3.1590120024569125e-07
-0.0048516862016830834,-5.421419303873254e-05,-3.424051191242724e-07
-0.0049028449644925205,-5.665282583027644e-05,-3.701218738415247e-07
-0.004952684145193153,-5.911670810769786e-05,-3.990642573260183e-07
-0.0050012612728275,-6.160519446220302e-05,-4.292447329684935e-07
-0.0050486423101891355,-6.411767035795718e-05,-4.606754491735336e-07
-0.005094904224626886,-6.66535569916612e-05,-4.933682560109382e-07
-0.00514013729522251,-6.921231737162354e-05,-5.273347246017594e-07
-0.005184447015434646,-7.179346344928783e-05,-5.625861698069873e-07
-0.0052279554453413465,-7.439656406448182e-05,-5.991336766854297e-07
-0.005270801876519816,-7.702125339494711e-05,-6.36988131050287e-07
-0.00531314269166104,-7.966723953699233e-05,-6.761602542832719e-07
-0.005355150329073958,-8.233431279217607e-05,-7.16660642365564e-07
-0.005397011303304563,-8.502235320027071e-05,-7.584998088636756e-07
-0.005438923289128274,-8.773133684837892e-05,-8.01688231375838e-07
-0.00548109133718573,-9.046134050495741e-05,-8.462364007141721e-07
-0.0055237233411127825,-9.321254417453204e-05,-8.921548718840445e-07
-0.0055670249125620835,-9.598523123795075e-05,-9.394543157371652e-07
-0.005611193841817313,-9.87797859265456e-05,-9.881455700282892e-07
-0.0056564143222320555,-0.00010159668796755794,-1.0382396885018152e-06
-0.005702851094881574,-0.00010443650432183635,-1.0897479865741637e-06
-0.005750643642558365,-0.00010729987800619634,-1.142682082156172e-06
-0.0057999005544712755,-0.00011018751405545376,-1.1970539301715846e-06
-0.005850694201569731,-0.00011310016274446401,-1.252875849371564e-06
-0.005903055886861389,-0.00011603860026657179,-1.310160540124323e-06
-0.005956971638283607,-0.00011900360714785804,-1.3689210919779306e-06
-0.0060123787843508235,-0.00012199594475351666,-1.4291709799532743e-06
-0.006069163406353743,-0.0001250163303011928,-1.4909240487169515e-06
-0.006127158715970397,-0.00012806541083177383,-1.5541944840001931e-06
-0.006186144378919814,-0.0001311437366054964,-1.6189967708595106e-06
-0.0062458467955313485,-0.00013425173439910918,-1.685345638610662e-06
-0.006305940346530174,-0.00013738968118462457,-1.7532559925065954e-06
-0.006366049603935185,-0.0001405576786722409,-1.8227428324708117e-06
-0.006425752484632009,-0.0001437556291943827,-1.8938211594374677e-06
-0.006484584284129277,-0.00014698321338657303,-1.9665058700827065e-06
-0.006542042472415851,-0.00015023987007570933,-2.040811640948277e-06
-0.0065975920786001275,-0.00015352477871346333,-2.11675280314557e-06
-0.006650671462673382,-0.00015683684459878171,-2.1943432089736313e-06
-0.006700698288360502,-0.0001601746870365402,-2.273596091882462e-06
-0.00674707555969085,-0.00016353663049855304,-2.354523921266235e-06
-0.006789197634529114,-0.00016692069879710802,-2.4371382535901504e-06
-0.006826456159165897,-0.00017032461224553177,-2.5214495813508104e-06
-0.006858245885906266,-0.0001737457877567998,-2.607467181351393e-06
-0.006883970356920952,-0.00017718134181750661,-2.69519896374497e-06
-0.006903047462323531,-0.00018062809627231773,-2.784651323267426e-06
-0.006914914892832687,-0.0001840825868611068,-2.875828994050782e-06
-0.006919035499583241,-0.00018754107445921077,-2.9687349093808615e-06
-0.006914902556801414,-0.00019099955897330692,-3.063370067738991e-06
-0.00690204491234392,-0.00019445379584059324,-3.159733406442466e-06
-0.006880032005996547,-0.00019789931507017836,-3.257821684170159e-06
-0.006848478724913456,-0.00020133144275290586,-3.3576293736259302e-06
-0.0068070500461240606,-0.00020474532494566523,-3.459148565550573e-06
-0.006755465396746405,-0.00020813595380638286,-3.562368885238585e-06
-0.006693502651785768,-0.0002114981958185159,-3.66727742264481e-06
-0.006621001689372844,-0.00021482682190380556,-3.77385867707539e-06
-0.006537867432864305,-0.00021811653918436485,-3.8820945173474326e-06
-0.006444072325850918,-0.00022136202412404365,-3.991964158174534e-06
-0.006339658204306282,-0.00022455795675658296,-4.103444153394691e-06
-0.006224737542685122,-0.00022769905569333082,-4.21650840650717e-06
-0.006099494053962935,-0.00023078011359249284,-4.331128198828626e-06
-0.005964182624098612,-0.00023379603276200823,-4.447272235417251e-06
-0.0058191285721022595,-0.00023674186056105845,-4.564906708748018e-06
-0.005664726252130711,-0.0002396128242671167,-4.683995379955062e-06
-0.005501437043620579,-0.00024240436509105452,-4.804499677294605e-06
-0.005329786795550066,-0.00024511217105084717,-4.9263788113300806e-06
-0.005150362792042324,-0.00024773220844774525,-5.049589906204729e-06
-0.004963810284949375,-0.00025026075171699316,-5.174088146245913e-06
-0.004770828604321707,-0.00025269441143931093,-5.2998269370349895e-06
-0.004572166828639764,-0.0002550301602975513,-5.426758079969205e-06
-0.004368618983741439,-0.00025726535675064656,-5.5548319592312546e-06
-0.004161018741329735,-0.0002593977661819144,-5.683997739964395e-06
-0.003950233601408634,-0.000261425579267599,-5.814203576326773e-06
-0.0037371585668988577,-0.00026334742730967585,-5.945396827971091e-06
-0.0035227093501920344,-0.0002651623942889486,-6.077524283370747e-06
-0.0033078151846587275,-0.00026687002542266126,-6.21053238829865e-06
-0.003093411344204463,-0.00026847033205487707,-6.344367477668034e-06
-0.0028804314981064733,-0.0002699637927654548,-6.478976008873117e-06
-0.0026698000440738175,-0.0002713513506509999,-6.614304794727231e-06
-0.002462424563758284,-0.0002726344068029579,-6.75030123409072e-06
-0.002259188523560523,-0.0002738148100747876,-6.886913538310156e-06
-0.002060944296124109,-0.0002748948432797088,-7.02409095164878e-06
-0.0018685065179451907,-0.00027587720598322614,-7.161783963964514e-06
-0.0016826457542534696,-0.0002767649940512758,-7.299944513973139e-06
-0.0015040824366624667,-0.00027756167609900475,-7.438526181510709e-06
-0.001333481069086368,-0.000278271066975442,-7.5774843672793206e-06
-0.0011714447367169054,-0.0002788972984268928,-7.716776458629904e-06
-0.0010185099760905848,-0.00027944478710509465,-7.856361980012902e-06
-0.0008751420636235106,-0.00027991820011502317,-7.99620272681793e-06
-0.000741730764772446,-0.00028032241832212217,-8.136262881427216e-06
-0.0006185865719614363,-0.00028066249765630564,-8.276509110421823e-06
-0.0005059374549365429,-0.00028094362866303013,-8.416910642001656e-06
-0.00040392614830525445,-0.00028117109456384057,-8.557439322808373e-06
-0.00031260800553816826,-0.0002813502281023014,-8.698069653474908e-06
-0.0002319494657998188,-0.0002814863674701359,-8.838778802368018e-06
-0.00016182721151897602,-0.00028158481163946563,-8.979546597145419e-06
-0.00010202811913185231,-0.00028165077547212834,-9.120355493923318e-06
-5.225010026520261e-05,-0.0002816893450269776,-9.261190524048095e-06
-1.2103898911957215e-05,-0.00028170543352677187,-9.402039218686532e-06
1.8884128399552872e-05,-0.00028170373846939995,-9.542891511685575e-06
4.12682570597135e-05,-0.0002816887003730351,-9.683739621396184e-06
5.5678704515130456e-05,-0.0002816644636326414,-9.824577912397603e-06
6.281608202999803e-05,-0.0002816348399360051,-9.965402738289765e-06
6.344509423694821e-05,-0.0002816032746419384,-1.010621226693425e-05
5.838761227125212e-05,-0.00028157281646531133,-1.0247006289711064e-05
4.85152587696252e-05,-0.0002815460907475511,-1.0387786016514279e-05
3.4741653259299585e-05,-0.0002815252765195439,-1.0528553858331053e-05
1.8014466508801818e-05,-0.00028151208748960186,-1.066931319933334e-05
-6.925906433930437e-07,-0.00028150775702063554,-1.08100681604609e-05
-2.0387758969275207e-05,-0.0002815130271080387,-1.0950823356493067e-05
-4.0069148005676825e-05,-0.00028152814133478244,-1.1091583648603773e-05
-5.873252120312946e-05,-0.00028155284175208466,-1.123235389437549e-05
-7.53788672329214e-05,-0.00028158636959919365,-1.1373138697213309e-05
-8.902166168220859e-05,-0.00028162746973142244,-1.1513942157045963e-05
-9.869373989785831e-05,-0.00028167439858181744,-1.1654767624124273e-05
-0.00010345374017989956,-0.0002817249354518369,-1.1795617457632686e-05
-0.00010239211487562559,-0.0002817763969156008,-1.1936492790724546e-05
-9.463673205121044e-05,-0.00028182565412733247,-1.207739330348528e-05
-7.935809944297643e-05,-0.000281869152835206,-1.2218317005225913e-05
-5.5774235505911625e-05,-0.0002819029359189432,-1.2359260027414451e-05
-2.3155193645966884e-05,-0.00028192266827623116,-1.2500216428463244e-05
1.917277189455285e-05,-0.000281923663881669,-1.264117801150272e-05
7.1823411010296e-05,-0.00028190091483594275,-1.2782134156182122e-05
0.00013534704575110317,-0.0002818491222217524,-1.2923071665446546e-05
0.00021022746523982825,-0.00028176272859400464,-1.3063974628150485e-05
0.00029687909852285627,-0.000281635951953064,-1.3204824298287252e-05
0.0003956444319666665,-0.0002814628210704416,-1.3345598991543129e-05
0.0005067916713316623,-0.000281237212044617,-1.3486273999821893e-05
0.0006305126767327832,-0.0002809528859576009,-1.3626821524322448e-05
0.0007669212103979926,-0.0002806035274858182,-1.3767210627683303e-05
0.0009160515411028901,-0.00028018278429794296,-1.3907407205629243e-05
0.0010778574546435212,-0.0002796843070490064,-1.404737397846598e-05
0.0012522117186245967,-0.00027910178975568936,-1.4187070502667155e-05
0.001438906030912433,-0.0002784290103183051,-1.4326453202685654e-05
0.0016376514496210253,-0.00027765987094817174,-1.4465475423002273e-05
0.0018480792776973392,-0.00027678843826634214,-1.4604087500305901e-05
0.002069742370692056,-0.00027580898285424477,-1.4742236855586048e-05
0.002302116849741521,-0.0002747160180491364,-1.4879868105811893e-05
0.0025446042210105426,-0.00027350433778144836,-1.5016923194769539e-05
0.0027965339194146697,-0.00027216905324634207,-1.5153341542526486e-05
0.003057166310913415,-0.00027070562818876006,-1.528906021288526e-05
0.003325696208017387,-0.0002691099125590274,-1.5424014098072207e-05
0.0036012569684853554,-0.0002673781742649017,-1.5558136119778188e-05
0.0038829252419979162,-0.00026550712871228086,-1.5691357445522484e-05
0.004169726405240687,-0.0002634939658004712,-1.5823607719150672e-05
0.004460640703185144,-0.0002613363740233647,-1.595481530410663e-05
0.0047546101070052825,-0.0002590325613208171,-1.6084907537942674e-05
0.0050505458951301445,-0.00025658127232028327,-1.621381099635295e-05
0.005347336940197966,-0.00025398180161145123,-1.6341451764835886e-05
0.005643858633484655,-0.0002512340027180306,-1.6467755715918256e-05
0.005938982315507534,-0.0002483382924807825,-1.659264878971796e-05
0.006231585031355883,-0.00024529565064406665,-1.6716057275499174e-05
0.006520559406705358,-0.00024210761453455134,-1.6837908091793827e-05
0.006804823439919477,-0.00023877626882289513,-1.695812906263319e-05
0.007083330011135869,-0.0002353042304601313,-1.7076649187453947e-05
0.007355075913931495,-0.00023169462897886444,-1.7193398902313697e-05
0.007619110229851728,-0.00022795108244291865,-1.7308310330169142e-05
0.007874541902550868,-0.000224077669409818,-1.7421317518132326e-05
0.008120546420273631,-0.00022007889732911188,-1.7532356659817058e-05
0.008356371563051131,-0.0002159596678332807,-1.7641366301107657e-05
0.008581342203335464,-0.00021172523939168406,-1.77482875279139e-05
0.008794864168556515,-0.00020738118779871107,-1.7853064134711498e-05
0.008996427183784277,-0.00020293336496062588,-1.795564277290133e-05
0.009185606909487961,-0.00019838785643730783,-1.8055973078250815e-05
0.009362066077022398,-0.00019375093819068025,-1.8154007776907813e-05
0.009525554716052763,-0.00018902903299241146,-1.8249702769703587e-05
0.009675909473549899,-0.0001842286669450108,-1.834301719468794e-05
0.009813052038744774,-0.0001793564265669371,-1.843391346806593e-05
0.009936986699146562,-0.00017441891688246426,-1.852235730392828e-05
0.010047797052568568,-0.00016942272094453548,-1.860831771338503e-05
0.010145641896825706,-0.00016437436120718692,-1.8691766983922958e-05
0.010230750323389003,-0.00015928026315213323,-1.877268064001279e-05
0.010303416052501953,-0.0001541467215581605,-1.885103738619036e-05
0.010363991056996886,-0.0001489798697807858,-1.89268190340251e-05
0.010412878535881057,-0.0001437856523825663,-1.9000010414565936e-05
0.010450525329120148,-0.000138569801416316,-1.9070599278015655e-05
0.010477413909126437,-0.00013333781660675436,-1.9138576182521422e-05
0.010494054124101497,-0.00012809494959844738,-1.920393437407272e-05
0.010500974888162576,-0.00012284619234538137,-1.926666965955868e-05
0.010498716008248815,-0.00011759626962127853,-1.9326780275050342e-05
0.010487820314681056,-0.00011234963554054606,-1.93842667513408e-05
0.010468826236503666,-0.00010711047390274988,-1.9439131778701623e-05
0.010442260945360738,-0.00010188270210728378,-1.949138007270413e-05
0.010408634177956984,-9.666997832645435e-05,-1.9541018242812566e-05
0.010368432822351403,-9.147571157637725e-05,-1.9588054665288273e-05
0.01032211631235407,-8.630307429270089e-05,-1.9632499361755543e-05
0.010270112830471629,-8.115501700699446e-05,-1.9674363884580466e-05
0.010212816292690295,-7.603428472620398e-05,-1.9713661210013766e-05
0.01015058408688994,-7.094343463130892e-05,-1.9750405639853144e-05
0.010083735554045162,-6.588485472107515e-05,-1.978461271219124e-05
0.010012551219674681,-6.086078302764519e-05,-1.981629912162842e-05
0.009937272785757489,-5.5873327026287145e-05,-1.9845482649141906e-05
0.009858103879815429,-5.092448285989392e-05,-1.987218210161345e-05
0.0097752115408122,-4.601615400473701e-05,-1.9896417260829608e-05
0.009688728411996129,-4.115016901653493e-05,-1.9918208841584927e-05
0.00959875560647765,-3.632829801191648e-05,-1.993757845834204e-05
0.009505366202139277,-3.1552267559762254e-05,-1.995454859973496e-05
0.00940860930693838,-2.682377368249284e-05,-1.9969142610045526e-05
0.009308514621485083,-2.2144492700386976e-05,-1.9981384676641246e-05
0.009205097415343953,-1.7516089691179718e-05,-1.9991299822239138e-05
0.009098363821115384,-1.2940224382064884e-05,-1.999891390075745e-05
0.008988316334081179,-8.418554343265743e-06,-2.0004253595438784e-05
0.008874959388498587,-3.952735412620802e-06,-2.0007346417877755e-05
0.008758304867746624,4.555806514405009e-07,-2.000822070656805e-05
0.008638377397984816,4.804751217873361e-06,-2.0006905623600723e-05
0.008515219277863712,9.093150386835495e-06,-2.0003431148199545e-05
0.008388894907659927,1.3319178933216404e-05,-1.999782806586953e-05
0.008259494591381157,1.7481276307976676e-05,-1.9990127952059233e-05
0.008127137592890615,2.157793435404462e-05,-1.9980363149393727e-05
0.007991974342819487,2.5607712337972145e-05,-1.9968566737720724e-05
0.007854187727347207,2.9569252855513818e-05,-1.9954772496422352e-05
0.007713993437822152,3.346129814680616e-05,-1.993901485867177e-05
0.007571639406520982,3.728270635789194e-05,-1.9921328857545597e-05
0.007427404390293831,4.1032467307095644e-05,-1.990175006412935e-05
0.007281595791618786,4.47097173525738e-05,-1.988031451796443e-05
0.007134546823083226,4.8313753006249304e-05,-1.9857058650374725e-05
0.006986613120238536,5.1844042992079745e-05,-1.9832019201375142e-05
0.006838168895954055,5.530023849612789e-05,-1.980523313100309e-05
0.0066896027275972015,5.868218140201571e-05,-1.9776737526028552e-05
0.006541313087901894,6.198991035589048e-05,-1.9746569503089077e-05
0.00639370376166533,6.522366456828228e-05,-1.9714766109358032e-05
0.00624717931693363,6.838388533793202e-05,-1.968136422188148e-05
0.006102140809491214,7.147121536953824e-05,-1.9646400446704613e-05
0.005958981885820281,7.448649604336611e-05,-1.9609911018851386e-05
0.005818085414189157,7.743076286836847e-05,-1.9571931704123452e-05
0.005679820728258533,8.03052394039804e-05,-1.9532497703555366e-05
0.005544541519585899,8.31113299659415e-05,-1.9491643561212886e-05
0.005412584358669057,8.585061143550524e-05,-1.9449403075862526e-05
0.00528426776097587,8.852482446541646e-05,-1.9405809216887297e-05
0.00515989167002411,9.113586432316647e-05,-1.9360894044690153e-05
0.005039737228691825,9.368577154784545e-05,-1.9314688635722398e-05
0.004924066743270344,9.6176722540836e-05,-1.926722301220023e-05
0.004813123770608919,9.861102016930581e-05,-1.9218526076522695e-05
0.004707133244164931,0.00010099108442299927,-1.916862555037462e-05
0.004606301511099836,0.00010331944311181546,-1.9117547918490916e-05
0.004510816120178329,0.000105598722519635,-1.9065318377083054e-05
0.0044208452075079775,0.00010783163785155657,-1.9011960786990255e-05
0.0043365363732457,0.00011002098324674499,-1.895749763171568e-05
0.004258015010611201,0.00011216962109270921,-1.8901949980630816e-05
0.0041853821207130035,0.00011428047037554026,-1.8845337457763752e-05
0.004118711706520498,0.00011635649383234864,-1.878767821671178e-05
0.004058047875982573,0.0001184006837279744,-1.8728988922321698e-05
0.004003401802151717,0.00012041604614750797,-1.8669284739852827e-05
0.003954748705396005,0.0001224055837743949,-1.8608579332372353e-05
0.003912025051103838,0.00012437227721351986,-1.8546884867125375e-05
0.003875126184741454,0.0001263190650224812,-1.8484212031566375e-05
0.00384390463194733,0.0001282488227266534,-1.8420570059629092e-05
0.0038181692597629435,0.00013016434119958098,-1.8355966768647534e-05
0.003797685427193891,0.0001320683048713202,-1.829040860712981e-05
0.003782176166786995,0.00013396327026981542,-1.8223900713344528e-05
0.0037713243631043564,0.00013585164540228826,-1.8156446984426503e-05
0.0037647758498773267,0.0001377356704555337,-1.8088050155462046e-05
0.003762143329612513,0.00013961740025040614,-1.801871188778556e-05
0.003763011004830423,0.00014149868883401686,-1.7948432865514454e-05
0.0037669397841523333,0.00014338117653126255,-1.7877212899173133e-05
0.0037734728919779246,0.0001452662797002951,-1.7805051035115244e-05
0.003782141680704439,0.0001471551833434657,-1.7731945669354304e-05
0.003792471434466803,0.00014904883662225852,-1.765789466436287e-05
0.00380398697011194,0.0001509479512234032,-1.7582895467401458e-05
0.0038162178789305163,0.0001528530024356638,-1.750694522898669e-05
0.0038287033019780365,0.00015476423273089095,-1.7430040920195052e-05
0.0038409961893058385,0.00015668165760371192,-1.7352179447611402e-05
0.003852667054103216,0.00015860507341456417,-1.727335776485683e-05
0.003863307283273587,0.00016053406699890837,-1.7193572979753463e-05
0.0038725320942275153,0.00016246802684328365,-1.7112822456292915e-05
0.0038799832324847823,0.00016440615567496172,-1.7031103910663355e-05
