frame_number,force
0,730.7048087695244
1,730.6988913048714
2,730.6935350908
3,730.688664580261
4,730.6842006050393
5,730.6800623083702
6,730.6761690234463
7,730.6724420586559
8,730.6688063471897
9,730.6651919178189
10,730.661535148555
11,730.6577797789101
12,730.653877677518
13,730.6497893816319
14,730.6454844357638
15,730.6409415568062
16,730.6361486457749
17,730.6311026568266
18,730.6258093265744
19,730.6202827637197
20,730.6145449019768
21,730.6086248271721
22,730.6025579976927
23,730.5963853800231
24,730.5901525148324
25,730.5839085171996
26,730.5777050053426
27,730.5715949528104
28,730.5656314689933
29,730.559866524692
30,730.5543496470851
31,730.5491266113121
32,730.5442381574288
33,730.5397187649946
34,730.5355955233097
35,730.531887140475
36,730.5286031360222
37,730.5257432593263
38,730.5232971704472
39,730.5212444118248
40,730.5195546871383
41,730.5181884470895
42,730.517097763791
43,730.5162274601806
44,730.5155164500608
45,730.5148992380572
46,730.5143075286422
47,730.5136718998342
48,730.5129235052469
49,730.5119957703494
50,730.5108260430994
51,730.509357151631
52,730.5075388204482
53,730.5053289044373
54,730.5026944134788
55,730.4996123134483
56,730.4960700973587
57,730.492066122866
58,730.4876097126289
59,730.4827210160145
60,730.4774306367764
61,730.4717790427347
62,730.4658157895253
63,730.4595986064166
64,730.4531924001257
65,730.4466682274374
66,730.4401022724635
67,730.4335748488933
68,730.4271694380004
69,730.4209717675379
70,730.4150689300158
71,730.4095485312671
72,730.4044978563643
73,730.4000030421743
74,730.3961482508153
75,730.3930148415302
76,730.3906805401082
77,730.3892186083118
78,730.3886970217932
79,730.3891776710692
80,730.3907156037087
81,730.3933583263458
82,730.3971451827961
83,730.4021068201688
84,730.4082647500663
85,730.4156310088989
86,730.4242079210866
87,730.433987969522
88,730.4449537752572
89,730.4570781816388
90,730.4703244301123
91,730.4846464097284
92,730.499988962877
93,730.5162882369817
94,730.5334720830045
95,730.5514605110305
96,730.5701662177529
97,730.5894952007859
98,730.6093474713499
99,730.629617870321
100,730.6501969837789
101,730.6709721447097
102,730.6918284989563
103,730.7126501066156
104,730.7333210456367
105,730.7537264841202
106,730.7737536942788
107,730.7932929951108
108,730.8122386286135
109,730.8304895873642
110,730.8479504127018
111,730.8645319734666
112,730.88015222311
113,730.894736925568
114,730.9082203399104
115,730.920545857671
116,730.9316665902472
117,730.9415459043323
118,730.9501579022142
119,730.9574878415988
120,730.9635324836437
121,730.968300347594
122,730.9718118421908
123,730.9740992446402
124,730.9752065064474
125,730.9751888759939
126,730.974112337141
127,730.972052872238
128,730.9690955674469
129,730.9653335865017
130,730.960867044106
131,730.9558018131839
132,730.9502483026051
133,730.9443202414337
134,730.9381334983713
135,730.9318049525457
136,730.925451422517
137,730.9191886608096
138,730.9131304283259
139,730.9073876670284
140,730.902067784313
141,730.8972740510965
142,730.8931051043251
143,730.8896545373443
144,730.8870105591573
145,730.8852557060152
146,730.8844665947872
147,730.8847137132964
148,730.8860612436799
149,730.888566909393
150,730.8922818287077
151,730.8972503544636
152,730.9035098852502
153,730.9110906439768
154,730.9200154290083
155,730.9302993473759
156,730.9419495416566
157,730.9549649246243
158,730.9693359363656
159,730.985044333809
160,731.0020630141204
161,731.02035586691
162,731.0398776497045
163,731.0605738859597
164,731.0823807913986
165,731.1052252401302
166,731.1290247875914
167,731.1536877740572
168,731.17911353758
169,731.2051927641777
170,731.2318079962625
171,731.2588343138809
172,731.2861402014105
173,731.313588611371
174,731.3410382300032
175,731.368344934023
176,731.39536340912
177,731.4219488856626
178,731.4479589400327
179,731.4732553095012
180,731.4977056697361
181,731.5211853249001
182,731.5435787640563
183,731.5647810478014
184,731.5846990037726
185,731.6032522230889
186,731.6203738585748
187,731.6360112306327
188,731.650126248608
189,731.6626956536278
190,731.6737110842794
191,731.6831789630711
192,731.6911202023233
193,731.6975697316539
194,731.7025758515713
195,731.7061994168483
196,731.7085128516138
197,731.7095989988134
198,731.7095498094095
199,731.7084648790754
200,731.7064498437961
201,731.7036146544893
202,731.7000717636109
203,731.6959342683566
204,731.6913140608914
205,731.6863200345682
206,731.6810563883456
207,731.6756210641305
208,731.670104346888
209,731.6645876536506
210,731.6591425306212
211,731.6538298658577
212,731.6486993125548
213,731.6437889104709
214,731.6391248932575
215,731.6347216753337
216,731.6305820181058
217,731.6266973768899
218,731.623048426593
219,731.6196057598531
220,731.6163307492017
221,731.6131765641813
222,731.610089332266
223,731.6070094283743
224,731.6038728740831
225,731.6006128250156
226,731.5971611216017
227,731.5934498738915
228,731.5894130464005
229,731.5849880050283
230,731.5801169859596
231,731.574748447355
232,731.5688382678325
233,731.5623507586702
234,731.5552594587296
235,731.5475476855372
236,731.5392088258855
237,731.5302463632434
238,731.5206736526651
239,731.5105134643085
240,731.4997973244825
241,731.4885646875632
242,731.4768619712842
243,731.464741483873
244,731.4522602704393
245,731.4394789113146
246,731.4264603138627
247,731.4132685466932
248,731.399967767749
249,731.3866212932546
250,731.373290843521
251,731.3600359877499
252,731.3469137953608
253,731.3339786841724
254,731.3212824367222
255,731.3088743426014
256,731.2968014242911
257,731.2851087138357
258,731.2738395553603
259,731.2630359041491
260,731.2527385800583
261,731.2429874235328
262,731.2338213048504
263,731.2252779511767
264,731.2173935766184
265,731.2102023222885
266,731.2037355315808
267,731.1980208971879
268,731.1930815221481
269,731.1889349428185
270,731.1855921705941
271,731.1830568181852
272,731.1813243785357
273,731.1803817155874
274,731.1802068064095
275,731.1807687489811
276,731.182028027854
277,731.1839370172995
278,731.1864406966627
279,731.1894775487556
280,731.1929806048198
281,731.1968785896877
282,731.2010971122445
283,731.2055598436036
284,731.2101896306356
285,731.21490950391
286,731.2196435539349
287,731.2243176667477
288,731.2288601279715
289,731.2332021194416
290,731.2372781407622
291,731.2410263894134
292,731.2443891288881
293,731.2473130658368
294,731.2497497448794
295,731.2516559555077
296,731.2529941328255
297,731.2537327261354
298,731.2538465080332
299,731.2533168008604
300,731.2521316050359
301,731.2502856235249
302,731.2477801881168
303,731.2446231052238
304,731.2408284478589
305,731.2364163210966
306,731.2314126186349
307,731.2258487728575
308,731.2197614883837
309,731.213192444683
310,731.2061879572343
311,731.1987985968428
312,731.1910787785818
313,731.1830863380727
314,731.1748821081948
315,731.1665294958435
316,731.1580940438502
317,731.1496429553521
318,731.1412445598601
319,731.1329677093036
320,731.1248811027
321,731.1170525452513
322,731.1095481500498
323,731.1024314890067
324,731.0957626966825
325,731.0895975301225
326,731.0839863925116
327,731.078973337922
328,731.0745950837202
329,731.0708800606405
330,731.067847527629
331,731.0655067751313
332,731.063856441829
333,731.062883973921
334,731.0625652558609
335,731.0628644336531
336,731.063733940478
337,731.0651147255815
338,731.0669366822394
339,731.0691192657378
340,731.071572284721
341,731.0741968400789
342,731.0768863786969
343,731.0795278277433
344,731.0820027776839
345,731.0841886857323
346,731.0859600758333
347,731.0871897200415
348,731.0877497994654
349,731.0875130542503
350,731.0863539349576
351,731.084149762864
352,731.0807818997786
353,731.0761369235361
354,731.0701078036973
355,731.0625950693769
356,731.0535079533167
357,731.0427654847291
358,731.0302974948598
359,731.0160454987251
360,730.9999634233585
361,730.982018163729
362,730.9621899596781
363,730.940472599631
364,730.9168734689924
365,730.8914134716036
366,730.8641268585512
367,730.8350609982992
368,730.8042761171149
369,730.771845031612
370,730.737852886408
371,730.7023968987228
372,730.6655860992862
373,730.6275410471836
374,730.588393486066
375,730.548285901658
376,730.50737093897
377,730.4658106436015
378,730.423775501688
379,730.3814432630821
380,730.3389975418777
381,730.2966262001964
382,730.2545195373677
383,730.2128683255066
384,730.1718617479581
385,730.1316853027822
386,730.0925187283733
387,730.0545339976838
388,730.0178934175414
389,729.982747861594
390,729.949235156683
391,729.9174786319276
392,729.8875858313828
393,729.8596473892895
394,729.8337360718261
395,729.8099059974147
396,729.7881920555297
397,729.768609549484
398,729.7511540904271
399,729.7358017664625
400,729.7225096018208
401,729.711216308748
402,729.7018433246461
403,729.6942961233625
404,729.6884657911057
405,729.6842308585051
406,729.6814593756583
407,729.6800112060745
408,729.6797405023738
409,729.6804983161293
410,729.6821352869628
411,729.6845043489204
412,729.687463384528
413,729.6908777539046
414,729.6946226331787
415,729.6985851108196
416,729.7026660054979
417,729.7067813822243
418,729.7108637563325
419,729.714862986337
420,729.7187468633666
421,729.722501405963
422,729.7261308672299
423,729.7296574595279
424,729.7331208013659
425,729.7365770930536
426,729.7400980349853
427,729.7437695168796
428,729.7476901240211
429,729.7519695191802
430,729.7567267600949
431,729.7620886029941
432,729.768187829234
433,729.7751616209969
434,729.7831500048861
435,729.7922943767493
436,729.8027361139982
437,729.8146152731616
438,729.828069364118
439,729.8432321908672
440,729.860232750454
441,729.8791941847568
442,729.9002327837588
443,729.923457042487
444,729.9489667739263
445,729.9768522752667
446,730.0071935385989
447,730.0400594961005
448,730.0755072958798
449,730.1135816132872
450,730.1543140072471
451,730.1977223297205
452,730.243810192183
453,730.2925664921044
454,730.3439650085091
455,730.3979640862034
456,730.45450643665
457,730.5135190863913
458,730.5749135037653
459,730.63858593451
460,730.7044179753177
461,730.7722774067513
462,730.8420192902134
463,730.9134873105803
464,730.9865153232932
465,731.0609290474628
466,731.1365478367209
467,731.213186457236
468,731.2906568077892
469,731.3687695296932
470,731.4473354708366
471,731.5261669820258
472,731.6050790320219
473,731.6838901334822
474,731.7624230814243
475,731.8405055215705
476,731.917970385091
477,731.99465624244
478,732.0704076350114
479,732.1450754338724
480,732.2185172503378
481,732.2905978927739
482,732.3611898410165
483,732.4301737009438
484,732.4974386031724
485,732.5628825153867
486,732.6264124466591
487,732.687944534225
488,732.7474040137945
489,732.8047250791192
490,732.8598506370912
491,732.9127319668914
492,732.9633282986139
493,733.0116063356129
494,733.0575397492519
495,733.1011086708393
496,733.1422991964004
497,733.1811029120904
498,733.2175164442338
499,733.251541037299
500,733.2831821652304
501,733.3124491852197
502,733.3393550445504
503,733.3639160483315
504,733.3861516894835
505,733.4060845337539
506,733.4237401454961
507,733.4391470406155
508,733.4523366636223
509,733.4633433999498
510,733.4722046428772
511,733.4789609316148
512,733.4836561664732
513,733.4863378947707
514,733.487057649008
515,733.4858713053361
516,733.4828394185301
517,733.4780274867712
518,733.4715061079384
519,733.4633510035374
520,733.453642900158
521,733.4424672684506
522,733.4299139258643
523,733.4160765123634
524,733.4010518497798
525,733.3849391978091
526,733.3678394234869
527,733.3498541049923
528,733.3310845941031
529,733.3116310651205
530,733.2915915817846
531,733.271061215901
532,733.2501312489939
533,733.2288884800699
534,733.2074146515305
535,733.1857859965893
536,733.1640729090319
537,733.1423397401464
538,733.1206447345241
539,733.0990401194935
540,733.07757235703
541,733.0562825532935
542,733.0352070062603
543,733.0143778622563
544,732.9938238480961
545,732.9735710431523
546,732.953643652038
547,732.9340647358283
548,732.9148568632722
549,732.8960426551122
550,732.8776452093359
551,732.8596884053088
552,732.8421970870364
553,732.8251971231077
554,732.8087153387843
555,732.7927793179948
556,732.7774170791087
557,732.7626566355411
558,732.7485254588706
559,732.7350498670322
560,732.7222543612804
561,732.710160932953
562,732.6987883582774
563,732.6881514999131
564,732.6782606364975
565,732.6691208413894
566,732.6607314255165
567,732.6530854489439
568,732.6461692982716
569,732.6399623261356
570,732.634436551549
571,732.6295564192226
572,732.6252786101646
573,732.6215518893581
574,732.6183169762853
575,732.6155064329644
576,732.6130445775262
577,732.6108474434305
578,732.6088228125113
579,732.6068703530606
580,732.6048818910735
581,732.6027418341815
582,732.6003277567518
583,732.5975111456094
584,732.5941583022652
585,732.5901313992795
586,732.585289691219
587,732.5794908791962
588,732.5725926204107
589,732.5644541641386
590,732.5549380884755
591,732.543912109122
592,732.5312509294663
593,732.5168380971795
594,732.5005678269869
595,732.4823467445214
596,732.4620955034115
597,732.4397502275091
598,732.4152637337041
599,732.388606498997
600,732.3597673471725
601,732.3287538431798
602,732.2955923950525
603,732.2603280717805
604,732.2230241493465
605,732.1837613977247
606,732.1426371236458
607,732.0997639901459
608,732.055268642099
609,732.0092901721289
610,731.9619784595154
611,731.9134924069631
612,731.8639980932035
613,731.8136668591808
614,731.762673349865
615,731.7111935368453
616,731.6594027478301
617,731.6074737308533
618,731.5555747842035
619,731.5038679856848
620,731.4525075540611
621,731.4016383709198
622,731.3513946851915
623,731.30189901776
624,731.253261279739
625,731.2055781135101
626,731.15893245933
627,731.1133933411458
628,731.0690158535713
629,731.0258413213475
630,730.9838975975088
631,730.9431994688069
632,730.9037491450198
633,730.8655368186265
634,730.8285412890385
635,730.7927306491036
636,730.7580630320873
637,730.7244874189013
638,730.6919445108008
639,730.6603676792105
640,730.629684006047
641,730.5998154222954
642,730.5706799421008
643,730.5421929798682
644,730.5142687338084
645,730.4868216210548
646,730.4597677521343
647,730.433026431301
648,730.4065216614623
649,730.38018361848
650,730.3539500446325
651,730.327767503867
652,730.30159244753
653,730.2753920557244
654,730.2491448388904
655,730.2228410002426
656,730.1964825692073
657,730.1700833197939
658,730.1436684892795
659,730.1172743140218
660,730.0909474001063
661,730.0647439443718
662,730.0387288146463
663,730.012974489801
664,729.9875598567778
665,729.9625688665889
666,729.9380890627676
667,729.9142100106262
668,729.8910216709793
669,729.868612773861
670,729.8470692523457
671,729.8264727931735
672,729.8068995516745
673,729.788419065148
674,729.771093381465
675,729.7549764000111
676,729.7401134060478
677,729.72654077423
678,729.7142858240979
679,729.7033668235393
680,729.6937931463067
681,729.6855655921858
682,729.6786768747677
683,729.6731122746401
684,729.668850445309
685,729.6658643450091
686,729.6641222526347
687,729.6635888149605
688,729.6642260676522
689,729.6659943740992
690,729.6688532320215
691,729.6727619061373
692,729.6776798564753
693,729.6835669489282
694,729.6903834564483
695,729.6980898782356
696,729.7066466130176
697,729.7160135218254
698,729.7261494114196
699,729.7370114655737
700,729.7485546497566
701,729.7607311178211
702,729.7734896566913
703,729.7867752108018
704,729.8005285253541
705,729.8146859352412
706,729.8291793104727
707,729.8439361560911
708,729.8588798578207
709,729.8739300622038
710,729.889003178271
711,729.9040129855138
712,729.9188713313337
713,729.9334889011742
714,729.9477760462198
715,729.9616436577371
716,729.975004084279
717,729.9877720951572
718,729.9998658953264
719,730.0112081897062
720,730.021727281166
721,730.0313581724563
722,730.0400436345247
723,730.0477352033399
724,730.0543940701496
725,730.0599918308839
726,730.0645110595319
727,730.0679456725214
728,730.0703010586963
729,730.0715939597154
730,730.0718520955504
731,730.0711135395817
732,730.0694258586009
733,730.0668450431895
734,730.0634342616104
735,730.059262475981
736,730.054402962905
737,730.0489317791297
738,730.0429262047647
739,730.0364631854908
740,730.0296177867247
741,730.022461671008
742,730.0150616155177
743,730.0074780963588
744,729.9997639752492
745,729.9919633295337
746,729.9841104686127
747,729.9762291791463
748,729.9683322361691
749,729.9604212059586
750,729.9524865507485
751,729.9445080300085
752,729.9364553820416
753,729.9282892625685
754,729.9199624115454
755,729.9114210153722
756,729.9026062288794
757,729.8934558188204
758,729.8839058876928
759,729.8738926356383
760,729.8633541209158
761,729.8522319842157
762,729.840473104731
763,729.8280311560014
764,729.8148680314712
765,729.8009551168101
766,729.7862743964619
767,729.7708193908885
768,729.7545959259938
769,729.7376227385589
770,729.719931923915
771,729.7015692347737
772,729.6825942401763
773,729.6630803487624
774,729.6431146936262
775,729.6227978722994
776,729.6022435369606
777,729.5815778339966
778,729.5609386950639
779,729.5404749825983
780,729.520345490646
781,729.5007177968881
782,729.4817669566131
783,729.4636740281876
784,729.4466244237665
785,729.4308060876292
786,729.4164075165328
787,729.4036156510872
788,729.3926136822002
789,729.3835788270561
790,729.3766801292757
791,729.3720763268549
792,729.3699138150135
793,729.3703247176413
794,729.3734250755928
795,729.3793131622924
796,729.3880679431722
797,729.3997477012441
798,729.4143888549949
799,729.4320049973384
800,729.4525861856188
801,729.4760985116598
802,729.5024839766344
803,729.5316606876103
804,729.5635233813044
805,729.5979442673896
806,729.6347741714953
807,729.6738439496127
808,729.7149661415829
809,729.757936831007
810,729.8025376818185
811,729.8485381263711
812,729.8956976830813
813,729.9437683818829
814,729.9924972740678
815,730.0416290004655
816,730.0909083882747
817,730.1400830430639
818,730.1889059007807
819,730.2371377067271
820,730.2845493933204
821,730.3309243317015
822,730.3760604293058
823,730.4197720373544
824,730.4618916268888
825,730.5022711967401
826,730.5407833899034
827,730.5773223082806
828,730.6118040248369
829,730.6441667972908
830,730.6743709897694
831,730.70239870945
832,730.7282531669194
833,730.751957774319
834,730.7735550032669
835,730.7931050322894
836,730.8106842195663
837,730.8263834408464
838,730.8403063339454
839,730.8525674898063
840,730.8632906267711
841,730.8726067822349
842,730.8806525549835
843,730.8875684293142
844,730.8934972063032
845,730.89858255963
846,730.9029677252012
847,730.9067943261739
848,730.9102013291811
849,730.9133241253296
850,730.9162937297461
851,730.9192360908642
852,730.9222714905445
853,730.9255140007471
854,730.9290709513883
855,730.9330423659752
856,730.937520337322
857,730.9425883391833
858,730.9483204932947
859,730.9547808286663
860,730.962022578313
861,730.9700875602055
862,730.9790056877475
863,730.9887946506575
864,730.9994597971083
865,731.0109942315827
866,731.023379123734
867,731.0365842071168
868,731.0505684359531
869,731.0652807630289
870,731.080661002482
871,731.0966407487678
872,731.1131443350815
873,731.1300898233121
874,731.1473900169889
875,731.1649534806675
876,731.1826855413482
877,731.2004892452416
878,731.2182662463101
879,731.2359176080603
880,731.2533445042235
881,731.2704488071868
882,731.2871335575762
883,731.3033033166907
884,731.3188644155864
885,731.3337251270527
886,731.347795794217
887,731.3609889487784
888,731.3732194439402
889,731.3844046158833
890,731.3944644767596
891,731.403321933656
892,731.4109030225085
893,731.4171371434554
894,731.4219572843341
895,731.4253002218029
896,731.4271066938494
897,731.427321540747
898,731.4258938127612
899,731.422776843892
900,731.4179282925163
901,731.4113101497084
902,731.4028887135586
903,731.3926345263557
904,731.3805222744994
905,731.3665306585106
906,731.3506422499329
907,731.332843359979
908,731.3131239488201
909,731.2914776026639
910,731.2679015976511
911,731.2423970576976
912,731.2149692030356
913,731.1856276809065
914,731.1543869685628
915,731.1212668381456
916,731.0862928714162
917,731.0494970101618
918,731.0109181259502
