frame_number,force
0,730.7048087730286
1,730.6988913083599
2,730.6935350942788
3,730.6886645837365
4,730.6842006085179
5,730.6800623118588
6,730.6761690269511
7,730.6724420621828
8,730.6688063507435
9,730.6651919214031
10,730.6615351521731
11,730.6577797825653
12,730.6538776812124
13,730.6497893853665
14,730.6454844395386
15,730.6409415606197
16,730.6361486496249
17,730.6311026607101
18,730.625809330488
19,730.6202827676595
20,730.614544905939
21,730.6086248311526
22,730.6025580016867
23,730.5963853840251
24,730.5901525188364
25,730.5839085211991
26,730.5777050093311
27,730.5715949567808
28,730.5656314729382
29,730.559866528604
30,730.5543496509567
31,730.549126615136
32,730.5442381611981
33,730.5397187687033
34,730.5355955269534
35,730.5318871440513
36,730.5286031395303
37,730.5257432627672
38,730.5232971738235
39,730.5212444151408
40,730.5195546903998
41,730.5181884503032
42,730.5170977669646
43,730.5162274633225
44,730.5155164531795
45,730.5148992411617
46,730.5143075317412
47,730.5136719029359
48,730.5129235083593
49,730.5119957734802
50,730.5108260462562
51,730.5093571548213
52,730.5075388236796
53,730.5053289077174
54,730.5026944168147
55,730.4996123168476
56,730.4960701008288
57,730.4920661264141
58,730.4876097162615
59,730.4827210197374
60,730.477430640594
61,730.4717790466501
62,730.4658157935397
63,730.4595986105292
64,730.4531924043337
65,730.4466682317366
66,730.4401022768476
67,730.4335748533543
68,730.4271694425292
69,730.4209717721245
70,730.4150689346499
71,730.4095485359379
72,730.4044978610605
73,730.4000030468848
74,730.3961482555292
75,730.3930148462375
76,730.3906805448
77,730.3892186129809
78,730.3886970264335
79,730.3891776756759
80,730.3907156082779
81,730.3933583308751
82,730.3971451872845
83,730.4021068246165
84,730.4082647544732
85,730.4156310132653
86,730.4242079254129
87,730.4339879738094
88,730.4449537795066
89,730.4570781858515
90,730.4703244342896
91,730.484646413872
92,730.4999889669889
93,730.516288241064
94,730.5334720870591
95,730.5514605150591
96,730.5701662217576
97,730.5894952047687
98,730.609347475313
99,730.6296178742672
100,730.6501969877115
101,730.6709721486326
102,730.6918285028735
103,730.7126501105311
104,730.7333210495545
105,730.753726488045
106,730.7737536982154
107,730.7932929990645
108,730.8122386325894
109,730.8304895913672
110,730.8479504167361
111,730.8645319775356
112,730.8801522272165
113,730.8947369297141
114,730.9082203440979
115,730.9205458619018
116,730.9316665945231
117,730.9415459086551
118,730.9501579065857
119,730.9574878460204
120,730.9635324881165
121,730.968300352118
122,730.9718118467661
123,730.9740992492656
124,730.9752065111213
125,730.975188880714
126,730.9741123419041
127,730.9720528770396
128,730.9690955722817
129,730.9653335913641
130,730.9608670489902
131,730.9558018180845
132,730.9502483075171
133,730.944320246353
134,730.9381335032944
135,730.9318049574699
136,730.9254514274409
137,730.919188665733
138,730.9131304332499
139,730.9073876719543
140,730.902067789243
141,730.8972740560333
142,730.8931051092725
143,730.8896545423067
144,730.8870105641391
145,730.88525571102
146,730.8844665998178
147,730.8847137183545
148,730.8860612487673
149,730.888566914511
150,730.892281833857
151,730.8972503596449
152,730.9035098904635
153,730.9110906492219
154,730.9200154342849
155,730.9302993526835
156,730.9419495469955
157,730.9549649299943
158,730.9693359417666
159,730.9850443392409
160,731.0020630195824
161,731.020355872401
162,731.039877655223
163,731.0605738915033
164,731.0823807969641
165,731.1052252457141
166,731.1290247931905
167,731.1536877796677
168,731.1791135431981
169,731.2051927697992
170,731.2318080018832
171,731.2588343194965
172,731.2861402070165
173,731.3135886169625
174,731.3410382355755
175,731.3683449395713
176,731.3953634146395
177,731.421948891149
178,731.4479589454818
179,731.4732553149091
180,731.4977056750994
181,731.5211853302155
182,731.5435787693217
183,731.5647810530147
184,731.5846990089319
185,731.6032522281923
186,731.6203738636202
187,731.6360112356176
188,731.6501262535303
189,731.6626956584854
190,731.6737110890701
191,731.6831789677926
192,731.6911202069737
193,731.6975697362311
194,731.7025758560738
195,731.7061994212748
196,731.7085128559634
197,731.7095990030863
198,731.7095498136077
199,731.7084648832018
200,731.7064498478542
201,731.7036146584828
202,731.7000717675434
203,731.6959342722314
204,731.6913140647115
205,731.6863200383365
206,731.6810563920645
207,731.6756210678025
208,731.6701043505155
209,731.6645876572361
210,731.6591425341674
211,731.6538298693677
212,731.6486993160327
213,731.6437889139212
214,731.6391248966845
215,731.6347216787414
216,731.6305820214984
217,731.6266973802724
218,731.6230484299703
219,731.6196057632304
220,731.6163307525845
221,731.6131765675759
222,731.6100893356792
223,731.6070094318133
224,731.6038728775554
225,731.6006128285297
226,731.5971611251662
227,731.593449877514
228,731.5894130500882
229,731.5849880087876
230,731.5801169897962
231,731.5747484512736
232,731.5688382718365
233,731.5623507627615
234,731.5552594629089
235,731.547547689804
236,731.5392088302373
237,731.5302463676765
238,731.5206736571747
239,731.5105134688889
240,731.4997973291271
241,731.4885646922648
242,731.4768619760356
243,731.4647414886666
244,731.4522602752669
245,731.4394789161677
246,731.4264603187324
247,731.4132685515709
248,731.3999677726259
249,731.3866212981219
250,731.3732908483698
251,731.3600359925722
252,731.3469138001492
253,731.333978688921
254,731.3212824414267
255,731.3088743472591
256,731.296801428901
257,731.2851087183973
258,731.273839559874
259,731.263035908616
260,731.2527385844805
261,731.2429874279132
262,731.2338213091922
263,731.2252779554832
264,731.217393580893
265,731.2102023265347
266,731.2037355358025
267,731.1980209013889
268,731.1930815263318
269,731.1889349469878
270,731.1855921747524
271,731.1830568223359
272,731.181324382682
273,731.180381719733
274,731.1802068105588
275,731.1807687531391
276,731.182028032026
277,731.1839370214911
278,731.1864407008796
279,731.1894775530034
280,731.1929806091032
281,731.1968785940106
282,731.2010971166105
283,731.2055598480156
284,731.2101896350954
285,731.2149095084189
286,731.2196435584929
287,731.2243176713528
288,731.2288601326212
289,731.2332021241319
290,731.2372781454877
291,731.2410263941667
292,731.2443891336609
293,731.2473130706201
294,731.2497497496645
295,731.251655960287
296,731.2529941375926
297,731.2537327308844
298,731.2538465127592
299,731.2533168055592
300,731.2521316097047
301,731.2502856281627
302,731.2477801927236
303,731.2446231098003
304,731.2408284524068
305,731.2364163256182
306,731.2314126231324
307,731.2258487773337
308,731.2197614928416
309,731.2131924491256
310,731.206187961664
311,731.1987986012621
312,731.1910787829931
313,731.1830863424786
314,731.1748821125975
315,731.166529500245
316,731.1580940482521
317,731.1496429597563
318,731.1412445642685
319,731.1329677137176
320,731.1248811071206
321,731.1170525496796
322,731.109548154487
323,731.1024314934541
324,731.0957627011412
325,731.0895975345932
326,731.0839863969945
327,731.078973342417
328,731.0745950882276
329,731.0708800651602
330,731.0678475321603
331,731.0655067796735
332,731.0638564463814
333,731.0628839784828
334,731.0625652604311
335,731.0628644382299
336,731.0637339450587
337,731.0651147301629
338,731.0669366868176
339,731.0691192703084
340,731.0715722892799
341,731.0741968446214
342,731.0768863832185
343,731.0795278322398
344,731.0820027821525
345,731.0841886901708
346,731.0859600802405
347,731.0871897244167
348,731.0877498038082
349,731.0875130585603
350,731.086353939235
351,731.0841497671094
352,731.080781903993
353,731.0761369277203
354,731.0701078078517
355,731.0625950735025
356,731.0535079574148
357,731.0427654888022
358,731.0302974989111
359,731.0160455027582
360,730.9999634273771
361,730.9820181677372
362,730.9621899636805
363,730.9404726036327
364,730.9168734729985
365,730.8914134756192
366,730.8641268625811
367,730.8350610023482
368,730.8042761211879
369,730.7718450357141
370,730.7378528905446
371,730.7023969028982
372,730.6655861035041
373,730.6275410514473
374,730.5883934903778
375,730.5482859060197
376,730.5073709433831
377,730.4658106480671
378,730.4237755062071
379,730.3814432676554
380,730.3389975465053
381,730.2966262048776
382,730.2545195421013
383,730.212868330291
384,730.1718617527915
385,730.1316853076626
386,730.0925187332982
387,730.054534002651
388,730.0178934225486
389,729.9827478666383
390,729.9492351617605
391,729.9174786370337
392,729.8875858365121
393,729.8596473944356
394,729.8337360769813
395,729.8099060025705
396,729.7881920606776
397,729.7686095546155
398,729.7511540955344
399,729.7358017715387
400,729.7225096068602
401,729.7112163137456
402,729.7018433295976
403,729.6942961282647
404,729.6884657959561
405,729.6842308633026
406,729.6814593804027
407,729.680011210766
408,729.6797405070132
409,729.6804983207179
410,729.6821352915019
411,729.6845043534117
412,729.6874633889726
413,729.6908777583034
414,729.6946226375322
415,729.6985851151284
416,729.7026660097621
417,729.706781386444
418,729.7108637605073
419,729.7148629904659
420,729.7187468674488
421,729.7225014099978
422,729.7261308712167
423,729.729657463466
424,729.7331208052548
425,729.7365770968931
426,729.7400980387758
427,729.7437695206216
428,729.7476901277151
429,729.7519695228272
430,729.7567267636961
431,729.7620886065511
432,729.7681878327487
433,729.7751616244717
434,729.7831500083231
435,729.7922943801505
436,729.8027361173661
437,729.8146152764983
438,729.8280693674258
439,729.8432321941483
440,729.8602327537108
441,729.8791941879921
442,729.900232786976
443,729.9234570456902
444,729.9489667771205
445,729.9768522784581
446,730.007193541794
447,730.0400594993062
448,730.075507299103
449,730.1135816165353
450,730.1543140105275
451,730.1977223330414
452,730.2438101955528
453,730.2925664955314
454,730.3439650120015
455,730.3979640897684
456,730.4545064402947
457,730.5135190901219
458,730.574913507587
459,730.6385859384267
460,730.7044179793318
461,730.7722774108644
462,730.8420192944264
463,730.913487314893
464,730.9865153277045
465,731.0609290519714
466,731.136547841325
467,731.2131864619333
468,731.2906568125766
469,731.3687695345668
470,731.4473354757919
471,731.5261669870571
472,731.6050790371228
473,731.6838901386457
474,731.7624230866429
475,731.8405055268366
476,731.9179703903966
477,731.9946562477767
478,732.0704076403712
479,732.1450754392482
480,732.2185172557234
481,732.2905978981643
482,732.3611898464069
483,732.43017370633
484,732.4974386085509
485,732.5628825207534
486,732.6264124520111
487,732.6879445395593
488,732.7474040191086
489,732.8047250844114
490,732.8598506423604
491,732.9127319721366
492,732.9633283038345
493,733.0116063408088
494,733.0575397544236
495,733.1011086759872
496,733.1422992015252
497,733.181102917193
498,733.2175164493151
499,733.2515410423605
500,733.2831821702742
501,733.3124491902483
502,733.3393550495656
503,733.3639160533343
504,733.3861516944738
505,733.4060845387306
506,733.4237401504575
507,733.4391470455596
508,733.4523366685472
509,733.4633434048541
510,733.4722046477597
511,733.478960936475
512,733.4836561713109
513,733.486337899586
514,733.4870576538015
515,733.485871310109
516,733.4828394232843
517,733.4780274915096
518,733.4715061126643
519,733.4633510082546
520,733.4536429048701
521,733.4424672731609
522,733.4299139305758
523,733.4160765170793
524,733.4010518545036
525,733.3849392025445
526,733.3678394282379
527,733.3498541097626
528,733.331084598896
529,733.3116310699386
530,733.2915915866298
531,733.2710612207745
532,733.2501312538959
533,733.2288884849999
534,733.2074146564865
535,733.1857860015692
536,733.1640729140327
537,733.1423397451643
538,733.1206447395549
539,733.0990401245318
540,733.0775723620698
541,733.0562825583278
542,733.0352070112824
543,733.0143778672597
544,732.9938238530742
545,732.9735710480995
546,732.9536436569491
547,732.9340647406988
548,732.9148568680982
549,732.8960426598908
550,732.8776452140648
551,732.8596884099865
552,732.8421970916613
553,732.825197127678
554,732.8087153432983
555,732.7927793224513
556,732.7774170835072
557,732.7626566398823
558,732.7485254631562
559,732.7350498712649
560,732.7222543654636
561,732.7101609370914
562,732.698788362376
563,732.6881515039773
564,732.6782606405326
565,732.669120845401
566,732.6607314295112
567,732.6530854529286
568,732.6461693022536
569,732.6399623301226
570,732.6344365555494
571,732.6295564232449
572,732.6252786142175
573,732.6215518934496
574,732.6183169804231
575,732.6155064371552
576,732.6130445817763
577,732.6108474477451
578,732.6088228168945
579,732.6068703575149
580,732.6048818956001
581,732.6027418387803
582,732.6003277614218
583,732.5975111503492
584,732.5941583070733
585,732.5901314041539
586,732.585289696158
587,732.579490884198
588,732.5725926254732
589,732.5644541692601
590,732.5549380936536
591,732.5439121143543
592,732.5312509347507
593,732.5168381025132
594,732.5005678323665
595,732.4823467499427
596,732.46209550887
597,732.4397502329994
598,732.4152637392204
599,732.3886065045331
600,732.3597673527214
601,732.328753848734
602,732.2955924006036
603,732.2603280773196
604,732.2230241548648
605,732.1837614032131
606,732.1426371290964
607,732.0997639955514
608,732.055268647453
609,732.0092901774254
610,731.9619784647493
611,731.91349241213
612,731.8639980982999
613,731.813666864204
614,731.7626733548132
615,731.711193541717
616,731.6594027526243
617,731.6074737355684
618,731.555574788838
619,731.503867990237
620,731.4525075585296
621,731.4016383753038
622,731.351394689491
623,731.3018990219755
624,731.2532612838712
625,731.2055781175595
626,731.1589324632972
627,731.1133933450323
628,731.0690158573796
629,731.0258413250813
630,730.983897601173
631,730.9431994724072
632,730.9037491485624
633,730.8655368221181
634,730.8285412924857
635,730.7927306525131
636,730.7580630354657
637,730.7244874222555
638,730.6919445141376
639,730.6603676825365
640,730.6296840093685
641,730.5998154256183
642,730.5706799454305
643,730.5421929832087
644,730.5142687371632
645,730.4868216244272
646,730.4597677555275
647,730.4330264347171
648,730.4065216649029
649,730.3801836219463
650,730.3539500481259
651,730.3277675073888
652,730.3015924510817
653,730.2753920593076
654,730.249144842506
655,730.222841003891
656,730.1964825728885
657,730.1700833235076
658,730.1436684930246
659,730.1172743177966
660,730.0909474039092
661,730.0647439482008
662,730.0387288184991
663,730.0129744936752
664,729.9875598606714
665,729.9625688704996
666,729.9380890666935
667,729.9142100145659
668,729.8910216749321
669,729.8686127778269
670,729.8470692563258
671,729.8264727971692
672,729.8068995556882
673,729.788419069182
674,729.7710933855211
675,729.7549764040898
676,729.7401134101484
677,729.7265407783505
678,729.7142858282357
679,729.7033668276912
680,729.693793150469
681,729.685565596355
682,729.6786768789403
683,729.673112278813
684,729.6688504494799
685,729.6658643491761
686,729.6641222567962
687,729.6635888191153
688,729.6642260717992
689,729.6659943782377
690,729.66885323615
691,729.6727619102543
692,729.6776798605797
693,729.6835669530194
694,729.6903834605257
695,729.6980898822986
696,729.706646617066
697,729.716013525859
698,729.7261494154383
699,729.737011469578
700,729.7485546537473
701,729.7607311217995
702,729.7734896606585
703,729.786775214759
704,729.8005285293026
705,729.8146859391824
706,729.8291793144085
707,729.8439361600238
708,729.858879861753
709,729.8739300661395
710,729.8890031822141
711,729.9040129894688
712,729.9188713353053
713,729.9334889051669
714,729.9477760502375
715,729.9616436617833
716,729.9750040883567
717,729.9877720992687
718,729.9998658994738
719,730.0112081938913
720,730.0217272853911
721,730.0313581767239
722,730.0400436388375
723,730.0477352076998
724,730.0543940745578
725,730.0599918353405
726,730.0645110640363
727,730.0679456770717
728,730.070301063289
729,730.0715939643453
730,730.0718521002103
731,730.0711135442625
732,730.0694258632919
733,730.0668450478788
734,730.063434266285
735,730.0592624806277
736,730.0544029675118
737,730.0489317836862
738,730.0429262092621
739,730.0364631899221
740,730.0296177910848
741,730.0224616752939
742,730.0150616197283
743,730.0074781004951
744,729.9997639793137
745,729.9919633335307
746,729.9841104725474
747,729.9762291830247
748,729.9683322399978
749,729.9604212097452
750,729.9524865545001
751,729.9445080337318
752,729.9364553857437
753,729.9282892662565
754,729.9199624152265
755,729.9114210190535
756,729.9026062325676
757,729.8934558225212
758,729.8839058914111
759,729.873892639378
760,729.8633541246801
761,729.8522319880067
762,729.8404731085501
763,729.8280311598494
764,729.8148680353482
765,729.8009551207166
766,729.7862744003984
767,729.7708193948565
768,729.7545959299953
769,729.737622742596
770,729.7199319279904
771,729.7015692388893
772,729.682594244333
773,729.6630803529598
774,729.6431146978633
775,729.6227978765751
776,729.6022435412732
777,729.5815778383447
778,729.5609386994469
779,729.5404749870161
780,729.520345495099
781,729.5007178013773
782,729.4817669611401
783,729.4636740327544
784,729.4466244283747
785,729.4308060922798
786,729.4164075212262
787,729.4036156558232
788,729.3926136869776
789,729.383578831873
790,729.3766801341296
791,729.3720763317432
792,729.3699138199331
793,729.3703247225884
794,729.3734250805633
795,729.3793131672816
796,729.3880679481748
797,729.3997477062544
798,729.414388860007
799,729.4320050023459
800,729.4525861906153
801,729.4760985166386
802,729.5024839815887
803,729.5316606925342
804,729.5635233861933
805,729.597944272241
806,729.6347741763084
807,729.673843954388
808,729.7149661463222
809,729.7579368357134
810,729.8025376864958
811,729.8485381310238
812,729.8956976877143
813,729.9437683865015
814,729.9924972786768
815,730.0416290050698
816,730.0909083928788
817,730.1400830476717
818,730.1889059053957
819,730.2371377113519
820,730.2845493979572
821,730.3309243363515
822,730.3760604339694
823,730.4197720420319
824,730.4618916315801
825,730.5022712014446
826,730.5407833946196
827,730.5773223130064
828,730.6118040295709
829,730.6441668020321
830,730.674370994518
831,730.7023987142061
832,730.7282531716831
833,730.7519577790903
834,730.7735550080453
835,730.7931050370736
836,730.8106842243548
837,730.8263834456377
838,730.8403063387381
839,730.852567494599
840,730.8632906315626
841,730.8726067870234
842,730.8806525597669
843,730.88756843409
844,730.893497211068
845,730.8985825643801
846,730.9029677299324
847,730.9067943308817
848,730.9102013338613
849,730.9133241299787
850,730.9162937343609
851,730.9192360954419
852,730.9222714950829
853,730.925514005244
854,730.9290709558425
855,730.9330423703855
856,730.9375203416878
857,730.942588343505
858,730.9483204975727
859,730.9547808329011
860,730.9620225825048
861,730.9700875643551
862,730.979005691856
863,730.9887946547257
864,730.9994598011378
865,731.0109942355756
866,731.0233791276926
867,731.0365842110436
868,731.0505684398511
869,731.0652807669014
870,731.0806610063325
871,731.0966407525999
872,731.1131443388987
873,731.1300898271177
874,731.1473900207862
875,731.16495348446
876,731.1826855451387
877,731.2004892490319
878,731.2182662501015
879,731.2359176118534
880,731.2533445080189
881,731.2704488109844
882,731.2871335613752
883,731.3033033204903
884,731.3188644193864
885,731.3337251308535
886,731.3477957980189
887,731.3609889525821
888,731.3732194477474
889,731.384404619696
890,731.3944644805808
891,731.4033219374892
892,731.4109030263572
893,731.4171371473234
894,731.4219572882247
895,731.4253002257193
896,731.4271066977946
897,731.4273215447231
898,731.42589381677
899,731.4227768479352
900,731.4179282965953
901,731.4113101538244
902,731.4028887177129
903,731.3926345305497
904,731.3805222787341
905,731.3665306627869
906,731.3506422542513
907,731.3328433643392
908,731.3131239532208
909,731.2914776071035
910,731.2679016021275
911,731.2423970622083
912,731.2149692075776
913,731.1856276854763
914,731.1543869731561
915,731.1212668427573
916,731.0862928760406
917,731.0494970147928
