acceleration,velocity,displacement
0.009476918669395169,0.0,0.0
0.007314041154659846,8.395479912027507e-06,4.197739956013753e-09
0.005164494623330891,1.4634747801022876e-05,1.5712853812538946e-08
0.0030447304527735364,1.873936033907509e-05,3.239990788258793e-08
0.0009761977895309348,2.0749824460227327e-05,5.214450028223914e-08
-0.001014926936639482,2.0730459886673054e-05,7.288464245568933e-08
-0.0029003549458329315,1.8772818945436848e-05,9.263628187174428e-08
-0.004654004037490443,1.499563945377516e-05,1.0952051107135029e-07
-0.006256857702466063,9.540208583796906e-06,1.2178843509013632e-07
-0.007701182582624743,2.561188441251502e-06,1.2783913360266052e-07
-0.008993242046376849,-5.786023873249295e-06,1.2622671588666163e-07
-0.010154095686903284,-1.535969273988936e-05,1.156538575800923e-07
-0.011218548254634302,-2.6046014710658155e-05,9.495100385481854e-08
-0.012232642308985539,-3.777160999246808e-05,6.304219150325543e-08
-0.01325009078136723,-5.051297653764446e-05,1.889989823819917e-08
-0.014327772549179944,-6.430190820291806e-05,-3.850754413208209e-08
-0.015520227328016719,-7.922590814151639e-05,-1.102714523042993e-07
-0.016873302448261854,-9.542267302965567e-05,-1.9759574288988533e-07
-0.018417613525692524,-0.00011306813101663287,-3.018411449130296e-07
-0.02016288889604163,-0.00013235838222749993,-4.24554401535096e-07
-0.022094354156344434,-0.00015348700375369297,-5.674770945256925e-07
-0.02417213957307611,-0.00017662025061840325,-7.325307217117405e-07
-0.02633433980352266,-0.00020187349030670264,-9.217775921742935e-07
-0.028503802081093217,-0.00022929256124901056,-1.13736061795215e-06
-0.030597976716245787,-0.00025884345064768006,-1.3814286239004953e-06
-0.03254037654472424,-0.00029041262727816505,-1.656056662863418e-06
-0.0342716159152431,-0.0003238186235081487,-1.963172288256575e-06
-0.035757910791418115,-0.00035883338686147935,-2.304498293441389e-06
-0.03699542404719017,-0.0003952100542807835,-2.6815200140125205e-06
-0.038009732459585735,-0.00043271263253417144,-3.095481357419998e-06
-0.03885064520996045,-0.00047114282136894456,-3.547409084371556e-06
-0.039583422493063354,-0.0005103598552204565,-4.038160422666257e-06
-0.040278011901780895,-0.0005502905724178786,-4.568485636485425e-06
-0.04099810808656916,-0.0005909286324120536,-5.139095238900391e-06
-0.04179165856437179,-0.000632323515737524,-5.75072131297518e-06
-0.042684050229685286,-0.0006745613701345526,-6.404163755911218e-06
-0.04367472099879755,-0.0007177407557487941,-7.100314818852892e-06
-0.04473739984312879,-0.0007619468161697572,-7.840158604812167e-06
-0.04582369665224195,-0.0008072273644174426,-8.624745695105766e-06
-0.04686941191398643,-0.0008535739187005568,-9.455146336664766e-06
-0.04780266928963806,-0.000900909959302369,-1.0332388275666229e-05
-0.04855276855668575,-0.0009490876782255309,-1.1257387094430178e-05
-0.04905862122855362,-0.0009978933731181507,-1.223087762010202e-05
-0.04927588034543605,-0.0010470606239051455,-1.3253354618613667e-05
-0.04918231302444681,-0.0010962897205900868,-1.4325029790861283e-05
-0.04878127047732734,-0.001145271512340974,-1.5445810407326812e-05
-0.048103053916739254,-0.0011937136745380072,-1.6615303000766302e-05
-0.04720374969197536,-0.0012413670763423645,-1.783284337620649e-05
-0.04616116755402152,-0.001288049534965363,-1.9097551681860355e-05
-0.04506801241186071,-0.0013336641249483041,-2.040840851181719e-05
-0.04402302629661282,-0.0013782096443025408,-2.176434539644261e-05
-0.04312118849732295,-0.0014217817516995086,-2.3164341094443635e-05
-0.04244412835529273,-0.0014645644101258166,-2.4607514175356297e-05
-0.04205185909893195,-0.001506812403852929,-2.609320258234567e-05
-0.04197683009811883,-0.0015488267484514544,-2.762102215849786e-05
-0.04222101834472997,-0.0015909256726728787,-2.9190898369060027e-05
-0.04275633251921963,-0.0016334143481048535,-3.0803068379448896e-05
-0.043528144180422126,-0.0016765565864546744,-3.245805384672866e-05
-0.04446141601013412,-0.0017205513665499526,-3.415660782323097e-05
-0.04546863793118106,-0.0017655163935206102,-3.589964170326625e-05
-0.04645854879615174,-0.0018114799868842765,-3.768813989346869e-05
-0.04734447887143382,-0.0018583815007180693,-3.9523070637269865e-05
-0.04805125077960106,-0.0019060793655435867,-4.1405301070400694e-05
-0.04851998453376166,-0.0019543649832002683,-4.333552324477262e-05
-0.04871070031894884,-0.0020029803256266234,-4.531419589918607e-05
-0.04860300094226446,-0.00205163717625723,-4.7341504650127994e-05
-0.048195213452375936,-0.00210003628345455,-4.9417341379983884e-05
-0.047502375050934326,-0.002147885077706205,-5.1541302060564265e-05
-0.04655359217217413,-0.002194913061317759,-5.371270113007625e-05
-0.04538945653748137,-0.002240884585672587,-5.593059995357142e-05
-0.04406003682736703,-0.002285609332355011,-5.8193846912585224e-05
-0.04262344134661868,-0.002328951071442004,-6.050112711448373e-05
-0.04114440193336089,-0.002370834993081994,-6.285102014674573e-05
-0.039692093964789794,-0.002411253241031069,-6.524206426380227e-05
-0.038336570941400964,-0.0024502675734841646,-6.767282467105989e-05
-0.03714365444291016,-0.00248800768617632,-7.014196230089013e-05
-0.03616868312389282,-0.002524663854959722,-7.264829807145815e-05
-0.0354499817878655,-0.002560473187415601,-7.519086659264582e-05
-0.035003146164808825,-0.002595699751391938,-7.776895306204959e-05
-0.03481723588755699,-0.002630609942418121,-8.038210790895462e-05
-0.03485375783708904,-0.002665445439280444,-8.30301355998039e-05
-0.03504892544380644,-0.0027003967809208916,-8.571305670990456e-05
-0.035319110896226365,-0.002735580799090908,-8.843104549991046e-05
-0.03556878139954586,-0.0027710247452387943,-9.118434827207531e-05
-0.035699792819573056,-0.0028066590323483536,-9.397319016086888e-05
-0.03562088200682385,-0.002842319369761552,-9.679767936192383e-05
-0.0352564007738375,-0.0028777580111518826,-9.965771805238055e-05
-0.03455349098056183,-0.002912662957029082,-0.00010255292853647102
-0.03348695028804299,-0.0029466831776633847,-0.00010548260160381725
-0.03206112347091032,-0.0029794572145428614,-0.00010844567179992038
-0.030308454682681434,-0.003010642003619657,-0.00011144072140900163
-0.02828495619841824,-0.003039938709060207,-0.00011446601176534156
-0.02606361452497006,-0.003067112994421901,-0.00011751953761708262
-0.023727216508289274,-0.003092008409938531,-0.00012059909831926284
-0.02136193438983897,-0.003114552985387595,-0.0001237023790169259
-0.019052376406734194,-0.0031347601407858815,-0.00012682703558001263
-0.016878040959795063,-0.003152725349469146,-0.00012997077832514016
-0.014910558857952809,-0.0031686196493780202,-0.00013313145082456373
-0.013210991768036641,-0.003182680424691015,-0.00013630710086159824
-0.011826757593462325,-0.0031951992993717645,-0.00013949604072362962
-0.010788272466849142,-0.00320650681440192,-0.00014269689378051647
-0.010105914015283981,-0.0032169539076429866,-0.00014590862414153892
-0.009768199920380319,-0.003226890964610819,-0.00014913054657766584
-0.009741966316353833,-0.0032366460477291858,-0.00015236231508383583
-0.009974903609623751,-0.0032465044826921747,-0.0001556038903490465
-0.010400348774011633,-0.0032566921088839924,-0.0001588554886448346
-0.010943906140025807,-0.003267364236341011,-0.0001621175168174471
-0.011531243756664929,-0.0032786018112893564,-0.00016539049984126228
-0.012096260727160947,-0.0032904155635312695,-0.00016867500852867258
-0.012588729830490992,-0.0033027580588100955,-0.00017197159533984327
-0.01298042774535815,-0.0033155426375980203,-0.00017528074568804732
-0.013268713359610185,-0.0033286672081505046,-0.00017860285061092158
-0.013476708270653812,-0.0033420399189656364,-0.00018193820417447966
-0.013649758974877503,-0.003355603152588402,-0.00018528702571025667
-0.013848529331509356,-0.003369352296741595,-0.00018864950343492167
-0.014139673310792817,-0.003383346398062746,-0.00019202585278232383
-0.014585509345572992,-0.003397708989390929,-0.00019541638047605066
-0.015234400999053472,-0.0034126189445632424,-0.00019882154444302776
-0.01611352171297825,-0.0034282929059192583,-0.000202242000368269
-0.017225281390331994,-0.0034449623074709135,-0.00020567862797496407
-0.01854796544858121,-0.00346284893089037,-0.0002091325335941447
-0.020040205642631835,-0.0034821430164359768,-0.00021260502956780788
-0.02164801447217563,-0.0035029871264933804,-0.00021609759463927256
-0.023312634922847533,-0.003525467451190892,-0.0002196118219281147
-0.02497758499425666,-0.003549612561149444,-0.00022314936193428486
-0.02659380876820381,-0.003575398258030674,-0.0002267118673438749
-0.0281224211828921,-0.003602756373006222,-0.00023030094465939337
-0.029535020335887976,-0.003631585093765612,-0.0002339181153927793
-0.030811989452763165,-0.003661758598659938,-0.00023756478723899207
-0.03193959227958774,-0.0036931343895261134,-0.0002412422337330851
-0.03290684908829219,-0.0037255576102100535,-0.0002449515797329532
-0.03370309073969819,-0.0037588625801240486,-0.00024869378982812025
-0.034316804041528474,-0.003792872527514662,-0.0002524696573819396
-0.034736050204863936,-0.003827398954637858,-0.0002562797931230158
-0.03495041303498289,-0.0038622421862577814,-0.00026012461369346365
-0.034954073709416625,-0.003897194429629981,-0.0002640043320014075
-0.034749241152795804,-0.003932046087061087,-0.00026791895225975306
-0.03434896780837907,-0.003966595191541675,-0.00027186827289905446
-0.03377853673468318,-0.004000658943813206,-0.0002758518999667319
-0.033075073639346884,-0.004034085749000221,-0.00027986927231313865
-0.032285517932626816,-0.004066766044786208,-0.0002839196982100319
-0.03146331275449264,-0.004098640460129767,-0.00028800240146248986
-0.03066416031302649,-0.004129704196663527,-0.00029211657379088653
-0.02994116871091015,-0.0041600068611754954,-0.000296261429319806
-0.02933988334956936,-0.004189647387205735,-0.00030043625644399663
-0.02889401009143828,-0.004218764333926239,-0.00030464046230456264
-0.02862283169916462,-0.0042475227548215404,-0.00030887360584893654
-0.02853107189853797,-0.004276099706620392,-0.0003131354170796575
-0.0286111667622822,-0.004304670825950802,-0.00031742580234594313
-0.02884693693173203,-0.004333399877797809,-0.0003217448376978174
-0.029217227086000306,-0.004362431959806675,-0.0003260927536166197
-0.029698535932838378,-0.004391889841316094,-0.00033046991451718107
-0.030266559168141804,-0.004421872388866584,-0.0003348767956322724
-0.03089719047131262,-0.004452454263686311,-0.00033931395895854885
-0.03156760354041807,-0.004483686660692177,-0.0003437820294207381
-0.03225778395168348,-0.004515599354438227,-0.0003482816724283033
-0.032952554324749764,-0.004548204523576444,-0.0003528135743673106
-0.03364385581963651,-0.0045815027286486365,-0.00035737842799342314
-0.03433284921817241,-0.004615491081167541,-0.0003619769248983312
-0.035031254537746165,-0.0046501731330455005,-0.00036660975700543777
-0.03576123895008425,-0.004685569379789416,-0.00037127762826185524
-0.03655321717669472,-0.004721726607852805,-0.0003759812762556763
-0.03744131588089404,-0.0047587238743815995,-0.0003807215014967935
-0.03845690188780373,-0.004796672983265949,-0.00038549919992561727
-0.0396211874126359,-0.004835712027916168,-0.0003903153924312083
-0.04093826442725816,-0.004875991753836116,-0.00039517124432208447
-0.042389954377330584,-0.00491765586323841,-0.00040006806813062176
-0.04393369928102938,-0.00496081769006759,-0.00040500730490727476
-0.04550440554652784,-0.005005536742481369,-0.00040999048212354925
-0.04702051988833387,-0.0050517992051988,-0.00041501915009738936
-0.04839358326109165,-0.005099506256773512,-0.00042009480282837554
-0.04953945407826758,-0.005148472775443192,-0.0004252187923444839
-0.05038892557028219,-0.0051984369652674665,-0.00043039224721483924
-0.05089578883754831,-0.0052490793224713814,-0.00043561600535870865
-0.051041212254216865,-0.005300047823017264,-0.000440890568931453
-0.050834244079395206,-0.0053509855511840706,-0.0004462160856185537
-0.05030903807130979,-0.005401557192259423,-0.0004515923569902754
-0.04951980938627959,-0.005451471615988218,-0.00045701887139439925
-0.048534434651485436,-0.005500498738007101,-0.0004624948565713969
-0.04742724337601116,-0.00554847957702085,-0.0004680193457289109
-0.046271362725193346,-0.005595328880071452,-0.00047359124995745706
-0.04513120937343653,-0.0056410301661207665,-0.0004792094294805532
-0.04405610047730889,-0.005685623821046139,-0.00048487275647413666
-0.043076010032691625,-0.005729189876301139,-0.0004905801633228103
-0.04220011371755413,-0.005771827938176263,-0.000496330672230049
-0.04141823571069172,-0.005813637112890385,-0.0005021234047555823
-0.040704888225178405,-0.0058546986748583205,-0.0005079575726494567
-0.04002528488849636,-0.005895063761415158,-0.0005138324538675934
-0.03934246591395524,-0.005934747636816384,-0.0005197473595667092
-0.03862453066011382,-0.005973731135103418,-0.0005257015989526691
-0.03785097654636886,-0.00601196888870666,-0.0005316944489645742
-0.03701730853621583,-0.006049403031247952,-0.0005377251349245514
-0.036137383042665734,-0.006085980377037393,-0.0005437928266286941
-0.03524323746558755,-0.00612167068729152,-0.0005498966521608585
-0.03438226446681451,-0.006156483438257721,-0.0005560357292236332
-0.03361161491500941,-0.006190480377948632,-0.0005622092111317364
-0.032989997711965584,-0.00622378118426212,-0.0005684163419128418
-0.03256775728969567,-0.00625656006176295,-0.0005746565125358542
-0.032376965155743745,-0.00628903242298567,-0.0005809293087782286
-0.03242370776880298,-0.006321432759447943,-0.0005872345413694453
-0.032684417583984667,-0.006353986822124337,-0.0005935722511602315
-0.03310708779250297,-0.006386882574812581,-0.0005999426858586999
-0.03361701086784828,-0.006420244624142757,-0.0006063462494581775
-0.03412576904392881,-0.006454116014098645,-0.0006127834297772983
-0.03454180926270992,-0.006488449803251964,-0.0006192547126859736
-0.03478095980952863,-0.0065231111877880835,-0.0006257604931814936
-0.03477544516635401,-0.006557889390276025,-0.0006323009934705257
-0.0344802659054276,-0.006592517245811916,-0.0006388761967885696
-0.033876350331836405,-0.006626695553930548,-0.0006454858031884409
-0.03297057091791455,-0.006660119014555424,-0.0006521292104726839
-0.03179318835372168,-0.0066925008941912415,-0.0006588055204270572
-0.03039333627976995,-0.006723594156507987,-0.0006655135679524068
-0.028833028515928512,-0.006753207338905836,-0.0006722519687001137
-0.027180196900807252,-0.0067812139516142044,-0.0006790191793453737
-0.025501449828770673,-0.006807554774978994,-0.0006858135637086703
-0.02385538567556623,-0.006832233192731162,-0.0006926334576925254
-0.0222873686747009,-0.006855304569906295,-0.0006994772265738441
-0.02082667201634752,-0.006876861590251819,-0.0007063433096539232
-0.019486648957111653,-0.006897018250738549,-0.0007132302495744183
-0.018268031561349995,-0.00691589559099778,-0.0007201367064952866
-0.017164756086104863,-0.0069336119848215074,-0.0007270614602831962
-0.016171093213667963,-0.006950279909471394,-0.0007340034062303427
-0.015288424481939213,-0.006966009668319198,-0.000740961551019238
-0.014529837925672383,-0.006980918799523004,-0.0007479350152531591
-0.013920995108245167,-0.006995144216039963,-0.0007549230467609406
-0.013496586754657097,-0.007008853006971414,-0.0007619250453724464
-0.013292948822941224,-0.007022247774760213,-0.0007689405957633121
-0.013338546125814374,-0.0070355635222345905,-0.0007759695014118096
-0.013644610114034403,-0.007049055100354515,-0.0007830118107231041
-0.014198132180416115,-0.00706297647150174,-0.0007900678265090322
-0.014958803710646434,-0.0070775549394472715,-0.0007971380922145067
-0.015860528152494852,-0.007092964605378842,-0.0008042233519869198
-0.016816974182215495,-0.007109303356546197,-0.0008113244859678823
-0.01772968123014729,-0.007126576684252379,-0.0008184424259882816
-0.018496987333089666,-0.007144690018533997,-0.0008255780593396748
-0.019022575925042674,-0.007163449800163063,-0.0008327321292490232
-0.019223157133212047,-0.00718257266669219,-0.0008399051404824509
-0.019035159231707014,-0.00720170182487465,-0.0008470972777282344
-0.01842024987195083,-0.007220429529426479,-0.000854308343405385
-0.017369248213368056,-0.007238324278469138,-0.0008615377203093328
-0.015903771581077412,-0.007254960788366361,-0.0008687843628427506
-0.014075059702679856,-0.00726995020400824,-0.0008760468183389379
-0.011959931221536744,-0.007282967699470348,-0.0008833232772906772
-0.009654428183441303,-0.007293774879172837,-0.0008906116485799988
-0.0072659869435044286,-0.00730223508673631,-0.0008979096535629533
-0.0049049448876784234,-0.007308320552651901,-0.0009052149313826474
-0.0026761365508998955,-0.00731211109337119,-0.000912525147205659
-0.0006713231229876035,-0.007313784823208134,-0.0009198380951639486
0.001036944021779434,-0.007313602012758738,-0.000927151788581932
0.002399754994942043,-0.007311883663250377,-0.0009344645314199366
0.0033946029399133833,-0.00730898648428295,-0.0009417749664937033
0.004026586233572004,-0.007305275889696207,-0.0009490820976806928
0.004328017286554295,-0.007301098587936144,-0.000956385284919509
0.004356195964328698,-0.007296756481310703,-0.0009636842124541324
0.004189028396546687,-0.007292483869130265,-0.0009709788326293529
0.003918383988964663,-0.007288430162937509,-0.0009782692896453868
0.0036416186459127388,-0.007284650161620071,-0.0009855558298076657
0.0034523569492784507,-0.007281103173822475,-0.0009928387064753869
0.0034320012871583852,-0.0072776609947042565,-0.0010001180885596502
0.0036431738606641745,-0.0072741234071303455,-0.0010073939807605675
0.004125535099940635,-0.007270239052650043,-0.0010146661619904577
0.00489372485716833,-0.007265729422671488,-0.0010219341462281185
0.005936978922448203,-0.00726031407078168,-0.0010291971679748451
0.007220259573927497,-0.007253735451533493,-0.0010364541927360027
0.008687180439428512,-0.007245781731526815,-0.0010437039513275328
0.010265195948823457,-0.007236305543332689,-0.0010509449949649625
0.011873159839876064,-0.007225236365438339,-0.001058175765919348
0.013430544913833904,-0.007212584513061484,-0.001065394676358598
0.014866909312149958,-0.0071984357859484925,-0.001072600186508103
0.016130059015200336,-0.007182937301784817,-0.0010797908730519697
0.017191744039428858,-0.0071662764002575026,-0.001086965479902991
0.018050291232384906,-0.007148655382621595,-0.0010941229457944305
0.01873007193256121,-0.007130265201039122,-0.001101262406086261
0.019278036913421323,-0.007111261146616131,-0.0011083831692600885
0.019757737235437448,-0.007091743259541702,-0.0011154846714631673
0.020241429071873863,-0.007071743676388046,-0.0011225664149311322
0.020801149789980156,-0.007051222386957119,-0.0011296278979628048
0.021499920591199335,-0.007030071851766529,-0.0011366685450821667
0.022384237914556848,-0.007008129772513651,-0.0011436876458943068
0.023478747585830625,-0.006985198279763458,-0.0011506843099204453
0.02478365811059611,-0.006961067076915245,-0.0011576574425987847
0.026275176890457535,-0.006935537659414718,-0.0011646057449669497
0.027908988005855236,-0.006908445576966561,-0.0011715277365851402
0.029626418586658373,-0.006879677873670304,-0.0011784217983104586
0.03136248445336134,-0.006849183422150295,-0.0011852862289583688
0.03305466414224657,-0.00681697484785249,-0.0011921193080933702
0.03465118408715828,-0.006783121923737788,-0.0011989193564791653
0.03611775359780746,-0.006747737454895306,-0.001205684786168482
0.03744194971796743,-0.006710957603237418,-0.0012124141336975482
0.03863479877223019,-0.006672919228992319,-0.001219106072113663
0.039729509445147,-0.00663373707488363,-0.0012257594002656011
0.04077764316561396,-0.00659348349857825,-0.0012323730105523322
0.04184313995396616,-0.00655217310701846,-0.0012389458388551305
0.04299465203008186,-0.0065097542110264354,-0.001245476802514153
0.044296812288702976,-0.006466108478867043,-0.0012519647338590997
0.045801438414083843,-0.00642105935351565,-0.001258408317775291
0.04754000476685238,-0.006374388631925181,-0.0012648060417680114
0.049518686973337944,-0.006325859286055086,-0.0012711561657270016
0.051716801223081775,-0.006275241541956877,-0.0012774567161410076
