frame_number,force
0,615.9183400002462
1,615.8088824525003
2,615.7002187205981
3,615.5931206673904
4,615.4883173978382
5,615.3864765372005
6,615.288188228368
7,615.19395220595
8,615.1041680703854
9,615.0191287096221
10,614.9390167377924
11,614.8639038368862
12,614.7937529225549
13,614.7284230444769
14,614.6676768918618
15,614.6111907377867
16,614.5585666081349
17,614.509346394664
18,614.463027561723
19,614.4190800046596
20,614.3769634938118
21,614.3361450387492
22,614.296115499535
23,614.2564048592126
24,614.2165957074853
25,614.1763346001769
26,614.1353410073925
27,614.0934135898267
28,614.0504336451608
29,614.00636575886
30,613.9612558740698
31,613.9152270815194
32,613.8684734462241
33,613.8212521786343
34,613.7738744123014
35,613.7266947665022
36,613.6800998178622
37,613.634495633732
38,613.5902946031656
39,613.5479018928693
40,613.5077019457082
41,613.4700455158232
42,613.4352377705299
43,613.4035279731185
44,613.3751011789282
45,613.3500722178862
46,613.3284820563277
47,613.3102965427532
48,613.2954075954324
49,613.2836370025119
50,613.2747430328208
51,613.2684299041381
52,613.2643598426106
53,613.2621671052523
54,613.2614730692754
55,613.2619014069
56,613.2630924465361
57,613.2647159734803
58,613.2664818647779
59,613.2681480917239
60,613.2695258105182
61,613.2704815073955
62,613.270936435365
63,613.2708638251521
64,613.2702845058919
65,613.2692615757367
66,613.2678946366441
67,613.2663139386588
68,613.2646746354457
69,613.2631512328071
70,613.2619321842634
71,613.2612144427562
72,613.2611976519498
73,613.2620776448568
74,613.2640390829351
75,613.2672473543672
76,613.2718400905187
77,613.2779187578336
78,613.2855407915608
79,613.2947127388117
80,613.3053848547704
81,613.3174474950436
82,613.3307295103097
83,613.3449987831328
84,613.3599650723692
85,613.3752853358485
86,613.3905715777668
87,613.4054010493224
88,613.4193284476763
89,613.4318996770284
90,613.4426667360284
91,613.4512033253501
92,613.4571207574152
93,613.4600836504737
94,613.4598247483345
95,613.4561581274257
96,613.448990086989
97,613.4383271330018
98,613.4242805999618
99,613.407067591844
100,613.3870080934088
101,613.3645183034869
102,613.3401004166902
103,613.3143291866882
104,613.2878356727479
105,613.2612886664691
106,613.2353744246551
107,613.2107754360115
108,613.1881489789621
109,613.1681061894539
110,613.1511922683959
111,613.1378683596481
112,613.1284956016399
113,613.1233219313057
114,613.1224723025956
115,613.1259429335075
116,613.133599990806
117,613.1451828722132
118,613.1603120601644
119,613.1785013914225
120,613.1991744218575
121,613.2216843009094
122,613.2453362433802
123,613.269411409002
124,613.2931908566226
125,613.3159782532667
126,613.3371202059664
127,613.3560234430598
128,613.3721685091014
129,613.3851200192593
130,613.3945337832433
131,613.4001612537719
132,613.4018517639149
133,613.3995529044339
134,613.393309258735
135,613.3832596527511
136,613.3696330677719
137,613.3527433234917
138,613.3329825316342
139,613.3108131934164
140,613.2867587537804
141,613.2613924770922
142,613.2353246275552
143,613.2091880499981
144,613.1836223486974
145,613.1592570018418
146,613.1366939396679
147,613.1164903092077
148,613.0991422705582
149,613.085070635544
150,613.0746089504684
151,613.0679943492531
152,613.0653613298122
153,613.066738611228
154,613.0720493338883
155,613.0811149169591
156,613.0936627838124
157,613.1093378920998
158,613.1277176087259
159,613.1483290567021
160,613.1706677779675
161,613.1942165053468
162,613.218463018091
163,613.2429163965813
164,613.2671213605738
165,613.2906705998633
166,613.31321500143
167,613.3344715449698
168,613.3542285711264
169,613.3723482298929
170,613.388766147826
171,613.4034885784565
172,613.4165874128774
173,613.4281934364521
174,613.4384882072665
175,613.4476949361521
176,613.4560687223508
177,613.4638864023038
178,613.4714361221269
179,613.4790066233276
180,613.4868762257012
181,613.4953016432481
182,613.5045070393934
183,613.5146740034774
184,613.5259332582425
185,613.5383587811699
186,613.5519646808491
187,613.566704782196
188,613.5824745967689
189,613.599115233211
190,613.6164188127394
191,613.6341350458986
192,613.6519787240138
193,613.6696379244274
194,613.6867827382042
195,613.7030743371815
196,613.7181741850857
197,613.7317531338616
198,613.7435000513699
199,613.7531295536099
200,613.7603884188582
201,613.7650603910835
202,613.7669693345308
203,613.76598098962
204,613.7620037790327
205,613.7549891631818
206,613.7449319690623
207,613.7318709746725
208,613.7158898804988
209,613.6971186746821
210,613.6757352963158
211,613.6519673898176
212,613.6260937915379
213,613.5984452072069
214,613.5694034089765
215,613.5393983242965
216,613.5089026434158
217,613.4784239371088
218,613.448494597069
219,613.419660088989
220,613.39246604242
221,613.3674446638521
222,613.3451009117819
223,613.3258988279512
224,613.3102483959683
225,613.2984933500022
226,613.2909005000073
227,613.2876512909994
228,613.2888363287832
229,613.2944534107469
230,613.3044092713824
231,613.3185249371455
232,613.3365443703084
233,613.358145933833
234,613.3829560545076
235,613.4105642896358
236,613.4405388673465
237,613.4724417142062
238,613.5058420315695
239,613.5403276826814
240,613.5755140168654
241,613.6110501676068
242,613.6466231474434
243,613.6819601656097
244,613.7168295786141
245,613.7510408097532
246,613.7844434500203
247,613.8169256102022
248,613.848411512168
249,613.8788583391633
250,613.9082524844666
251,613.9366054815406
252,613.9639500008216
253,613.9903362897853
254,614.0158292899174
255,614.0405064666619
256,614.064456263379
257,614.087777080355
258,614.1105767068431
259,614.1329720971905
260,614.1550892677533
261,614.177062978288
262,614.1990358375949
263,614.2211565715029
264,614.2435773799676
265,614.2664505067862
266,614.2899242656644
267,614.3141387781723
268,614.3392216143732
269,614.365283458342
270,614.3924139059053
271,614.4206775240954
272,614.4501103054896
273,614.4807166371331
274,614.5124669294067
275,614.5452961275485
276,614.5791033978778
277,614.6137532928735
278,614.6490786512265
279,614.6848853651096
280,614.7209589268624
281,614.7570724117876
282,614.7929953808848
283,614.8285031493593
284,614.8633859139986
285,614.8974572954733
286,614.9305619109571
287,614.9625816638437
288,614.9934405346227
289,615.0231077947894
290,615.0515997450733
291,615.0789802348377
292,615.1053602388055
293,615.1308966181789
294,615.1557899876934
295,615.1802814873905
296,615.2046482586817
297,615.2291975216278
298,615.254259305804
299,615.2801780304669
300,615.3073031896691
301,615.3359793775711
302,615.3665358375522
303,615.3992756623105
304,615.4344647328472
305,615.472320501653
306,615.5130008164967
307,615.5565931258848
308,615.6031045735333
309,615.6524536282943
310,615.7044639464457
311,615.7588611028262
312,615.8152726930101
313,615.8732321566208
314,615.9321865373146
315,615.9915082716311
316,616.0505109318186
317,616.108468573762
318,616.1646379722696
319,616.2182826762602
320,616.2686976128592
321,616.315232944761
322,616.3573159787346
323,616.3944700660074
324,616.426329601864
325,616.4526504274697
326,616.4733151787732
327,616.4883334271333
328,616.4978367979305
329,616.5020695974634
330,616.5013757768567
331,616.4961832527213
332,616.4869866346955
333,616.4743292886195
334,616.4587854649776
335,616.4409430235766
336,616.421387127408
337,616.4006851805067
338,616.3793732564776
339,616.357944284015
340,616.336838283217
341,616.3164349666348
342,616.2970490161
343,616.2789282587397
344,616.2622547427386
345,616.2471484132387
346,616.2336728444494
347,616.2218423771567
348,616.2116300363641
349,616.2029757277472
350,616.1957943937895
351,616.1899839934807
352,616.1854332999573
353,616.1820295683691
354,616.1796661052944
355,616.1782496581267
356,616.1777073566647
357,616.1779927528049
358,616.1790903994439
359,616.1810184348612
360,616.1838288040436
361,616.1876050192129
362,616.1924576553221
363,616.1985180008512
364,616.2059304143628
365,616.2148440205602
366,616.225404435706
367,616.2377461769514
368,616.2519862318121
369,616.2682190048919
370,616.2865126436003
371,616.3069066370884
372,616.329410545252
373,616.3540036726438
374,616.3806354494056
375,616.4092263073784
376,616.439668995948
377,616.4718304551393
378,616.505554378087
379,616.5406644294063
380,616.5769678960293
381,616.6142594826237
382,616.6523250242873
383,616.6909449755178
384,616.7298975838568
385,616.7689616779844
386,616.8079190146134
387,616.8465561381837
388,616.8846657113337
389,616.9220472908945
390,616.9585075950754
391,616.993860456763
392,617.0279268417302
393,617.0605354367657
394,617.0915243147564
395,617.1207440557548
396,617.1480624717738
397,617.1733707848947
398,617.1965907977157
399,617.2176823370309
400,617.2366501019624
401,617.2535490450674
402,617.2684875560013
403,617.2816279448053
404,617.293183971677
405,617.3034154275289
406,617.3126200581167
407,617.3211234420061
408,617.3292677171587
409,617.337400204487
410,617.3458629123676
411,617.3549836002214
412,617.3650686261132
413,617.3763974033095
414,617.3892181110676
415,617.4037443332253
416,617.4201523837226
417,617.4385791116316
418,617.4591199768051
419,617.4818272195176
420,617.5067080406745
421,617.5337228389634
422,617.5627836775982
423,617.5937532522769
424,617.626444715088
425,617.6606227971091
426,617.6960067308196
427,617.7322754142638
428,617.7690750424705
429,617.8060291334875
430,617.8427506167693
431,617.8788554720603
432,617.9139772548398
433,617.94778168128
434,617.9799803174582
435,618.0103424024948
436,618.0387039626651
437,618.0649736008302
438,618.0891345909223
439,618.1112431101328
440,618.1314226078745
441,618.1498544944171
442,618.1667655719434
443,618.1824129031476
444,618.1970670355618
445,618.2109946080269
446,618.2244413866159
447,618.2376167743777
448,618.2506807978433
449,618.2637344292853
450,618.276813858364
451,618.2898890602091
452,618.3028667943743
453,618.3155980075356
454,618.3278894149935
455,618.3395187112963
456,618.3502524374488
457,618.3598651799545
458,618.3681586543767
459,618.3749793342171
460,618.3802335051049
461,618.3838988536396
462,618.3860319205753
463,618.3867709893173
464,618.3863342692881
465,618.3850135649227
466,618.3831639436268
467,618.3811901426715
468,618.3795305528553
469,618.3786396653346
470,618.3789699422204
471,618.380954129747
472,618.3849889934033
473,618.3914213030288
474,618.4005366861641
475,618.412551774345
476,618.4276099202585
477,618.445780607735
478,618.4670624397144
479,618.4913893094858
480,618.5186391728845
481,618.5486448036046
482,618.5812059228175
483,618.6161020278441
484,618.653105149594
485,618.6919917761111
486,618.7325533037092
487,618.7746045172463
488,618.8179897056704
489,618.8625861271723
490,618.9083046801802
491,618.9550877940628
492,619.0029047168846
493,619.0517445798291
494,619.1016078840954
495,619.1524973114825
496,619.2044088545271
497,619.2573241439261
498,619.3112046328705
499,619.3659880949925
500,619.4215876886709
501,619.4778935727655
502,619.5347767492125
503,619.5920945427957
504,619.6496969725848
505,619.7074332504618
506,619.7651577577334
507,619.8227350518774
508,619.8800436634745
509,619.9369786022628
510,619.9934525935487
511,620.0493961420196
512,620.1047566016697
513,620.1594965150877
514,620.2135915312592
515,620.2670281801351
516,620.3198016842973
517,620.3719138608956
518,620.423371029231
519,620.4741817242224
520,620.5243540147248
521,620.5738923947953
522,620.6227944633963
523,620.671047754206
524,620.7186270211059
525,620.7654920852013
526,620.811586161785
527,620.8568345162854
528,620.9011433186886
529,620.9443985977504
530,620.9864652165111
531,621.0271858093531
532,621.0663796559643
533,621.1038415700119
534,621.1393410626428
535,621.1726221898942
536,621.2034044845826
537,621.2313852387069
538,621.256243272179
539,621.2776442704577
540,621.2952477891365
541,621.3087160534025
542,621.3177246250252
543,621.3219747864312
544,621.3212071412735
545,621.3152156021695
546,621.3038607530108
547,621.2870815677469
548,621.2649046253571
549,621.2374502481941
550,621.2049353124102
551,621.1676726900029
552,621.1260673215878
553,621.080608897274
554,621.0318612020468
555,620.9804483843712
556,620.9270386047602
557,620.8723256082656
558,620.817008773828
559,620.7617722472525
560,620.7072639483616
561,620.6540755034262
562,620.6027243227529
563,620.553638988052
564,620.5071488407152
565,620.4634782546774
566,620.4227456187375
567,620.3849666329851
568,620.3500612397507
569,620.3178634016904
570,620.2881329596082
571,620.2605688685828
572,620.2348231720263
573,620.2105151097327
574,620.1872447551283
575,620.164605551337
576,620.1421951304009
577,620.1196239290445
578,620.0965213582481
579,620.0725395722166
580,620.0473551488277
581,620.0206691877756
582,619.9922064036627
583,619.9617137507454
584,619.9289590426256
585,619.8937299513118
586,619.8558336537894
587,619.8150972665693
588,619.7713691429313
589,619.7245211105165
590,619.6744517169187
591,619.6210904402834
592,619.5644026232709
593,619.5043947319379
594,619.4411195329931
595,619.3746808745339
596,619.3052378047358
597,619.2330077038778
598,619.1582680144559
599,619.0813561575928
600,619.0026673584462
601,618.9226503025462
602,618.8418007421217
603,618.7606533447932
604,618.6797722038931
605,618.5997404803774
606,618.5211496220046
607,618.4445885344212
608,618.3706329999433
609,618.2998355997547
610,618.2327164052989
611,618.1697546987067
612,618.1113818773139
613,618.0579755076981
614,618.0098543361589
615,617.9672740220535
616,617.9304234030744
617,617.8994211433287
618,617.8743126362605
619,617.8550670806789
620,617.841574767536
621,617.8336448240665
622,617.831003920379
623,617.8332966341483
624,617.8400881533825
625,617.8508697458582
626,617.8650670656223
627,617.8820510738757
628,617.9011511961039
629,617.921670282943
630,617.9429009286989
631,617.9641426856625
632,617.9847196575879
633,618.0039978601264
634,618.0214016574369
635,618.0364285743461
636,618.0486618327211
637,618.0577800436274
638,618.0635636074046
639,618.0658975399032
640,618.064770638395
641,618.0602711113386
642,618.0525790407512
643,618.0419563159022
644,618.0287348602404
645,618.0133039379946
646,617.9960970958942
647,617.9775790417583
648,617.9582326122996
649,617.9385459160535
650,617.9189996849318
651,617.9000548220147
652,617.8821401326156
653,617.8656403117785
654,617.8508844679366
655,617.8381357702687
656,617.8275830933555
657,617.81933563496
658,617.8134213376882
659,617.8097896265632
660,617.808318583349
661,617.8088262432894
662,617.8110852379413
663,617.8148396183354
664,617.8198224798678
665,617.825772976109
666,617.8324514227246
667,617.839651468396
668,617.8472087165501
669,617.8550055938016
670,617.8629725815191
671,617.8710861796596
672,617.8793642129182
673,617.8878592904773
674,617.8966513035979
675,617.9058397542227
676,617.9155365075823
677,617.9258593300217
678,617.9369263710383
679,617.948851627319
680,617.9617413873989
681,617.9756916271521
682,617.9907862471448
683,618.0070959253562
684,618.0246772435875
685,618.0435716520539
686,618.0638037868499
687,618.0853787112704
688,618.1082778837622
689,618.132454049757
690,618.1578256691707
691,618.1842717381601
692,618.2116278581775
693,618.2396842003699
694,618.2681857077301
695,618.2968345621055
696,618.3252947110792
697,618.3531981605108
698,618.3801527685417
699,618.4057513350303
700,618.4295817684817
701,618.4512379951306
702,618.4703311080888
703,618.4865001356166
704,618.499421808492
705,618.5088188426719
706,618.5144664725084
707,618.516197170734
708,618.5139035800651
709,618.5075396343208
710,618.497119752351
711,618.482715991818
712,618.4644532075724
713,618.4425024690615
714,618.417073125043
715,618.3884039526972
716,618.3567538474691
717,618.3223924981239
718,618.2855914169671
719,618.2466155773639
720,618.2057158038785
721,618.1631220048947
722,618.1190373435206
723,618.0736334831263
724,618.0270470820363
725,617.979377749811
726,617.9306877364074
727,617.8810036696967
728,617.8303205954993
729,617.7786083602642
730,617.7258200625868
731,617.6719019918561
732,617.6168042618724
733,617.5604912751348
734,617.502951202863
735,617.4442037934448
736,617.3843059985131
737,617.3233551186366
738,617.261489402188
739,617.1988862439276
740,617.1357582735415
741,617.0723476688868
742,617.0089189987626
743,616.9457508582343
744,616.8831265464938
745,616.8213240536419
746,616.7606056746214
747,616.7012076755966
748,616.6433305829297
749,616.5871307813674
750,616.5327141297224
751,616.4801321983133
752,616.4293814988658
753,616.3804057207703
754,616.3331005492864
755,616.287320245368
756,616.2428849871917
757,616.1995880993051
758,616.1572026328923
759,616.1154871120679
760,616.074190495757
761,616.0330565192223
762,615.9918276308555
763,615.9502487846944
764,615.9080714138835
765,615.8650579707755
766,615.8209874065863
767,615.7756617990065
768,615.728913997261
769,615.6806157433215
770,615.6306854313355
771,615.57909459478
772,615.5258723241432
773,615.4711070294585
774,615.414945226278
775,615.3575873254848
776,615.299280736241
777,615.2403109112804
778,615.1809911737965
779,615.1216521735881
780,615.0626316742831
781,615.0042652059333
782,614.9468779762764
783,614.8907782737375
784,614.8362523991382
785,614.7835609893401
786,614.7329365169505
787,614.6845817690834
788,614.6386691299218
789,614.595340413709
790,614.5547068534044
791,614.5168488213899
792,614.4818150597017
793,614.4496215327382
794,614.4202502743093
795,614.3936486733267
796,614.3697295828442
797,614.3483725461045
798,614.3294263441
799,614.3127129537345
800,614.2980328380069
801,614.2851712792466
802,614.2739052596602
803,614.2640102612909
804,614.2552663594648
805,614.2474631264662
806,614.2404030896462
807,614.2339037137532
808,614.2277980388272
809,614.2219342028009
810,614.2161741564739
811,614.2103919726634
812,614.2044722490439
813,614.1983091407974
814,614.191806448088
815,614.1848788885605
816,614.1774542855113
817,614.169476074762
818,614.1609054354345
819,614.151722494352
820,614.1419263178233
821,614.1315336599891
822,614.1205766209462
823,614.1090994673787
824,614.0971549209715
825,614.0848002796967
826,614.0720937718366
827,614.0590914481231
828,614.0458446834521
829,614.0323981116558
830,614.0187876701372
831,614.0050384198807
832,613.9911619339298
833,613.9771532835526
834,613.9629879019845
835,613.9486187714986
836,613.9339744258632
837,613.9189582059524
838,613.9034490928269
839,613.8873043261405
840,613.8703639269469
841,613.8524571354709
842,613.8334105707022
843,613.8130576345826
844,613.7912484298591
845,613.7678593298787
846,613.7428013458289
847,613.716026558737
848,613.6875320936922
849,613.6573613915082
850,613.6256028640499
851,613.5923863647748
852,613.5578781756641
853,613.5222753133164
854,613.4857998698916
855,613.4486938929138
856,613.4112150732343
857,613.3736333230908
858,613.3362281898694
859,613.2992869358601
860,613.2631030078957
861,613.2279745415856
862,613.1942025221671
863,613.1620882705405
864,613.1319300215522
865,613.1040184869258
866,613.0786314430021
867,613.0560275514797
868,613.0364397717673
869,613.0200688023153
870,613.0070769818761
871,612.9975830182211
872,612.9916578183597
873,612.9893215946176
874,612.9905423565615
875,612.9952358978246
876,613.0032674201109
877,613.0144549469545
878,613.0285746430055
879,613.0453680692311
880,613.0645512530465
881,613.0858252398364
882,613.1088875905909
883,613.1334441684011
884,613.1592204996487
885,613.1859719658603
886,613.2134921016299
887,613.2416183782034
888,613.2702350261874
889,613.2992726647528
890,613.3287047565999
891,613.3585412007596
892,613.3888196667012
893,613.4195954666347
894,613.4509307976862
895,613.4828841163187
896,613.51550032405
897,613.5488023644072
898,613.5827847298797
899,613.6174092345435
900,613.6526031973067
901,613.6882598846518
902,613.7242407262934
903,613.7603785676877
904,613.7964811965188
905,613.8323345996686
906,613.8677057358466
907,613.9023448710782
908,613.93598764702
909,613.9683570687232
910,613.9991655800376
911,614.0281174013077
912,614.0549113369698
913,614.0792442766374
914,614.1008156109216
915,614.1193327922008
916,614.134518252134
917,614.1461177740583
