frame_number,force
0,536.4880467648094
1,536.4824530967884
2,536.4769410398371
3,536.4715233935841
4,536.4662138733528
5,536.4610270579775
6,536.4559783260296
7,536.4510837806847
8,536.4463601634978
9,536.4418247573374
10,536.4374952787974
11,536.4333897607155
12,536.4295264258834
13,536.4259235532759
14,536.4225993378747
15,536.4195717446769
16,536.4168583572671
17,536.414476221622
18,536.4124416863303
19,536.4107702407138
20,536.4094763522745
21,536.4085733045829
22,536.408073036401
23,536.4079859827956
24,536.4083209193192
25,536.409084810837
26,536.4102826669689
27,536.4119174063579
28,536.4139897322676
29,536.4164980224763
30,536.4194382369346
31,536.4228038469191
32,536.4265857893926
33,536.4307724500159
34,536.4353496776357
35,536.4403008320012
36,536.4456068651333
37,536.4512464354793
38,536.4571960528501
39,536.4634302511038
40,536.4699217844619
41,536.4766418421628
42,536.4835602750468
43,536.4906458270777
44,536.4978663650958
45,536.5051891011833
46,536.5125808034672
47,536.5200079925522
48,536.5274371219623
49,536.5348347419712
50,536.5421676469468
51,536.54940300677
52,536.5565084830598
53,536.5634523310202
54,536.5702034878278
55,536.5767316485405
56,536.5830073303792
57,536.5890019259509
58,536.594687745828
59,536.6000380509468
60,536.6050270752717
61,536.6096300389391
62,536.6138231519225
63,536.6175836085217
64,536.6208895737639
65,536.6237201638759
66,536.6260554239699
67,536.6278763065732
68,536.629164654498
69,536.6299031910335
70,536.630075519899
71,536.6296661368204
72,536.6286604536824
73,536.6270448349499
74,536.6248066448593
75,536.6219343032193
76,536.6184173475293
77,536.6142464991433
78,536.6094137309884
79,536.6039123338326
80,536.5977369775185
81,536.5908837632735
82,536.5833502633238
83,536.5751355445864
84,536.5662401741387
85,536.556666205451
86,536.5464171458082
87,536.5354979066072
88,536.5239147390608
89,536.5116751583026
90,536.4987878592016
91,536.4852626273666
92,536.471110248771
93,536.4563424211376
94,536.4409716698873
95,536.4250112711583
96,536.4084751840899
97,536.3913779940963
98,536.3737348682712
99,536.3555615234372
100,536.3368742067282
101,536.3176896879986
102,536.2980252628499
103,536.2778987647425
104,536.2573285845705
105,536.2363336961014
106,536.2149336856288
107,536.1931487839665
108,536.170999898557
109,536.148508643032
110,536.1256973612734
111,536.1025891431714
112,536.0792078298979
113,536.0555780074391
114,536.0317249881396
115,536.0076747809799
116,535.9834540520203
117,535.9590900767702
118,535.9346106862749
119,535.9100442086101
120,535.8854194072131
121,535.8607654170333
122,535.8361116789916
123,535.8114878728898
124,535.7869238486701
125,535.7624495558124
126,535.738094970734
127,535.7138900222363
128,535.6898645150964
129,535.6660480518207
130,535.642469952672
131,535.6191591744927
132,535.596144229425
133,535.5734531050701
134,535.5511131878687
135,535.5291511916305
136,535.5075930931755
137,535.4864640768512
138,535.4657884891959
139,535.4455898043842
140,535.425890600551
141,535.4067125466473
142,535.3880763989824
143,535.3700020060173
144,535.3525083194804
145,535.3356134095689
146,535.319334481795
147,535.3036878929295
148,535.2886891636484
149,535.2743529860787
150,535.2606932252851
151,535.2477229144848
152,535.2354542442973
153,535.2238985468981
154,535.2130662766529
155,535.2029669892443
156,535.1936093210472
157,535.1850009696238
158,535.1771486752364
159,535.1700582027148
160,535.1637343229792
161,535.1581807938824
162,535.1534003406639
163,535.1493946370558
164,535.146164288749
165,535.1437088211812
166,535.1420266732486
167,535.1411151976865
168,535.1409706679642
169,535.1415882910004
170,535.1429622249484
171,535.1450856014644
172,535.1479505519256
173,535.1515482367766
174,535.1558688765396
175,535.1609017822414
176,535.1666353824736
177,535.1730572443535
178,535.1801540862929
179,535.1879117813088
180,535.1963153501883
181,535.205348944025
182,535.2149958155808
183,535.2252382788494
184,535.2360576563779
185,535.2474342144739
186,535.2593470871236
187,535.2717741899612
188,535.2846921259782
189,535.2980760850637
190,535.3118997399947
191,535.3261351420385
192,535.3407526198644
193,535.355720685985
194,535.3710059554161
195,535.3865730815165
196,535.402384713933
197,535.4184014831047
198,535.4345820149407
199,535.4508829781615
200,535.4672591654978
201,535.483663608607
202,535.5000477255361
203,535.5163614990073
204,535.5325536836253
205,535.5485720400555
206,535.564363594108
207,535.579874918368
208,535.5950524334695
209,535.6098427253971
210,535.6241928745006
211,535.6380507913773
212,535.6513655544078
213,535.6640877435767
214,535.6761697654221
215,535.6875661645979
216,535.6982339183296
217,535.7081327107279
218,535.7172251845252
219,535.7254771684807
220,535.7328578794369
221,535.7393400985898
222,535.7449003218112
223,535.7495188838807
224,535.7531800564033
225,535.7558721192802
226,535.7575874060287
227,535.7583223239336
228,535.7580773506393
229,535.7568570090862
230,535.7546698226361
231,535.7515282519538
232,535.7474486147828
233,535.7424509892755
234,535.7365591013169
235,535.7298001966343
236,535.7222048994174
237,535.7138070602399
238,535.704643596716
239,535.694754330196
240,535.6841818209527
241,535.6729712030839
242,535.6611700192648
243,535.6488280549435
244,535.6359971716423
245,535.622731139374
246,535.609085468455
247,535.595117241133
248,535.5808849435335
249,535.5664482984879
250,535.5518680997349
251,535.5372060477687
252,535.5225245874801
253,535.5078867479126
254,535.4933559848116
255,535.4789960268203
256,535.4648707259965
257,535.4510439129591
258,535.4375792566017
259,535.424540127935
260,535.4119894671126
261,535.3999896521259
262,535.3886023671779
263,535.3778884685379
264,535.3679078457243
265,535.3587192759825
266,535.3503802700541
267,535.3429469072571
268,535.3364736581993
269,535.3310131941572
270,535.3266161830512
271,535.3233310726475
272,535.321203861955
273,535.3202778620142
274,535.3205934476945
275,535.3221878027957
276,535.3250946615402
277,535.3293440502988
278,535.3349620340174
279,535.3419704721736
280,535.3503867891061
281,535.36022376325
282,535.3714893393162
283,535.384186466923
284,535.3983129687168
285,535.4138614407128
286,535.4308191874651
287,535.4491681945966
288,535.4688851408691
289,535.4899414511067
290,535.5123033900414
291,535.5359321960287
292,535.5607842529996
293,535.5868112989092
294,535.6139606688612
295,535.6421755706542
296,535.6713953896568
297,535.7015560189087
298,535.7325902095679
299,535.764427936575
300,535.796996774692
301,535.8302222806348
302,535.8640283775468
303,535.8983377384338
304,535.9330721654669
305,535.9681529624114
306,536.0035012978389
307,536.0390385571442
308,536.0746866816226
309,536.1103684929293
310,536.1460080012125
311,536.1815306951846
312,536.2168638124866
313,536.2519365888431
314,536.2866804846475
315,536.3210293879589
316,536.3549197936338
317,536.3882909592867
318,536.4210850395644
319,536.4532472006107
320,536.4847257166655
321,536.5154720506209
322,536.5454409201343
323,536.5745903508025
324,536.6028817180503
325,536.6302797796541
326,536.6567527009971
327,536.6822720751215
328,536.706812939433
329,536.7303537904878
330,536.7528765975865
331,536.7743668149434
332,536.7948133911505
333,536.8142087736819
334,536.8325489054382
335,536.8498332098665
336,536.8660645609904
337,536.8812492346651
338,536.8953968375973
339,536.9085202112682
340,536.9206353088949
341,536.9317610448305
342,536.9419191171754
343,536.9511338057158
344,536.9594317482702
345,536.9668416988033
346,536.9733942703587
347,536.9791216655262
348,536.9840573972516
349,536.9882360032335
350,536.9916927575397
351,536.9944633831494
352,536.9965837689549
353,536.9980896944697
354,536.9990165651758
355,536.9993991611243
356,536.9992714011647
357,536.9986661251246
358,536.9976148963937
359,536.9961478274726
360,536.9942934308485
361,536.9920784969386
362,536.9895279999679
363,536.9866650318696
364,536.983510763867
365,536.9800844351989
366,536.9764033680495
367,536.9724830068604
368,536.9683369791458
369,536.9639771742876
370,536.9594138367871
371,536.9546556706815
372,536.9497099518201
373,536.9445826443713
374,536.9392785175897
375,536.9338012587755
376,536.9281535786437
377,536.9223373060584
378,536.9163534702438
379,536.9102023699243
380,536.9038836300605
381,536.8973962478004
382,536.8907386299106
383,536.883908624214
384,536.8769035472693
385,536.8697202098144
386,536.8623549407966
387,536.8548036104603
388,536.8470616528269
389,536.8391240877205
390,536.830985542247
391,536.8226402715579
392,536.814082178933
393,536.8053048356746
394,536.7963015018315
395,536.7870651491389
396,536.7775884876229
397,536.767863997219
398,536.7578839658703
399,536.7476405359135
400,536.7371257607929
401,536.7263316739728
402,536.7152503713974
403,536.7038741081201
404,536.6921954089664
405,536.6802071923676
406,536.6679029058521
407,536.6552766711337
408,536.6423234363274
409,536.6290391325932
410,536.6154208324257
411,536.6014669068327
412,536.5871771787502
413,536.5725530702017
414,536.5575977409638
415,536.5423162168007
416,536.5267155054931
417,536.5108046987265
418,536.4945950575088
419,536.4781000784541
420,536.4613355382692
421,536.4443195142526
422,536.4270723794465
423,536.4096167721328
424,536.3919775404836
425,536.3741816641954
426,536.3562581556855
427,536.3382379438282
428,536.320153743248
429,536.3020399118467
430,536.2839322985803
431,536.2658680827423
432,536.2478856053094
433,536.2300241923996
434,536.2123239706733
435,536.1948256746908
436,536.1775704467211
437,536.1605996301001
438,536.143954557764
439,536.1276763379248
440,536.1118056389274
441,536.0963824750785
442,536.0814459948616
443,536.0670342727312
444,536.053184105609
445,536.0399308149338
446,536.0273080544747
447,536.0153476234528
448,536.0040792842019
449,535.9935305836534
450,535.9837266780955
451,535.9746901608424
452,535.9664408927418
453,535.9589958359221
454,535.952368891818
455,535.946570745247
456,535.9416087170072
457,535.9374866279478
458,535.9342046776584
459,535.9317593409195
460,535.9301432849853
461,535.929345310688
462,535.9293503202928
463,535.9301393149649
464,535.9316894244835
465,535.9339739713865
466,535.9369625710377
467,535.9406212680965
468,535.9449127085372
469,535.9497963450148
470,535.9552286723872
471,535.9611634896638
472,535.9675521842931
473,535.9743440342589
474,535.9814865228784
475,535.9889256607939
476,535.9966063097913
477,536.0044725037673
478,536.0124677631211
479,536.0205353998355
480,536.0286188114345
481,536.0366617627795
482,536.044608655322
483,536.0524047840145
484,536.0599965824368
485,536.0673318566376
486,536.0743600078241
487,536.0810322437957
488,536.0873017792339
489,536.0931240255331
490,536.0984567713206
491,536.1032603549277
492,536.1074978298502
493,536.1111351237449
494,536.1141411907433
495,536.1164881559409
496,536.1181514501112
497,536.1191099323339
498,536.1193459984513
499,536.1188456739992
500,536.1175986912109
501,536.115598550437
502,536.1128425666097
503,536.1093319013343
504,536.1050715810476
505,536.1000705014291
506,536.0943414177934
507,536.0879009206976
508,536.0807693956463
509,536.0729709656172
510,536.064533415143
511,536.0554880949337
512,536.045869806427
513,536.0357166659336
514,536.0250699480464
515,536.0139739078518
516,536.0024755813978
517,535.9906245638163
518,535.978472764382
519,535.9660741378354
520,535.9534843917548
521,535.9407606706046
522,535.9279612180204
523,535.9151450197376
524,535.9023714303548
525,535.8896997879642
526,535.877189021524
527,535.8648972563859
528,535.8528814233039
529,535.8411968756159
530,535.8298970184567
531,535.8190329531396
532,535.808653139416
533,535.7988030782916
534,535.789525018323
535,535.7808576884854
536,535.7728360605606
537,535.765491143645
538,535.7588498130349
539,535.7529346755807
540,535.7477639735603
541,535.7433515290978
542,535.739706731
543,535.7368345654446
544,535.7347356912404
545,535.7334065594376
546,535.7328395760405
547,535.73302330562
548,535.7339427129637
549,535.7355794394915
550,535.7379121107215
551,535.7409166703053
552,535.7445667351031
553,535.7488339648519
554,535.7536884397144
555,535.759099039492
556,535.765033819084
557,535.7714603753567
558,535.7783462008434
559,535.7856590200134
560,535.7933671044276
561,535.8014395637919
562,535.8098466104168
563,535.8185597948461
564,535.8275522106213
565,535.8367986664664
566,535.8462758246063
567,535.8559623043751
568,535.8658387506455
569,535.8758878669975
570,535.8860944141542
571,535.8964451752056
572,535.9069288903964
573,535.9175361654349
574,535.928259358071
575,535.9390924479463
576,535.9500308944619
577,535.9610714867514
578,535.9722121888548
579,535.9834519820123
580,535.9947907049904
581,536.0062288928597
582,536.0177676147549
583,536.0294083115803
584,536.0411526349887
585,536.0530022888826
586,536.0649588740528
587,536.0770237357323
588,536.0891978134018
589,536.1014814924968
590,536.1138744584443
591,536.1263755541632
592,536.1389826425352
593,536.1516924754745
594,536.1645005711495
595,536.177401100754
596,536.1903867862251
597,536.2034488106011
598,536.2165767430732
599,536.2297584807781
600,536.2429802090226
601,536.2562263813152
602,536.2694797204549
603,536.2827212417333
604,536.295930298749
605,536.3090846514247
606,536.3221605547652
607,536.335132865937
608,536.3479751665425
609,536.3606598966052
610,536.3731584968365
611,536.3854415562116
612,536.3974789625347
613,536.4092400543136
614,536.4206937727882
615,536.4318088133405
616,536.4425537757913
617,536.4528973133733
618,536.4628082805639
619,536.472255880315
620,536.4812098111815
621,536.4896404143371
622,536.4975188198491
623,536.5048170913693
624,536.5115083686501
625,536.5175670076562
626,536.5229687180419
627,536.5276906971825
628,536.5317117589505
629,536.535012454501
630,536.5375751820297
631,536.5393842827926
632,536.5404261213191
633,536.5406891483647
634,536.5401639457313
635,536.5388432526971
636,536.5367219744645
637,536.5337971737281
638,536.5300680471188
639,536.5255358887322
640,536.52020404306
641,536.5140778495014
642,536.5071645804248
643,536.499473374552
644,536.491015167309
645,536.4818026198157
646,536.4718500483689
647,536.4611733564424
648,536.4497899711558
649,536.4377187857292
650,536.424980108752
651,536.411595620494
652,536.3975883361635
653,536.3829825759286
654,536.3678039415483
655,536.3520792996134
656,536.3358367716311
657,536.3191057313293
658,536.3019168094659
659,536.2843019061248
660,536.2662942100447
661,536.2479282239684
662,536.2292397942327
663,536.2102661418272
664,536.1910458911569
665,536.1716190921751
666,536.1520272317009
667,536.1323132304725
668,536.1125214233685
669,536.0926975209765
670,536.0728885513512
671,536.0531427815431
672,536.0335096191959
673,536.0140394950486
674,535.9947837274677
675,535.9757943703108
676,535.9571240455107
677,535.938825761641
678,535.9209527192886
679,535.9035581035095
680,535.8866948633187
681,535.8704154782421
682,535.8547717124787
683,535.8398143581308
684,535.8255929701495
685,535.812155596919
686,535.7995485114641
687,535.7878159488383
688,535.7769998552088
689,535.767139653746
690,535.758272031992
691,535.7504307550334
692,535.7436465082014
693,535.7379467718218
694,535.7333557288515
695,535.7298942045966
696,535.7275796364931
697,535.7264260711258
698,535.7264441851851
699,535.7276413269576
700,535.7300215752196
701,535.7335858129022
702,535.738331813399
703,535.7442543376065
704,535.7513452395873
705,535.7595935782879
706,535.7689857325378
707,535.7795055168841
708,535.7911342966153
709,535.8038511013131
710,535.8176327371722
711,535.8324538988318
712,535.848287281475
713,535.8651036936999
714,535.8828721713944
715,535.9015600925783
716,535.9211332928319
717,535.941556180528
718,535.9627918507296
719,535.9848021965172
720,536.00754801682
721,536.0309891204056
722,536.0550844262194
723,536.0797920605776
724,536.1050694518693
725,536.1308734234966
726,536.1571602857587
727,536.1838859273615
728,536.2110059072336
729,536.2384755473182
730,536.2662500269184
731,536.294284478987
732,536.3225340884468
733,536.3509541921156
734,536.3795003792801
735,536.408128591726
736,536.436795222145
737,536.4654572101344
738,536.4940721354862
739,536.5225983090609
740,536.5509948619502
741,536.5792218335652
742,536.6072402589209
743,536.6350122550352
744,536.6625011059681
745,536.6896713454375
746,536.7164888351546
747,536.7429208363687
748,536.7689360719169
749,536.7945047763076
750,536.8195987317815
751,536.8441912886658
752,536.868257368812
753,536.8917734516417
754,536.9147175432415
755,536.9370691298006
756,536.9588091173753
757,536.9799197605553
758,537.0003845830773
759,537.0201882936772
760,537.039316700457
761,537.0577566268106
762,537.0754958315795
763,537.092522935719
764,537.1088273572761
765,537.1243992557464
766,537.1392294859418
767,537.1533095607899
768,537.166631622229
769,537.1791884192611
770,537.1909732919036
771,537.2019801593652
772,537.2122035107172
773,537.221638396853
774,537.2302804233677
775,537.2381257447105
776,537.2451710603187
777,537.2514136133874
778,537.2568511925359
779,537.2614821361553
780,537.2653053390042
781,537.2683202607734
782,537.2705269365263
783,537.2719259888496
784,537.2725186413305
785,537.2723067329657
786,537.271292733553
787,537.2694797608428
788,537.2668716007752
789,537.2634727321769
790,537.2592883570318
791,537.2543244371984
792,537.2485877382576
793,537.2420858807438
794,537.2348273982193
795,537.2268218006609
796,537.2180796407067
797,537.2086125796429
798,537.198433449743
799,537.1875563096795
800,537.1759964900726
801,537.1637706267704
802,537.1508966802302
803,537.1373939402661
804,537.123283016075
805,537.1085858116409
806,537.0933254864987
807,537.07752640172
808,537.0612140510862
809,537.044414977839
810,537.0271566780489
811,537.0094674921734
812,536.9913764863478
813,536.972913324214
814,536.9541081289775
815,536.9349913344989
816,536.9155935240844
817,536.8959452563118
818,536.8760768782639
819,536.8560183273781
820,536.8357989235628
821,536.8154471534306
822,536.7949904487184
823,536.774454961393
824,536.7538653386054
825,536.7332445013768
826,536.7126134313404
827,536.6919909698045
828,536.6713936327847
829,536.6508354446772
830,536.6303277922466
831,536.6098792998444
832,536.5894957264704
833,536.5691798855463
834,536.5489315889272
835,536.5287476172003
836,536.5086217181855
837,536.488544634726
838,536.4685041617478
839,536.4484852317092
840,536.4284700272431
841,536.408438119897
842,536.3883666341293
843,536.3682304358407
844,536.3480023446492
845,536.3276533688196
846,536.3071529612773
847,536.2864692945278
848,536.2655695517501
849,536.2444202310448
850,536.2229874598063
851,536.2012373161659
852,536.1791361541922
853,536.1566509291263
854,536.133749518719
855,536.11040103688
856,536.0865761362772
857,536.0622472969053
858,536.0373890976663
859,536.0119784676972
860,535.9859949139131
861,535.9594207214417
862,535.9322411244052
863,535.9044444456142
864,535.8760222048437
865,535.8469691963123
866,535.8172835366674
867,535.7869666851025
868,535.7560234372777
869,535.7244618947158
870,535.692293411411
871,535.6595325194376
872,535.6261968353094
873,535.592306948847
874,535.5578862965143
875,535.5229610216309
876,535.4875598242484
877,535.4517138035161
878,535.4154562950658
879,535.3788227055852
880,535.3418503463189
881,535.3045782665164
882,535.2670470869109
883,535.2292988325581
884,535.1913767640647
885,535.1533252063741
886,535.1151893747132
887,535.0770151979119
888,535.0388491399862
889,535.0007380214337
890,534.9627288419645
891,534.9248686062718
892,534.887204154176
893,534.8497819963526
894,534.8126481569687
895,534.7758480246199
896,534.7394262127475
897,534.7034264302645
898,534.6678913626956
899,534.6328625639342
900,534.598380358636
901,534.5644837551341
902,534.5312103685793
903,534.4985963539617
904,534.4666763487465
905,534.4354834249364
906,534.4050490504081
907,534.3754030594023
908,534.3465736320451
909,534.3185872827698
910,534.2914688576432
911,534.2652415410022
912,534.2399268722403
913,534.2155447736551
914,534.1921135898848
915,534.1696501388425
916,534.1481697735463
917,534.1276864539287
