frame_number,force
0,536.494472668048
1,536.4886688950228
2,536.4829043838816
3,536.4771938265095
4,536.4715531104188
5,536.465999257347
6,536.4605503478316
7,536.4552254320051
8,536.4500444268921
9,536.4450280004634
10,536.4401974427841
11,536.4355745249841
12,536.4311813473743
13,536.4270401783338
14,536.4231732852679
15,536.4196027583002
16,536.4163503270863
17,536.4134371715156
18,536.4108837277282
19,536.408709491267
20,536.4069328191127
21,536.4055707319419
22,536.4046387175387
23,536.4041505362406
24,536.4041180297229
25,536.4045509350772
26,536.4054567066561
27,536.4068403484725
28,536.4087042603259
29,536.4110481014391
30,536.4138686760458
31,536.4171598457153
32,536.4209124731865
33,536.4251144021414
34,536.4297504765541
35,536.4348026018693
36,536.4402498485466
37,536.4460685968381
38,536.4522327202062
39,536.4587138034532
40,536.4654813902422
41,536.4725032531654
42,536.4797456780828
43,536.4871737536947
44,536.4947516576926
45,536.5024429322551
46,536.5102107435258
47,536.518018121495
48,536.5258281782504
49,536.533604303862
50,536.5413103401404
51,536.5489107330724
52,536.5563706649647
53,536.5636561674356
54,536.5707342165301
55,536.5775728113158
56,536.5841410371474
57,536.5904091144231
58,536.596348433454
59,536.6019315761278
60,536.6071323250286
61,536.6119256603687
62,536.6162877448605
63,536.6201958969979
64,536.6236285542254
65,536.6265652288682
66,536.6289864609577
67,536.6308737727285
68,536.6322096293762
69,536.632977409997
70,536.633161391923
71,536.6327467509086
72,536.6317195784469
73,536.6300669158489
74,536.627776803173
75,536.6248383402235
76,536.62124175667
77,536.6169784883509
78,536.6120412565452
79,536.6064241463189
80,536.6001226793031
81,536.5931338758547
82,536.5854563017008
83,536.5770900948748
84,536.5680369699513
85,536.5583001982425
86,536.5478845644968
87,536.536796302269
88,536.5250430112161
89,536.5126335601896
90,536.4995779803799
91,536.485887353006
92,536.4715736959673
93,536.4566498535036
94,536.4411293924612
95,536.4250265083912
96,536.4083559442851
97,536.3911329241554
98,536.3733731029048
99,536.3550925331142
100,536.3363076485703
101,536.317035263582
102,536.297292586482
103,536.2770972452875
104,536.256467323388
105,536.235421403152
106,536.2139786152762
107,536.1921586914219
108,536.1699820172195
109,536.1474696821583
110,536.1246435225088
111,536.1015261536098
112,536.0781409886738
113,536.0545122424519
114,536.0306649194233
115,536.0066247874238
116,535.982418338555
117,535.9580727396433
118,535.9336157745594
119,535.9090757805785
120,535.8844815806261
121,535.8598624126709
122,535.8352478568975
123,535.8106677608326
124,535.786152162289
125,535.7617312098477
126,535.7374350807031
127,535.7132938959268
128,535.6893376332713
129,535.6655960375454
130,535.6420985286989
131,535.6188741083042
132,535.5959512658628
133,535.5733578869404
134,535.5511211654516
135,535.5292675225974
136,535.507822535006
137,535.486810874375
138,535.4662562602651
139,535.4461814268775
140,535.4266081039433
141,535.4075570112806
142,535.3890478659249
143,535.3710993999732
144,535.3537293866415
145,535.3369546716333
146,535.3207912066531
147,535.3052540817527
148,535.2903575534035
149,535.2761150659449
150,535.262539265159
151,535.249642003685
152,535.2374343386543
153,535.2259265226642
154,535.2151279901125
155,535.2050473414868
156,535.1956923278585
157,535.187069836688
158,535.1791858787783
159,535.1720455754837
160,535.1656531452278
161,535.1600118888613
162,535.1551241741929
163,535.1509914209998
164,535.1476140886863
165,535.1449916690864
166,535.1431226864357
167,535.1420047054262
168,535.1416343470818
169,535.1420073115027
170,535.1431184064384
171,535.1449615808699
172,535.1475299628447
173,535.1508159004361
174,535.1548110038649
175,535.1595061858034
176,535.1648916961858
177,535.1709571479221
178,535.1776915307375
179,535.1850832114366
180,535.1931199196465
181,535.2017887183599
182,535.2110759585217
183,535.2209672168032
184,535.2314472159503
185,535.2424997278367
186,535.2541074602623
187,535.2662519292144
188,535.2789133187667
189,535.2920703313215
190,535.3057000315866
191,535.3197776884047
192,535.334276619239
193,535.3491680428222
194,535.364420946078
195,535.3800019718021
196,535.3958753335378
197,535.4120027634896
198,535.428343498233
199,535.444854305533
200,535.4614895539056
201,535.4782013248428
202,535.4949395662867
203,535.5116522852333
204,535.5282857771224
205,535.5447848896166
206,535.5610933182268
207,535.5771539308705
208,535.5929091177497
209,535.6083011620124
210,535.6232726257645
211,535.6377667453098
212,535.651727829023
213,535.665101651061
214,535.6778358343979
215,535.6898802174944
216,535.7011871999512
217,535.7117120633778
218,535.7214132644872
219,535.7302526983043
220,535.7381959303328
221,535.7452123972655
222,535.7512755761821
223,535.7563631221896
224,535.7604569743514
225,535.7635434298622
226,535.7656131869677
227,535.7666613580141
228,535.7666874548114
229,535.7656953488662
230,535.7636932089536
231,535.7606934181248
232,535.7567124716758
233,535.7517708569716
234,535.7458929157207
235,535.7391066897383
236,535.7314437524337
237,535.7229390296294
238,535.7136306141342
239,535.7035595783176
240,535.6927697878083
241,535.6813077178397
242,535.669222272331
243,535.6565646050827
244,535.6433879425414
245,535.6297474080253
246,535.6156998476462
247,535.6013036583253
248,535.5866186184062
249,535.5717057214315
250,535.556627013546
251,535.5414454347016
252,535.5262246636644
253,535.5110289670405
254,535.4959230529988
255,535.4809719305858
256,535.4662407752928
257,535.4517948010517
258,535.437699138361
259,535.4240187177376
260,535.4108181570439
261,535.3981616504929
262,535.3861128565193
263,535.3747347814358
264,535.3640896558519
265,535.3542388009924
266,535.3452424820942
267,535.3371597460945
268,535.3300482412222
269,535.3239640170331
270,535.3189613045986
271,535.3150922774793
272,535.3124067945585
273,535.3109521261198
274,535.3107726651082
275,535.3119096264045
276,535.3144007379854
277,535.3182799288358
278,535.3235770193023
279,535.3303174200637
280,535.3385218459249
281,535.3482060502566
282,535.3593805852773
283,535.3720505927041
284,535.3862156287012
285,535.4018695266785
286,535.4190003013525
287,535.4375900973946
288,535.4576151855568
289,535.4790460080579
290,535.5018472734135
291,535.5259780994556
292,535.551392202552
293,535.5780381309123
294,535.6058595397732
295,535.6347955057169
296,535.6647808762937
297,535.6957466498244
298,535.7276203792629
299,535.7603265936871
300,535.7937872313641
301,535.8279220790779
302,535.8626492130959
303,535.8978854376413
304,535.9335467171179
305,535.9695485987878
306,536.0058066231271
307,536.0422367195553
308,536.0787555855378
309,536.1152810471493
310,536.1517323991307
311,536.1880307224468
312,536.2240991774574
313,536.259863270988
314,536.2952510957715
315,536.3301935411595
316,536.3646244749556
317,536.3984808974727
318,536.4317030699293
319,536.4642346197913
320,536.4960226257492
321,536.5270176848339
322,536.5571739638826
323,536.5864492374213
324,536.6148049142045
325,536.6422060549891
326,536.6686213843261
327,536.6940232990977
328,536.7183878762378
329,536.7416948815047
330,536.7639277802419
331,536.785073749807
332,536.8051236919665
333,536.8240722422801
334,536.8419177725084
335,536.858662381468
336,536.8743118694716
337,536.8888756914615
338,536.9023668842162
339,536.9148019637767
340,536.9262007905209
341,536.9365864009413
342,536.9459848069581
343,536.9544247653255
344,536.9619375209408
345,536.9685565282136
346,536.9743171542541
347,536.9792563671913
348,536.9834124130542
349,536.9868244852116
350,536.9895323908646
351,536.9915762191852
352,536.9929960154697
353,536.9938314653086
354,536.9941215923648
355,536.9939044729456
356,536.9932169702516
357,536.9920944911181
358,536.9905707682454
359,536.9886776710601
360,536.9864450481006
361,536.9839006030238
362,536.9810698052077
363,536.9779758349187
364,536.9746395624758
365,536.9710795605941
366,536.9673121485838
367,536.9633514659474
368,536.9592095715594
369,536.9548965637906
370,536.9504207169497
371,536.9457886297321
372,536.9410053813591
373,536.9360746906849
374,536.930999073118
375,536.9257799900895
376,536.9204179861865
377,536.9149128100336
378,536.9092635165237
379,536.9034685497444
380,536.8975258075404
381,536.89143268989
382,536.8851861341303
383,536.8787826404102
384,536.872218290383
385,536.8654887612311
386,536.8585893362219
387,536.8515149125384
388,536.8442600069621
389,536.8368187597551
390,536.8291849367769
391,536.8213519297722
392,536.8133127550398
393,536.8050600512863
394,536.7965860781533
395,536.7878827173898
396,536.7789414787175
397,536.7697535123136
398,536.7603096299845
399,536.7506003375456
400,536.7406158812236
401,536.7303463106736
402,536.7197815605206
403,536.7089115513954
404,536.697726310436
405,536.6862161102846
406,536.6743716247577
407,536.6621840986452
408,536.6496455285624
409,536.6367488514672
410,536.6234881373383
411,536.6098587825359
412,536.5958577004888
413,536.5814835065502
414,536.5667366941794
415,536.5516197999896
416,536.5361375553958
417,536.5202970223793
418,536.5041077103565
419,536.4875816706965
420,536.4707335654189
421,536.4535807071976
422,536.436143068867
423,536.4184432619735
424,536.4005064853551
425,536.3823604460384
426,536.3640352557039
427,536.3455633064734
428,536.3269791298156
429,536.3083192419072
430,536.2896219779243
431,536.2709273167368
432,536.2522766965657
433,536.2337128214917
434,536.2152794584171
435,536.1970212243048
436,536.1789833641476
437,536.1612115208856
438,536.1437514991782
439,536.1266490253781
440,536.1099495061382
441,536.0936977877659
442,536.0779379179513
443,536.0627129112025
444,536.0480645192443
445,536.0340330072787
446,536.0206569361845
447,536.0079729498711
448,535.9960155666089
449,535.9848169732293
450,535.9744068213171
451,535.9648120247681
452,535.9560565584751
453,535.9481612585306
454,535.941143625179
455,535.9350176307158
456,535.9297935354476
457,535.9254777154749
458,535.922072506319
459,535.9195760664338
460,535.9179822645646
461,535.9172805948258
462,535.9174561233148
463,535.9184894699996
464,535.920356829351
465,535.9230300326162
466,535.9264766537524
467,535.9306601597417
468,535.9355401042974
469,535.9410723622323
470,535.9472094005008
471,535.9539005812316
472,535.9610924916227
473,535.968729295011
474,535.9767530966853
475,535.9851043175065
476,535.9937220685899
477,536.0025445212086
478,536.0115092673144
479,536.0205536673694
480,536.0296151833804
481,536.0386316960319
482,536.0475418056715
483,536.0562851176577
484,536.0648025130365
485,536.0730364054382
486,536.0809309846089
487,536.0884324466706
488,536.095489211485
489,536.1020521282251
490,536.1080746708551
491,536.1135131253517
492,536.1183267702
493,536.1224780510468
494,536.1259327493876
495,536.1286601439492
496,536.130633162364
497,536.1318285202533
498,536.1322268451053
499,536.1318127832709
500,536.1305750896151
501,536.1285067003105
502,536.1256047896097
503,536.121870811359
504,536.1173105258067
505,536.1119340119137
506,536.1057556647648
507,536.0987941770126
508,536.0910725028189
509,536.082617802532
510,536.0734613663341
511,536.0636385154081
512,536.053188479676
513,536.0421542515078
514,536.0305824147971
515,536.0185229486096
516,536.0060290044987
517,535.993156656493
518,535.979964622608
519,535.9665139567827
520,535.9528677107352
521,535.9390905663132
522,535.9252484401304
523,535.9114080633752
524,535.8976365406965
525,535.8840008931626
526,535.8705675913931
527,535.8574020856596
528,535.8445683396524
529,535.8321283737886
530,535.8201418228706
531,535.8086655119756
532,535.7977530539154
533,535.7874544715787
534,535.7778158488013
535,535.7688790136361
536,535.7606812577363
537,535.753255095117
538,535.7466280631426
539,535.7408225683847
540,535.735855779958
541,535.7317395729333
542,535.7284805242382
543,535.726079962913
544,535.7245340756692
545,535.7238340675055
546,535.7239663758093
547,535.7249129351559
548,535.7266514891745
549,535.7291559453296
550,535.7323967679079
551,535.736341403518
552,535.7409547320582
553,535.7461995349281
554,535.7520369719266
555,535.7584270589199
556,535.7653291394153
557,535.7727023439254
558,535.7805060313527
559,535.7887002070273
560,535.7972459127915
561,535.8061055854166
562,535.8152433802811
563,535.8246254575657
564,535.8342202284817
565,535.8439985594496
566,535.8539339326973
567,535.8640025623135
568,535.8741834652676
569,535.8844584873965
570,535.8948122851456
571,535.9052322651214
572,535.9157084851338
573,535.926233521923
574,535.9368023117831
575,535.9474119706091
576,535.9580615995518
577,535.9687520815947
578,535.9794858730664
579,535.9902667925714
580,536.001099808496
581,536.011990825599
582,536.0229464713301
583,536.0339738830695
584,536.0450804979499
585,536.056273846804
586,536.0675613529602
587,536.0789501355079
588,536.0904468160796
589,536.1020573286002
590,536.113786732454
591,536.1256390304394
592,536.1376169933629
593,536.1497219932727
594,536.161953847245
595,536.1743106734314
596,536.1867887610733
597,536.199382456584
598,536.2120840682616
599,536.2248837921999
600,536.2377696615033
601,536.2507275205063
602,536.2637410255468
603,536.2767916735955
604,536.2898588593274
605,536.3029199600497
606,536.3159504465497
607,536.3289240166825
608,536.34181274762
609,536.3545872622153
610,536.3672169050319
611,536.3796699241749
612,536.3919136559248
613,536.4039147100128
614,536.4156391540621
615,536.4270526962281
616,536.4381208654403
617,536.448809189019
618,536.4590833679666
619,536.4689094506904
620,536.4782540058806
621,536.4870842946059
622,536.4953684408943
623,536.5030755997873
624,536.5101761221996
625,536.5166417163754
626,536.5224456057415
627,536.5275626822087
628,536.5319696526695
629,536.5356451752552
630,536.5385699815071
631,536.5407269810594
632,536.5421013462463
633,536.5426805748546
634,536.542454529991
635,536.5414154568304
636,536.5395579768712
637,536.5368790612257
638,536.533377985312
639,536.5290562679019
640,536.5239175976182
641,536.5179677497835
642,536.5112144962516
643,536.5036675105922
644,536.4953382708244
645,536.4862399619269
646,536.476387380586
647,536.4657968448499
648,536.4544861112669
649,536.4424743015037
650,536.4297818395523
651,536.4164303998363
652,536.4024428661085
653,536.3878433009105
654,536.3726569253915
655,536.3569101094816
656,536.340630372708
657,536.3238463961208
658,536.3065880456691
659,536.2888864069704
660,536.2707738308411
661,536.2522839882255
662,536.2334519321573
663,536.2143141630974
664,536.1949086926901
665,536.1752751002427
666,536.1554545764144
667,536.1354899495527
668,536.1154256912541
669,536.0953078986854
670,536.0751842520641
671,536.0551039466424
672,536.0351175994747
673,536.0152771319343
674,535.995635629322
675,535.9762471791325
676,535.9571666896582
677,535.9384496904374
678,535.9201521154955
679,535.9023300696064
680,535.8850395773845
681,535.8683363151157
682,535.8522753259119
683,535.8369107199582
684,535.8222953631645
685,535.8084805591931
686,535.7955157312161
687,535.7834481104994
688,535.7723224388665
689,535.7621806915688
690,535.7530618265326
691,535.7450015655031
692,535.7380322118381
693,535.7321825081473
694,535.7274775347945
695,535.7239386481624
696,535.7215834560047
697,535.7204258261806
698,535.7204759244539
699,535.7217402769145
700,535.7242218529419
701,535.7279201652899
702,535.7328313845248
703,535.7389484653561
704,535.7462612821301
705,535.7547567701874
706,535.7644190695112
707,535.7752296675403
708,535.787167539054
709,535.8002092823297
710,535.8143292519433
711,535.8294996892477
712,535.8456908515822
713,535.8628711409469
714,535.8810072325277
715,535.900064203109
716,535.9200056589747
717,535.9407938623762
718,535.9623898551877
719,535.9847535782465
720,536.0078439852768
721,536.0316191510548
722,536.0560363741604
723,536.0810522750786
724,536.1066228906025
725,536.1327037655819
726,536.1592500430414
727,536.1862165536434
728,536.2135579054798
729,536.2412285751576
730,536.269183001012
731,536.2973756790477
732,536.3257612618019
733,536.354294659656
734,536.382931143433
735,536.4116264468029
736,536.440336867163
737,536.4690193640374
738,536.4976316546573
739,536.5261323071597
740,536.5544808323648
741,536.582637774994
742,536.6105648047261
743,536.6382248070063
744,536.6655819730279
745,536.6926018875209
746,536.7192516119579
747,536.7454997599335
748,536.7713165612106
749,536.7966739112371
750,536.8215454034572
751,536.8459063422315
752,536.8697337347886
753,536.8930062615774
754,536.9157042255805
755,536.9378094822507
756,536.959305352625
757,536.9801765229378
758,537.0004089346625
759,537.0199896692301
760,537.0389068316512
761,537.0571494369653
762,537.0747073029647
763,537.0915709521208
764,537.107731525033
765,537.1231807067584
766,537.137910666175
767,537.1519140076058
768,537.1651837335995
769,537.1777132176373
770,537.1894961851157
771,537.2005267004183
772,537.2107991578255
773,537.2203082746868
774,537.2290490863713
775,537.2370169434487
776,537.2442075120188
777,537.250616778038
778,537.2562410559843
779,537.2610770015807
780,537.2651216280212
781,537.2683723253433
782,537.270826882831
783,537.272483514242
784,537.2733408853653
785,537.2733981434072
786,537.272654948277
787,537.2711115067866
788,537.2687686114872
789,537.2656276859327
790,537.2616908378118
791,537.256960921082
792,537.2514416079891
793,537.2451374712927
794,537.2380540759852
795,537.2301980785064
796,537.2215773302471
797,537.2122009812774
798,537.2020795798718
799,537.1912251635432
800,537.1796513377418
801,537.1673733390528
802,537.154408080731
803,537.1407741795631
804,537.1264919638863
805,537.1115834628292
806,537.0960723766826
807,537.0799840281459
808,537.0633452943277
809,537.0461845199239
810,537.0285314128352
811,537.0104169241761
812,536.9918731145827
813,536.972933007768
814,536.9536304308256
815,536.9339998396347
816,536.9140761275337
817,536.893894416301
818,536.8734898298273
819,536.8528972519514
820,536.8321510705031
821,536.8112849098646
822,536.7903313546465
823,536.7693216676345
824,536.7482855060376
825,536.727250640997
826,536.7062426859042
827,536.6852848390046
828,536.6643976449672
829,536.6435987788465
830,536.622902854576
831,536.6023212591587
832,536.581862013335
833,536.5615296598542
834,536.5413251813391
835,536.521245950421
836,536.5012857146589
837,536.4814346176983
838,536.4616792566901
839,536.4420027748987
840,536.4223849880121
841,536.4028025428261
842,536.3832291072947
843,536.3636355911229
844,536.3439903959808
845,536.3242596940484
846,536.3044077329822
847,536.2843971646088
848,536.2641893939417
849,536.2437449447493
850,536.2230238378881
851,536.2019859785951
852,536.1805915485877
853,536.1588013983044
854,536.1365774343298
855,536.1138829972452
856,536.0906832256921
857,536.0669454029279
858,536.0426392821828
859,536.0177373867194
860,535.9922152801489
861,535.9660518028141
862,535.9392292710598
863,535.9117336376357
864,535.88355461291
865,535.854685747787
866,535.8251244801037
867,535.794872146686
868,535.7639339632949
869,535.7323189746793
870,535.7000399770303
871,535.6671134151808
872,535.6335592568382
873,535.5994008461338
874,535.5646647390275
875,535.5293805236707
876,535.4935806293196
877,535.4573001274217
878,535.4205765281118
879,535.3834495748733
880,535.3459610395558
881,535.3081545189943
882,535.270075233259
883,535.2317698245755
884,535.1932861555607
885,535.154673105596
886,535.115980364717
887,535.0772582251909
888,535.0385573718199
889,534.9999286727451
890,534.961422972865
891,534.9230908918425
892,534.8849826283129
893,534.8471477717533
894,534.8096351236187
895,534.7724925294449
896,534.7357667233424
897,534.6995031857257
898,534.6637460145774
899,534.6285378102871
900,534.5939195740056
901,534.5599306192813
902,534.5266084965214
903,534.4939889297607
904,534.4621057653303
905,534.4309909321252
906,534.4006744132249
907,534.3711842286655
908,534.3425464291707
909,534.3147851006424
910,534.2879223793886
911,534.2619784786036
912,534.236971727172
913,534.2129186219784
914,534.1898338944028
915,534.1677305908877
916,534.1466201668051
917,534.1265125924443
