frame_number,force
0,615.1861033885757
1,615.1991324430285
2,615.2116563489692
3,615.223671809661
4,615.2351729849516
5,615.246151443182
6,615.2565961298326
7,615.2664933543768
8,615.275826798595
9,615.2845775516275
10,615.2927241781924
11,615.3002428262097
12,615.3071073790345
13,615.3132896561619
14,615.3187596649251
15,615.3234859042876
16,615.3274357200999
17,615.3305757090391
18,615.3328721660819
19,615.3342915682236
20,615.3348010856339
21,615.3343691105304
22,615.3329657936144
23,615.3305635778578
24,615.327137719626
25,615.3226667874752
26,615.3171331296777
27,615.3105233028278
28,615.3028284553781
29,615.2940446610679
30,615.2841731980069
31,615.2732207702451
32,615.2611996702494
33,615.2481278823541
34,615.2340291283898
35,615.2189328570919
36,615.2028741787965
37,615.1858937469862
38,615.1680375887338
39,615.1493568866523
40,615.1299077152114
41,615.1097507346011
42,615.0889508462301
43,615.067576815408
44,615.0457008682308
45,615.0233982706178
46,615.0007468976189
47,614.9778268007552
48,614.9547197804438
49,614.9315089693321
50,614.9082784304977
51,614.8851127724714
52,614.8620967817498
53,614.8393150733945
54,614.8168517610941
55,614.794790148621
56,614.7732124441541
57,614.7521994977621
58,614.7318305613795
59,614.7121830702771
60,614.6933324449731
61,614.6753519121473
62,614.6583123423328
63,614.6422821012894
64,614.6273269112395
65,614.6135097177385
66,614.6008905584508
67,614.5895264318199
68,614.5794711657746
69,614.5707752880834
70,614.563485900448
71,614.5576465583334
72,614.5532971582599
73,614.5504738341456
74,614.5492088643139
75,614.5495305905079
76,614.5514633491872
77,614.5550274138034
78,614.5602389457117
79,614.5671099515273
80,614.5756482459008
81,614.5858574204493
82,614.5977368213919
83,614.6112815395496
84,614.626482416375
85,614.6433260689422
86,614.6617949358296
87,614.6818673445364
88,614.7035175996657
89,614.7267160902668
90,614.7514294148334
91,614.7776205230433
92,614.805248873806
93,614.8342706093921
94,614.8646387453015
95,614.8963033748888
96,614.929211886639
97,614.9633091909473
98,614.9985379529478
99,615.034838828395
100,615.0721507004729
101,615.1104109164653
102,615.1495555243611
103,615.1895195104229
104,615.2302370391368
105,615.2716416966591
106,615.3136667383393
107,615.3562453408115
108,615.3993108596502
109,615.4427970939373
110,615.4866385583347
111,615.5307707611715
112,615.5751304844096
113,615.6196560592397
114,615.664287630112
115,615.7089674002134
116,615.7536398524553
117,615.7982519413343
118,615.84275325191
119,615.8870961224185
120,615.9312357271289
121,615.9751301163642
122,616.0187402111901
123,616.0620297512055
124,616.1049651954062
125,616.1475155780265
126,616.1896523228037
127,616.231349019838
128,616.2725811697723
129,616.3133259012849
130,616.3535616698915
131,616.3932679478656
132,616.4324249160152
133,616.4710131682272
134,616.509013439602
135,616.5464063685935
136,616.583172302341
137,616.6192911522018
138,616.6547423038842
139,616.6895045842637
140,616.7235562853066
141,616.7568752444121
142,616.7894389793015
143,616.8212248737801
144,616.8522104084439
145,616.882373428603
146,616.9116924409672
147,616.9401469307385
148,616.9677176910601
149,616.994387156841
150,617.0201397347821
151,617.0449621210247
152,617.0688435972168
153,617.0917762951882
154,617.1137554204861
155,617.1347794263012
156,617.1548501315965
157,617.173972779713
158,617.1921560357032
159,617.2094119221784
160,617.2257556950898
161,617.2412056627803
162,617.2557829533492
163,617.2695112363167
164,617.2824164049982
165,617.2945262265603
166,617.3058699675828
167,617.3164780035806
168,617.3263814209917
169,617.3356116197346
170,617.3441999236813
171,617.3521772052952
172,617.3595735294031
173,617.3664178196316
174,617.3727375491821
175,617.3785584553203
176,617.3839042749647
177,617.3887964980896
178,617.3932541364727
179,617.3972935067034
180,617.4009280274004
181,617.4041680312195
182,617.4070205929424
183,617.40948937601
184,617.4115745011412
185,617.4132724418063
186,617.4145759519085
187,617.4154740308508
188,617.4159519302291
189,617.4159912051314
190,617.4155698119764
191,617.4146622542461
192,617.4132397772146
193,617.4112706127366
194,617.4087202751141
195,617.4055519085972
196,617.4017266859659
197,617.397204256226
198,617.3919432381895
199,617.3859017554325
200,617.3790380064061
201,617.3713108614203
202,617.3626804764676
203,617.3531089127114
204,617.3425607499058
205,617.3310036820349
206,617.3184090842794
207,617.304752542061
208,617.2900143348328
209,617.2741798686696
210,617.2572400521059
211,617.239191609422
212,617.2200373255033
213,617.1997862171022
214,617.1784536268002
215,617.1560612376982
216,617.132637008454
217,617.1082150296022
218,617.0828353032979
219,617.0565434499338
220,617.0293903464449
221,617.0014317024218
222,616.9727275813417
223,616.9433418751859
224,616.9133417412688
225,616.8827970102593
226,616.8517795744208
227,616.8203627652751
228,616.7886207298943
229,616.7566278143333
230,616.7244579613554
231,616.6921841280538
232,616.6598777275511
233,616.6276080976851
234,616.5954419985642
235,616.563443140146
236,616.5316717403281
237,616.5001841131958
238,616.4690322861845
239,616.4382636444485
240,616.4079206010413
241,616.3780402927117
242,616.3486543029256
243,616.3197884154541
244,616.2914624028883
245,616.2636898546607
246,616.2364780489465
247,616.209827872478
248,616.1837337918291
249,616.158183879044
250,616.1331598935466
251,616.1086374210417
252,616.0845860685638
253,616.0609697130599
254,616.037746799062
255,616.0148706791576
256,615.9922899893961
257,615.9699490511181
258,615.9477882913693
259,615.9257446755579
260,615.9037521474226
261,615.8817420722843
262,615.8596436802237
263,615.8373845066164
264,615.8148908283763
265,615.792088095166
266,615.7689013558554
267,615.7452556817675
268,615.7210765894037
269,615.6962904659135
270,615.6708250005253
271,615.6446096245239
272,615.617575961092
273,615.5896582846173
274,615.5607939874939
275,615.5309240513056
276,615.4999935183531
277,615.4679519585956
278,615.4347539265289
279,615.400359402734
280,615.3647342155933
281,615.3278504392982
282,615.2896867643751
283,615.2502288366375
284,615.2094695600646
285,615.1674093588922
286,615.1240563943016
287,615.0794267315262
288,615.0335444537866
289,614.9864417198597
290,614.9381587621459
291,614.8887438223111
292,614.8382530225641
293,614.7867501722621
294,614.7343065108874
295,614.6810003889918
296,614.6269168888978
297,614.5721473873326
298,614.5167890626439
299,614.4609443495826
300,614.4047203452147
301,614.3482281707315
302,614.2915822953715
303,614.2348998295125
304,614.178299794035
305,614.121902372572
306,614.0658281524442
307,614.0101973590579
308,613.9551290877381
309,613.9007405368102
310,613.8471462463358
311,613.7944573480789
312,613.7427808337477
313,613.6922188498387
314,613.6428680279956
315,613.5948188595967
316,613.5481551226408
317,613.5029533681832
318,613.4592824725173
319,613.4172032597776
320,613.3767681977322
321,613.3380211678711
322,613.3009973100073
323,613.2657229413268
324,613.2322155496945
325,613.2004838609274
326,613.1705279795939
327,613.1423396024151
328,613.115902302427
329,613.0911918810322
330,613.0681767842484
331,613.0468185787918
332,613.0270724827839
333,613.008887944697
334,612.9922092627957
335,612.976976236072
336,612.9631248368017
337,612.9505878946817
338,612.9392957831649
339,612.9291770998266
340,612.920159333994
341,612.9121695161498
342,612.905134844465
343,612.8989832839648
344,612.893644133335
345,612.8890485536917
346,612.8851300533944
347,612.8818249233817
348,612.8790726179352
349,612.8768160754867
350,612.8750019732843
351,612.8735809094908
352,612.8725075075647
353,612.871740440676
354,612.8712423776474
355,612.8709798554446
356,612.8709230859298
357,612.871045706335
358,612.8713244837618
359,612.871738983939
360,612.8722712136803
361,612.8729052455391
362,612.8736268326189
363,612.8744230213032
364,612.8752817694124
365,612.876191576693
366,612.8771411336908
367,612.8781189942201
368,612.8791132761005
369,612.8801113947145
370,612.8810998341679
371,612.8820639610321
372,612.8829878854034
373,612.8838543732465
374,612.8846448130761
375,612.8853392392683
376,612.8859164135366
377,612.8863539649112
378,612.8866285867647
379,612.8867162873989
380,612.8865926890755
381,612.8862333694441
382,612.8856142390187
383,612.8847119483587
384,612.8835043184989
385,612.8819707877672
386,612.880092867814
387,612.8778546018176
388,612.8752430181775
389,612.8722485731181
390,612.868865575559
391,612.8650925877962
392,612.8609327960297
393,612.8563943451412
394,612.8514906320045
395,612.8462405510116
396,612.8406686848343
397,612.8348054332622
398,612.8286870735978
399,612.8223557474074
400,612.8158593700942
401,612.8092514614941
402,612.8025908972073
403,612.7959415813596
404,612.7893720418423
405,612.7829549492832
406,612.7767665618501
407,612.7708860998453
408,612.7653950563604
409,612.7603764522498
410,612.7559140450824
411,612.7520915027561
412,612.7489915532645
413,612.7466951225988
414,612.7452804727856
415,612.7448223516204
416,612.7453911650472
417,612.7470521824749
418,612.7498647844717
419,612.7538817613145
420,612.7591486701632
421,612.7657032581825
422,612.7735749584147
423,612.7827844645094
424,612.7933433898507
425,612.8052540163015
426,612.8185091373068
427,612.8330919991157
428,612.8489763426354
429,612.8661265472958
430,612.8844978774055
431,612.9040368308646
432,612.9246815897444
433,612.9463625716056
434,612.9690030787582
435,612.9925200399192
436,613.0168248358609
437,613.0418241986158
438,613.0674211725893
439,613.0935161247954
440,613.1200077900154
441,613.1467943354602
442,613.173774429243
443,613.2008482977982
444,613.2279187587274
445,613.2548922166661
446,613.2816796103574
447,613.3081972994161
448,613.3343678796497
449,613.3601209166447
450,613.3853935887895
451,613.4101312328911
452,613.4342877878703
453,613.4578261344543
454,613.4807183309738
455,613.50294574693
456,613.524499096831
457,613.5453783771939
458,613.5655927100746
459,613.5851600972661
460,613.6041070902448
461,613.6224683819152
462,613.6402863271442
463,613.6576103997561
464,613.6744965936898
465,613.6910067754312
466,613.7072079940142
467,613.7231717542334
468,613.7389732584663
469,613.7546906227744
470,613.7704040735191
471,613.7861951311331
472,613.8021457878377
473,613.8183376863819
474,613.8348513074153
475,613.8517651734422
476,613.8691550770848
477,613.887093340813
478,613.9056481148433
479,613.9248827197456
480,613.9448550402498
481,613.9656169766099
482,613.9872139597248
483,614.0096845361084
484,614.0330600283872
485,614.0573642756672
486,614.0826134556978
487,614.108815987922
488,614.1359725141085
489,614.1640759517946
490,614.1931116150913
491,614.2230573972585
492,614.2538840096089
493,614.2855552715486
494,614.3180284466833
495,614.3512546198308
496,614.3851791096021
497,614.4197419112405
498,614.4548781646946
499,614.4905186431369
500,614.5265902571501
501,614.5630165700466
502,614.599718320648
503,614.636613950781
504,614.673620134943
505,614.710652309218
506,614.7476251963162
507,614.7844533239693
508,614.8210515345434
509,614.8573354841739
510,614.8932221298822
511,614.9286302033144
512,614.9634806699776
513,614.9976971729352
514,615.0312064597899
515,615.0639387916615
516,615.0958283327462
517,615.1268135187357
518,615.1568374017609
519,615.1858479688293
520,615.2137984303209
521,615.2406474751489
522,615.2663594895282
523,615.2909047368721
524,615.3142594973382
525,615.3364061667967
526,615.3573333158408
527,615.3770357094928
528,615.3955142878374
529,615.4127761077738
530,615.4288342468693
531,615.443707671571
532,615.4574210730783
533,615.4700046745165
534,615.4814940125966
535,615.4919296960245
536,615.5013571419756
537,615.5098262911805
538,615.5173913014785
539,615.5241102189491
540,615.5300446251803
541,615.5352592595301
542,615.5398216166546
543,615.5438015216546
544,615.5472706872929
545,615.5503022594003
546,615.5529703574456
547,615.5553496168923
548,615.5575147382925
549,615.559540045733
550,615.5614990553202
551,615.5634640535362
552,615.5655056853152
553,615.5676925520829
554,615.5700908206719
555,615.5727638450711
556,615.5757718040684
557,615.5791713582817
558,615.583015329556
559,615.5873524047419
560,615.5922268652641
561,615.5976783439011
562,615.6037416105021
563,615.610446388563
564,615.6178172043255
565,615.6258732692156
566,615.6346283953552
567,615.6440909433833
568,615.6542638022353
569,615.6651444014396
570,615.6767247575133
571,615.6889915570464
572,615.7019262795219
573,615.7155053621342
574,615.72970040717
575,615.7444784310519
576,615.7598021535526
577,615.7756303252924
578,615.7919180903599
579,615.8086173786917
580,615.8256773209357
581,615.8430446780814
582,615.8606642789485
583,615.8784794596968
584,615.896432500369
585,615.9144650545048
586,615.932518569272
587,615.9505346948857
588,615.9684556826173
589,615.9862247702924
590,616.0037865533765
591,616.0210873390947
592,616.038075480602
593,616.0547016876184
594,616.0709193088724
595,616.0866845805256
596,616.1019568343781
597,616.1166986604735
598,616.1308760203495
599,616.1444583090972
600,616.1574183663968
601,616.1697324385851
602,616.1813800951458
603,616.1923441035367
604,616.2026102662488
605,616.212167224096
606,616.2210062305016
607,616.2291209026184
608,616.2365069555457
609,616.2431619251925
610,616.2490848839161
611,616.2542761517492
612,616.2587370053552
613,616.2624693869508
614,616.2654756161533
615,616.2677581087789
616,616.2693191076023
617,616.2701604305618
618,616.2702832418232
619,616.2696878508933
620,616.2683735447865
621,616.2663384578034
622,616.2635794826028
623,616.2600922252486
624,616.2558710061319
625,616.250908908217
626,616.2451978738228
627,616.2387288507144
628,616.2314919870391
629,616.223476872424
630,616.2146728199024
631,616.205069181085
632,616.1946556856437
633,616.1834227955948
634,616.1713620646465
635,616.1584664928122
636,616.1447308666601
637,616.1301520759982
638,616.114729398623
639,616.0984647463903
640,616.0813628683088
641,616.063431508869
642,616.0446815214196
643,616.0251269365823
644,616.0047849849255
645,615.9836760728036
646,615.9618237114822
647,615.9392544021084
648,615.9159974814289
649,615.8920849343335
650,615.8675511789751
651,615.8424328287869
652,615.8167684340158
653,615.7905982042877
654,615.7639637136829
655,615.7369075906074
656,615.7094731956349
657,615.6817042907977
658,615.6536447036449
659,615.625337989523
660,615.5968270964652
661,615.5681540387006
662,615.5393595867797
663,615.5104829840969
664,615.4815617003908
665,615.4526312321985
666,615.4237249586076
667,615.3948740584495
668,615.366107492508
669,615.3374520516112
670,615.30893246921
671,615.2805715953199
672,615.2523906267436
673,615.2244093856855
674,615.1966466357721
675,615.1691204223167
676,615.1418484230247
677,615.1148482960609
678,615.0881380138513
679,615.0617361725134
680,615.0356622680837
681,615.0099369319117
682,614.9845821188792
683,614.9596212433875
684,614.9350792592433
685,614.9109826807032
686,614.8873595431978
687,614.8642393038697
688,614.8416526840967
689,614.8196314585019
690,614.7982081975146
691,614.7774159731052
692,614.757288039194
693,614.7378574988694
694,614.7191569700346
695,614.7012182598766
696,614.6840720570198
697,614.6677476486046
698,614.6522726680282
699,614.6376728778586
700,614.6239719914071
701,614.6111915354077
702,614.5993507550855
703,614.5884665616054
704,614.5785535205421
705,614.5696238788832
706,614.5616876275687
707,614.5547525967274
708,614.5488245808921
709,614.5439074907142
710,614.5400035258027
711,614.5371133605815
712,614.5352363321426
713,614.5343706169964
714,614.5345133836652
715,614.5356609108294
716,614.5378086654473
717,614.5409513401269
718,614.5450828525162
719,614.5501963112973
720,614.5562839541129
721,614.5633370631368
722,614.5713458643513
723,614.5802994169529
724,614.5901854995526
725,614.6009904997462
726,614.6126993129799
727,614.6252952553349
728,614.6387599931282
729,614.6530734906079
730,614.6682139759588
731,614.6841579251072
732,614.7008800617965
733,614.7183533710463
734,614.7365491221149
735,614.7554368971803
736,614.7749846233065
737,614.7951586074747
738,614.8159235768264
739,614.8372427279432
740,614.859077789397
741,614.8813891010743
742,614.9041357127522
743,614.9272755038611
744,614.9507653261543
745,614.974561170363
746,614.9986183565778
747,615.0228917465449
748,615.0473359749398
749,615.0719056962533
750,615.0965558439677
751,615.1212418986489
752,615.1459201611902
753,615.1705480269445
754,615.1950842561898
755,615.2194892361525
756,615.2437252292922
757,615.2677566018727
758,615.2915500266906
759,615.3150746546053
760,615.3383022508151
761,615.361207293016
762,615.3837670294879
763,615.4059614961079
764,615.4277734926609
765,615.449188520491
766,615.4701946850405
767,615.4907825678698
768,615.5109450734036
769,615.5306772560949
770,615.5499761342859
771,615.5688404979771
772,615.5872707185456
773,615.6052685682248
774,615.6228370553566
775,615.639980278566
776,615.6567033002749
777,615.6730120382108
778,615.6889131726775
779,615.7044140666205
780,615.719522694591
781,615.7342475762491
782,615.7485977109586
783,615.7625825123012
784,615.7762117440129
785,615.7894954609621
786,615.8024439600061
787,615.8150677458955
788,615.8273775168763
789,615.8393841732582
790,615.8510988499478
791,615.8625329711792
792,615.8736983233867
793,615.8846071413179
794,615.8952722030757
795,615.9057069308162
796,615.9159254943206
797,615.9259429143169
798,615.9357751615081
799,615.9454392461298
800,615.9549532918722
801,615.9643365874708
802,615.9736096093961
803,615.982794009675
804,615.9919125635095
805,616.0009890718956
806,616.0100482152661
807,616.0191153557854
808,616.0282162883665
809,616.0373769432088
810,616.0466230450272
811,616.0559797360731
812,616.065471171744
813,616.0751200989081
814,616.0849474276297
815,616.0949718067332
816,616.1052092129873
817,616.115672562911
818,616.1263713554341
819,616.1373113532297
820,616.1484943105947
821,616.1599177557129
822,616.1715748341967
823,616.1834542189524
824,616.1955400890241
825,616.2078121774097
826,616.2202458851665
827,616.2328124568712
828,616.2454792109604
829,616.2582098177136
830,616.2709646175294
831,616.2837009725054
832,616.2963736449144
833,616.3089351966743
834,616.3213364040037
835,616.3335266811
836,616.345454506135
837,616.3570678425732
838,616.3683145490184
839,616.3791427714899
840,616.3895013131972
841,616.399339978564
842,616.4086098903742
843,616.4172637810323
844,616.4252562604476
845,616.4325440636915
846,616.439086281556
847,616.4448445769133
848,616.4497833895118
849,616.453870131493
850,616.4570753752885
851,616.4593730345285
852,616.4607405371986
853,616.4611589885956
854,616.4606133198242
855,616.4590924163343
856,616.4565892211473
857,616.4531008087405
858,616.4486284268219
859,616.4431775035939
860,616.4367576177921
861,616.4293824285971
862,616.421069563288
863,616.4118404625019
864,616.4017201855853
865,616.3907371806865
866,616.3789230254275
867,616.3663121444213
868,616.3529415099619
869,616.3388503321114
870,616.3240797441707
871,616.308672488954
872,616.2926726103277
873,616.2761251535977
874,616.2590758780232
875,616.2415709846812
876,616.223656862375
877,616.2053798532023
878,616.1867860383563
879,616.1679210439921
880,616.1488298662032
881,616.1295567130481
882,616.1101448602875
883,616.0906365163543
884,616.0710726915083
885,616.0514930666685
886,616.0319358592537
887,616.0124376855629
888,615.9930334202837
889,615.9737560533421
890,615.9546365439021
891,615.9357036723006
892,615.9169838927698
893,615.8985011916513
894,615.8802769565716
895,615.8623298618805
896,615.8446757750405
897,615.8273276877343
898,615.8102956742795
899,615.7935868790496
900,615.777205534667
901,615.7611530135681
902,615.745427916144
903,615.7300261980553
904,615.714941337113
905,615.7001645366993
906,615.6856849593303
907,615.6714899819772
908,615.6575654643796
909,615.6438960219733
910,615.6304652956118
911,615.6172562113697
912,615.6042512259693
913,615.5914325564125
914,615.5787823951022
915,615.5662831130365
916,615.5539174533656
