frame_number,force
0,615.2464993491329
1,615.2623355292325
2,615.2770670382229
3,615.2906854792033
4,615.3031840408236
5,615.3145574649506
6,615.3248020160582
7,615.3339154526891
8,615.3418970015572
9,615.34874733512
10,615.354468553581
11,615.3590641722365
12,615.3625391149163
13,615.3648997140631
14,615.3661537177871
15,615.3663103040246
16,615.3653801016629
17,615.3633752181914
18,615.3603092730893
19,615.3561974358569
20,615.3510564673737
21,615.3449047631308
22,615.3377623968147
23,615.3296511627075
24,615.3205946153873
25,615.3106181052609
26,615.2997488085533
27,615.2880157505625
28,615.275449821191
29,615.2620837819265
30,615.2479522635565
31,615.2330917540603
32,615.2175405763454
33,615.2013388557338
34,615.1845284772733
35,615.1671530330151
36,615.149257759401
37,615.1308894649263
38,615.1120964483283
39,615.0929284076452
40,615.0734363405397
41,615.053672436345
42,615.0336899604366
43,615.0135431317517
44,614.9932869944959
45,614.9729772852268
46,614.9526702965453
47,614.9324227385927
48,614.9122915994719
49,614.8923340055612
50,614.8726070824437
51,614.8531678169188
52,614.8340729204001
53,614.815378694002
54,614.7971408957413
55,614.7794146103664
56,614.7622541222684
57,614.7457127917812
58,614.7298429350462
59,614.71469570758
60,614.7003209916778
61,614.686767287736
62,614.6740816094685
63,614.6623093828731
64,614.6514943486974
65,614.6416784681002
66,614.6329018312628
67,614.6252025689366
68,614.6186167672008
69,614.613178385897
70,614.6089191812621
71,614.6058686332586
72,614.6040538780472
73,614.6034996460158
74,614.6042282057697
75,614.6062593144294
76,614.6096101744231
77,614.6142953967247
78,614.6203269703262
79,614.6277142377365
80,614.6364638764393
81,614.6465798864652
82,614.6580635844638
83,614.6709136047907
84,614.6851259081113
85,614.7006937978942
86,614.717607945016
87,614.7358564204985
88,614.7554247361885
89,614.7762958930529
90,614.7984504367605
91,614.8218665202844
92,614.8465199733049
93,614.8723843782095
94,614.8994311524505
95,614.9276296369218
96,614.9569471898465
97,614.9873492855098
98,615.018799617122
99,615.0512602031428
100,615.0846914965141
101,615.1190524963844
102,615.154300862056
103,615.190393029016
104,615.2272843269587
105,615.2649290996615
106,615.3032808265058
107,615.342292245416
108,615.381915477064
109,615.4221021502361
110,615.4628035281595
111,615.503970635302
112,615.5455543838024
113,615.5875056984039
114,615.6297756386415
115,615.6723155170697
116,615.7150770124753
117,615.7580122772048
118,615.8010740378721
119,615.8442156887598
120,615.8873913772542
121,615.9305560807085
122,615.9736656742251
123,616.0166769889877
124,616.0595478610007
125,616.1022371703766
126,616.1447048715329
127,616.1869120147827
128,616.2288207598868
129,616.2703943823303
130,616.3115972733748
131,616.3523949352001
132,616.3927539725948
133,616.4326420826899
134,616.4720280442334
135,616.5108817078618
136,616.5491739886656
137,616.5868768620635
138,616.6239633636495
139,616.6604075933733
140,616.6961847241953
141,616.7312710152178
142,616.7656438291383
143,616.7992816536351
144,616.8321641259937
145,616.8642720600426
146,616.8955874743772
147,616.9260936208708
148,616.9557750125186
149,616.9846174496764
150,617.0126080437375
151,617.0397352372369
152,617.0659888192916
153,617.0913599352059
154,617.1158410890789
155,617.1394261384337
156,617.1621102801981
157,617.1838900277083
158,617.2047631786752
159,617.2247287742658
160,617.2437870496734
161,617.2619393768093
162,617.27918819998
163,617.2955369655386
164,617.3109900465521
165,617.3255526635936
166,617.3392308028835
167,617.3520311330766
168,617.3639609219897
169,617.3750279545045
170,617.3852404527579
171,617.3946069995732
172,617.4031364658974
173,617.410837942798
174,617.4177206783024
175,617.4237940190347
176,617.4290673563169
177,617.4335500762925
178,617.4372515137308
179,617.4401809093403
180,617.4423473705546
181,617.4437598358194
182,617.4444270424962
183,617.4443574986299
184,617.4435594589897
185,617.4420409059361
186,617.4398095357319
187,617.4368727508836
188,617.4332376589562
189,617.4289110781244
190,617.4238995495691
191,617.418209356741
192,617.4118465514773
193,617.4048169869404
194,617.3971263573457
195,617.3887802443749
196,617.3797841700257
197,617.3701436554502
198,617.3598642851689
199,617.3489517758743
200,617.337412048811
201,617.3252513044445
202,617.3124760979011
203,617.2990934135171
204,617.2851107367686
205,617.2705361218782
206,617.2553782535181
207,617.2396465012758
208,617.2233509658323
209,617.2065025160089
210,617.1891128159194
211,617.1711943414477
212,617.1527603852848
213,617.1338250498771
214,617.1144032278646
215,617.0945105698429
216,617.0741634395316
217,617.0533788566274
218,617.0321744278104
219,617.0105682665736
220,616.9885789027502
221,616.9662251828122
222,616.943526162194
223,616.9205009910404
224,616.897168794872
225,616.8735485516887
226,616.8496589670531
227,616.8255183487237
228,616.8011444824159
229,616.7765545101748
230,616.7517648126577
231,616.7267908964101
232,616.7016472870205
233,616.6763474288532
234,616.6509035919132
235,616.6253267862814
236,616.5996266844569
237,616.5738115518077
238,616.5478881851924
239,616.5218618597307
240,616.4957362837208
241,616.469513561841
242,616.4431941669982
243,616.4167769213926
244,616.3902589874842
245,616.3636358695389
246,616.3369014263815
247,616.3100478958945
248,616.2830659317128
249,616.2559446524285
250,616.2286717034638
251,616.2012333315676
252,616.173614471641
253,616.1457988453265
254,616.1177690705059
255,616.0895067805757
256,616.0609927521136
257,616.03220703944
258,616.0031291146388
259,615.9737380117901
260,615.9440124743303
261,615.9139311045635
262,615.883472514423
263,615.8526154766704
264,615.8213390758364
265,615.7896228583209
266,615.7574469811995
267,615.7247923594575
268,615.6916408115233
269,615.6579752030553
270,615.623779588935
271,615.589039353336
272,615.553741347575
273,615.517874025229
274,615.4814275738004
275,615.4443940420737
276,615.4067674622033
277,615.3685439654699
278,615.3297218905952
279,615.2903018835648
280,615.2502869880403
281,615.2096827255651
282,615.1684971648147
283,615.1267409791373
284,615.0844274916096
285,615.0415727068441
286,614.9981953288386
287,614.9543167642572
288,614.9099611106561
289,614.8651551292643
290,614.8199282019765
291,614.7743122722885
292,614.7283417700825
293,614.6820535204301
294,614.6354866368109
295,614.5886823992539
296,614.5416841179764
297,614.4945369831786
298,614.4472879017527
299,614.3999853217412
300,614.3526790454865
301,614.3054200326073
302,614.2582601941554
303,614.2112521794469
304,614.1644491570828
305,614.1179045916193
306,614.0716720172528
307,614.0258048097468
308,613.9803559577224
309,613.9353778344165
310,613.8909219710879
311,613.8470388334088
312,613.8037776023734
313,613.7611859614211
314,613.7193098915329
315,613.678193476021
316,613.6378787166194
317,613.5984053623487
318,613.5598107524585
319,613.5221296745121
320,613.4853942383884
321,613.4496337667138
322,613.4148747020851
323,613.3811405313651
324,613.3484517272836
325,613.3168257075249
326,613.2862768114238
327,613.2568162942879
328,613.2284523391985
329,613.201190085964
330,613.1750316767456
331,613.1499763177491
332,613.1260203562182
333,613.1031573717704
334,613.081378280892
335,613.0606714532009
336,613.0410228379374
337,613.0224160990823
338,613.0048327575696
339,612.9882523391934
340,612.9726525269832
341,612.958009316965
342,612.9442971763272
343,612.9314892030061
344,612.9195572856244
345,612.9084722626013
346,612.8982040792133
347,612.8887219414216
348,612.8799944653375
349,612.8719898211468
350,612.864675870203
351,612.8580202939615
352,612.8519907136038
353,612.8465547995971
354,612.8416803709604
355,612.8373354844882
356,612.8334885145707
357,612.8301082244893
358,612.8271638301981
359,612.8246250575976
360,612.8224621942163
361,612.820646136096
362,612.8191484306179
363,612.8179413159947
364,612.8169977581374
365,612.816291485538
366,612.8157970227105
367,612.8154897226364
368,612.8153457986045
369,612.8153423558423
370,612.8154574233806
371,612.8156699866507
372,612.8159600212922
373,612.8163085285717
374,612.8166975727052
375,612.817110320296
376,612.817531082018
377,612.8179453565309
378,612.8183398763921
379,612.8187026554716
380,612.8190230371746
381,612.8192917426722
382,612.8195009183229
383,612.8196441814871
384,612.8197166639502
385,612.8197150521282
386,612.8196376232158
387,612.8194842764738
388,612.8192565589216
389,612.8189576847399
390,612.8185925476942
391,612.8181677259403
392,612.8176914786569
393,612.8171737340168
394,612.816626068011
395,612.8160616735726
396,612.8154953193691
397,612.8149432976218
398,612.8144233604074
399,612.8139546440933
400,612.8135575817896
401,612.8132538039526
402,612.8130660274815
403,612.8130179337892
404,612.8131340363807
405,612.8134395384933
406,612.8139601814732
407,612.8147220848057
408,612.8157515790311
409,612.817075033041
410,612.8187186774259
411,612.820708425679
412,612.8230696951466
413,612.8258272296723
414,612.8290049258566
415,612.8326256647757
416,612.8367111508933
417,612.8412817597793
418,612.8463563961119
419,612.8519523632676
420,612.8580852456855
421,612.8647688050951
422,612.8720148915934
423,612.8798333704306
424,612.8882320652505
425,612.8972167184595
426,612.9067909692927
427,612.9169563499851
428,612.9277123002498
429,612.9390562000804
430,612.9509834207381
431,612.9634873936784
432,612.9765596970904
433,612.9901901596149
434,613.0043669805543
435,613.0190768654868
436,613.0343051757931
437,613.0500360903053
438,613.0662527771101
439,613.0829375733739
440,613.1000721708582
441,613.1176378046204
442,613.13561544236
443,613.1539859719875
444,613.1727303851856
445,613.1918299548911
446,613.2112664047254
447,613.231022068454
448,613.2510800376286
449,613.2714242957006
450,613.2920398371199
451,613.3129127702314
452,613.3340304031299
453,613.3553813119958
454,613.3769553917692
455,613.3987438892643
456,613.4207394189747
457,613.4429359619073
458,613.4653288478829
459,613.4879147218817
460,613.5106914951758
461,613.5336582821584
462,613.5568153239398
463,613.58016389991
464,613.6037062285002
465,613.6274453583227
466,613.6513850507873
467,613.6755296552255
468,613.699883977543
469,613.7244531434816
470,613.7492424576685
471,613.7742572596984
472,613.7995027785324
473,613.8249839865424
474,613.8507054546136
475,613.876671209767
476,613.9028845967338
477,613.9293481448318
478,613.9560634414299
479,613.9830310132534
480,614.0102502167646
481,614.0377191388236
482,614.0654345087909
483,614.0933916232051
484,614.1215842840874
485,614.1500047517164
486,614.1786437123616
487,614.2074902610401
488,614.2365318990136
489,614.2657545454958
490,614.2951425629283
491,614.3246787951224
492,614.3543446175571
493,614.3841199991197
494,614.4139835745614
495,614.4439127268927
496,614.4738836788871
497,614.5038715928324
498,614.533850677675
499,614.5637943027072
500,614.593675116917
501,614.6234651731257
502,614.6531360561328
503,614.6826590141885
504,614.7120050931233
505,614.7411452723867
506,614.7700506022081
507,614.7986923411197
508,614.8270420931614
509,614.8550719441331
510,614.8827545962795
511,614.9100635008067
512,614.936972987665
513,614.9634583920408
514,614.9894961769908
515,615.0150640516339
516,615.040141084317
517,615.0647078101322
518,615.0887463320965
519,615.1122404152266
520,615.1351755726968
521,615.1575391433071
522,615.179320359544
523,615.2005104056301
524,615.2211024651161
525,615.2410917577722
526,615.26047556568
527,615.27925324846
528,615.2974262475424
529,615.3149980794184
530,615.3319743179431
531,615.3483625659766
532,615.3641724168215
533,615.3794154059947
534,615.3941049538403
535,615.4082562993977
536,615.4218864258376
537,615.4350139777017
538,615.4476591701202
539,615.4598436901
540,615.4715905899324
541,615.4829241728331
542,615.4938698711458
543,615.5044541177449
544,615.5147042115868
545,615.5246481785989
546,615.5343146292333
547,615.5437326139767
548,615.5529314778844
549,615.5619407149019
550,615.5707898224679
551,615.5795081567884
552,615.5881247891698
553,615.5966683638536
554,615.6051669578867
555,615.6136479436963
556,615.622137855184
557,615.6306622582047
558,615.6392456262123
559,615.6479112217077
560,615.6566809840274
561,615.6655754239952
562,615.6746135259823
563,615.6838126579275
564,615.6931884898133
565,615.7027549209539
566,615.7125240162821
567,615.7225059517235
568,615.7327089687813
569,615.7431393385563
570,615.7538013355394
571,615.7646972216266
572,615.7758272408443
573,615.7871896251379
574,615.7987806113193
575,615.8105944690392
576,615.8226235395485
577,615.834858284933
578,615.847287347305
579,615.8598976171147
580,615.8726743094588
581,615.8856010471819
582,615.8986599496612
583,615.9118317262946
584,615.9250957738135
585,615.9384302766672
586,615.951812309909
587,615.9652179441841
588,615.978622352483
589,615.9919999182607
590,616.0053243444066
591,616.0185687624514
592,616.0317058413407
593,616.0447078950149
594,616.0575469878908
595,616.0701950371777
596,616.0826239109127
597,616.0948055207168
598,616.1067119084976
599,616.1183153265977
600,616.1295883111696
601,616.1405037488222
602,616.1510349367765
603,616.1611556368507
604,616.1708401235983
605,616.1800632269486
606,616.1888003698167
607,616.1970276013019
608,616.2047216261678
609,616.2118598312071
610,616.2184203089104
611,616.2243818786886
612,616.2297241058159
613,616.2344273182812
614,616.2384726218525
615,616.2418419138064
616,616.2445178959284
617,616.2464840874567
618,616.2477248386463
619,616.2482253456087
620,616.2479716670599
621,616.2469507435612
622,616.2451504197231
623,616.242559469709
624,616.2391676262805
625,616.234965613564
626,616.2299451836976
627,616.2240991574591
628,616.2174214688132
629,616.2099072130147
630,616.2015526975483
631,616.1923554948762
632,616.1823144957872
633,616.1714299620651
634,616.1597035771679
635,616.1471384936046
636,616.1337393757236
637,616.1195124366905
638,616.1044654685517
639,616.0886078645043
640,616.0719506328362
641,616.0545064023498
642,616.0362894193025
643,616.0173155359272
644,615.9976021904931
645,615.977168378828
646,615.9560346173892
647,615.9342228983134
648,615.9117566371963
649,615.8886606145184
650,615.8649609115894
651,615.8406848416912
652,615.8158608768631
653,615.7905185706243
654,615.7646884769243
655,615.7384020657249
656,615.7116916357356
657,615.6845902248716
658,615.6571315189767
659,615.6293497593757
660,615.6012796499436
661,615.5729562646063
662,615.5444149564566
663,615.5156912699142
664,615.4868208574659
665,615.4578394024389
666,615.4287825490337
667,615.3996858405371
668,615.3705846662839
669,615.3415142175585
670,615.3125094523182
671,615.2836050683766
672,615.254835484418
673,615.226234827826
674,615.1978369278812
675,615.1696753125823
676,615.1417832072582
677,615.1141935332357
678,615.0869389050265
679,615.060051624708
680,615.0335636723461
681,615.0075066914748
682,614.9819119688232
683,614.9568104076599
684,614.9322324942868
685,614.9082082573734
686,614.8847672199921
687,614.8619383444427
688,614.8397499702327
689,614.8182297459012
690,614.7974045557312
691,614.7773004427398
692,614.757942529604
693,614.739354939261
694,614.7215607168548
695,614.7045817545277
696,614.6884387203509
697,614.6731509924607
698,614.6587365992599
699,614.6452121663731
700,614.6325928709064
701,614.6208924034108
702,614.6101229377927
703,614.6002951092298
704,614.591417999967
705,614.5834991327023
706,614.5765444712056
707,614.5705584278265
708,614.5655438775615
709,614.5615021782396
710,614.5584331961226
711,614.5563353358341
712,614.5552055731252
713,614.5550394886925
714,614.555831301263
715,614.5575738985384
716,614.5602588652288
717,614.5638765080654
718,614.5684158781614
719,614.5738647913263
720,614.5802098470359
721,614.5874364468065
722,614.5955288127617
723,614.6044700072204
724,614.6142419541604
725,614.6248254633947
726,614.6362002581957
727,614.6483450069201
728,614.6612373589358
729,614.6748539849284
730,614.6891706215068
731,614.7041621199189
732,614.7198024985441
733,614.7360649986348
734,614.7529221426325
735,614.7703457943961
736,614.7883072208523
737,614.8067771548833
738,614.8257258595846
739,614.8451231942482
740,614.8649386824849
741,614.8851415827894
742,614.905700961711
743,614.9265857697127
744,614.9477649197751
745,614.9692073687041
746,614.9908822009259
747,615.0127587143293
748,615.034806507574
749,615.0569955682139
750,615.0792963610024
751,615.1016799157383
752,615.124117913961
753,615.1465827737441
754,615.1690477317981
755,615.1914869220695
756,615.2138754499621
757,615.2361894612164
758,615.258406204476
759,615.2805040866809
760,615.3024627206172
761,615.3242629641294
762,615.3458869506362
763,615.3673181107331
764,615.3885411848642
765,615.4095422272904
766,615.4303086018003
767,615.4508289697637
768,615.4710932712355
769,615.4910926998874
770,615.510819672642
771,615.5302677950243
772,615.5494318233726
773,615.5683076250338
774,615.5868921374303
775,615.6051833265097
776,615.623180144721
777,615.6408824884322
778,615.6582911545969
779,615.6754077963819
780,615.6922348773594
781,615.7087756238059
782,615.7250339747922
783,615.7410145300661
784,615.7567224961113
785,615.7721636310606
786,615.7873441893237
787,615.8022708668335
788,615.8169507477578
789,615.8313912533349
790,615.8456000931861
791,615.8595852190812
792,615.873354780822
793,615.8869170837955
794,615.9002805478314
795,615.9134536671406
796,615.9264449711821
797,615.9392629862556
798,615.9519161974887
799,615.9644130107329
800,615.9767617137359
801,615.9889704358886
802,616.001047105852
803,616.0129994064456
804,616.0248347262625
805,616.036560107536
806,616.0481821898946
807,616.0597071498443
808,616.0711406361468
809,616.0824877016267
810,616.0937527322496
811,616.1049393745683
812,616.1160504628544
813,616.1270879473972
814,616.138052825513
815,616.1489450767643
816,616.1597636037706
817,616.1705061798771
818,616.1811694048203
819,616.1917486694533
820,616.2022381305868
821,616.212630696976
822,616.2229180273371
823,616.2330905410032
824,616.2431374414849
825,616.2530467528143
826,616.2628053681693
827,616.2723991099497
828,616.281812800243
829,616.291030340506
830,616.3000347992519
831,616.3088085065725
832,616.3173331543945
833,616.3255899014223
834,616.3335594817285
835,616.3412223158931
836,616.348558623511
837,616.3555485358442
838,616.3621722074159
839,616.3684099254406
840,616.3742422161371
841,616.3796499472115
842,616.3846144260851
843,616.3891174937394
844,616.3931416142638
845,616.3966699602869
846,616.3996864944752
847,616.4021760472631
848,616.4041243909521
849,616.405518310279
850,616.4063456694826
851,616.4065954757679
852,616.4062579388936
853,616.4053245263909
854,616.4037880136892
855,616.4016425282724
856,616.3988835870263
857,616.3955081261392
858,616.3915145231123
859,616.3869026104985
860,616.3816736809738
861,616.3758304833315
862,616.3693772091178
863,616.3623194699202
864,616.3546642656974
865,616.3464199448572
866,616.3375961569661
867,616.3282037990538
868,616.3182549564946
869,616.3077628394543
870,616.2967417158662
871,616.2852068418397
872,616.273174390281
873,616.2606613783962
874,616.2476855947142
875,616.2342655262692
876,616.2204202865106
877,616.2061695443726
878,616.1915334547881
879,616.1765325908384
880,616.1611878776216
881,616.1455205277675
882,616.1295519783528
883,616.1133038288084
884,616.0967977793297
885,616.080055569369
886,616.0630989160373
887,616.0459494525345
888,616.028628666868
889,616.0111578410551
890,615.9935579909402
891,615.9758498068817
892,615.9580535958364
893,615.940189225607
894,615.9222760721159
895,615.9043329705321
896,615.8863781709754
897,615.8684292993856
898,615.850503323968
899,615.8326165274881
900,615.8147844856865
901,615.7970220521847
902,615.7793433503214
903,615.7617617722647
904,615.7442899854287
905,615.72693994574
906,615.7097229168261
907,615.6926494939148
908,615.6757296311691
909,615.658972671228
910,615.642387375791
911,615.6259819562338
912,615.6097641035392
913,615.5937410172479
914,615.5779194334962
915,615.5623056523867
916,615.5469055648942
