frame_number,force
0,615.2475960360055
1,615.2632778729626
2,615.2778635569222
3,615.2913453209237
4,615.3037168926917
5,615.3149734600395
6,615.3251116385161
7,615.3341294416601
8,615.3420262544694
9,615.3488028109676
10,615.3544611768974
11,615.3590047385138
12,615.3624381982803
13,615.364767578042
14,615.3660002300338
15,615.3661448558448
16,615.3652115331889
17,615.3632117499898
18,615.3601584449208
19,615.3560660532082
20,615.3509505562657
21,615.3448295335833
22,615.3377222152169
23,615.3296495332104
24,615.3206341703046
25,615.3107006043368
26,615.2998751468382
27,615.2881859745304
28,615.2756631526468
29,615.2623386491731
30,615.2482463392275
31,615.2334219989673
32,615.2179032886531
33,615.2017297247604
34,615.1849426412059
35,615.1675851398345
36,615.1497020303082
37,615.1313397595671
38,615.112546331122
39,615.0933712145373
40,615.0738652455228
41,615.054080517115
42,615.0340702625898
43,615.0138887309774
44,614.9935910562965
45,614.9732331217759
46,614.9528714203827
47,614.9325629129365
48,614.9123648850076
49,614.8923348036292
50,614.8725301745955
51,614.8530084008346
52,614.8338266421714
53,614.8150416767963
54,614.7967097648875
55,614.7788865149255
56,614.7616267531827
57,614.7449843967032
58,614.7290123299521
59,614.7137622852716
60,614.6992847272774
61,614.6856287412713
62,614.6728419256349
63,614.6609702880334
64,614.6500581451553
65,614.6401480256451
66,614.6312805759566
67,614.6234944691021
68,614.6168263165858
69,614.6113105840167
70,614.6069795109565
71,614.6038630355354
72,614.6019887243078
73,614.6013817077954
74,614.6020646221415
75,614.6040575572548
76,614.6073780116373
77,614.612040853839
78,614.6180582903147
79,614.6254398394532
80,614.6341923117081
81,614.6443197959999
82,614.6558236528022
83,614.6687025144776
84,614.6829522934008
85,614.6985661982818
86,614.7155347589294
87,614.7338458594852
88,614.753484779928
89,614.7744342455042
90,614.7966744837353
91,614.8201832887252
92,614.8449360925388
93,614.8709060434412
94,614.8980640907517
95,614.9263790759572
96,614.9558178295465
97,614.9863452728605
98,615.0179245241987
99,615.0505170084746
100,615.0840825698353
101,615.1185795868099
102,615.1539650897104
103,615.1901948801494
104,615.2272236525896
105,615.2650051177918
106,615.303492127951
107,615.3426368032908
108,615.3823906599663
109,615.4227047391802
110,615.4635297373069
111,615.5048161365157
112,615.5465143349974
113,615.5885747755916
114,615.6309480714802
115,615.6735851276529
116,615.7164372570156
117,615.7594562902184
118,615.8025946784211
119,615.845805588269
120,615.8890429883759
121,615.9322617266749
122,615.9754175980955
123,616.0184674021809
124,616.0613689905014
125,616.1040813040211
126,616.1465644008223
127,616.1887794747132
128,616.2306888653432
129,616.272256060652
130,616.3134456927966
131,616.3542235289775
132,616.3945564587453
133,616.4344124794042
134,616.4737606811325
135,616.5125712333955
136,616.550815374053
137,616.5884654022558
138,616.6254946758531
139,616.6618776136957
140,616.697589702989
141,616.732607511697
142,616.7669087058257
143,616.8004720711681
144,616.8332775387565
145,616.8653062130174
146,616.8965404015206
147,616.9269636452364
148,616.9565607482677
149,616.9853178060423
150,617.0132222309214
151,617.0402627741328
152,617.0664295428405
153,617.0917140110836
154,617.1161090233213
155,617.1396087895196
156,617.1622088710483
157,617.183906157028
158,617.2046988310555
159,617.2245863284639
160,617.2435692845147
161,617.2616494741967
162,617.2788297445596
163,617.2951139406422
164,617.3105068261109
165,617.325013999804
166,617.3386418094908
167,617.3513972642429
168,617.3632879468099
169,617.374321927323
170,617.3845076795233
171,617.3938540005392
172,617.402369935033
173,617.4100647043068
174,617.4169476406731
175,617.423028127033
176,617.4283155412991
177,617.4328192051834
178,617.4365483369736
179,617.4395120081143
180,617.4417191035459
181,617.4431782858311
182,617.4438979631902
183,617.4438862617106
184,617.4431510021699
185,617.4416996820655
186,617.4395394635208
187,617.4366771676927
188,617.4331192761631
189,617.4288719395926
190,617.4239409937547
191,617.4183319829742
192,617.4120501909482
193,617.4051006789207
194,617.3974883311704
195,617.3892179077026
196,617.3802941038686
197,617.3707216164338
198,617.3605052154263
199,617.3496498209195
200,617.3381605836503
201,617.3260429680829
202,617.3133028362744
203,617.2999465307471
204,617.2859809545007
205,617.2714136463175
206,617.2562528496528
207,617.2405075736673
208,617.2241876452614
209,617.2073037512001
210,617.1898674694955
211,617.171891289202
212,617.153388617792
213,617.1343737754071
214,617.1148619755206
215,617.0948692918323
216,617.0744126114712
217,617.053509574805
218,617.0321785023552
219,617.0104383095317
220,616.9883084101265
221,616.9658086097184
222,616.9429589903328
223,616.9197797878651
224,616.896291263867
225,616.8725135733372
226,616.848466630169
227,616.8241699719484
228,616.799642625796
229,616.7749029768522
230,616.7499686408017
231,616.7248563416023
232,616.6995817953676
233,616.6741596011611
234,616.6486031392902
235,616.6229244775759
236,616.5971342859574
237,616.5712417596503
238,616.5452545509254
239,616.5191787094855
240,616.49301863144
241,616.4667770170294
242,616.4404548374927
243,616.4140513117011
244,616.3875638932999
245,616.3609882691005
246,616.3343183694041
247,616.307546390851
248,616.2806628322884
249,616.253656544008
250,616.2265147905375
251,616.1992233269464
252,616.1717664883641
253,616.144127292112
254,616.1162875515441
255,616.088228000388
256,616.0599284261075
257,616.0313678106883
258,616.0025244773146
259,615.9733762416047
260,615.943900566256
261,615.9140747180654
262,615.8838759263662
263,615.8532815420281
264,615.8222691962845
265,615.7908169587779
266,615.7589034943554
267,615.7265082183292
268,615.6936114500825
269,615.6601945649901
270,615.6262401446179
271,615.5917321250791
272,615.5566559432447
273,615.5209986802662
274,615.4847492016511
275,615.4478982929784
276,615.4104387902273
277,615.3723657035872
278,615.3336763335592
279,615.294370378221
280,615.2544500306739
281,615.2139200658164
282,615.1727879156431
283,615.1310637322537
284,615.0887604377401
285,615.0458937601261
286,615.0024822545914
287,614.9585473093197
288,614.9141131354394
289,614.8692067406298
290,614.8238578860162
291,614.7780990260533
292,614.7319652312848
293,614.6854940941512
294,614.6387256182571
295,614.5917020916368
296,614.5444679446164
297,614.4970695929703
298,614.4495552671699
299,614.401974828608
300,614.3543795737944
301,614.3068220277265
302,614.2593557278757
303,614.2120350003765
304,614.1649147300329
305,614.1180501256945
306,614.0714964824498
307,614.0253089419375
308,613.9795422519625
309,613.9342505265821
310,613.8894870079132
311,613.845303831079
312,613.8017517939239
313,613.7588801333043
314,613.7167363098331
315,613.6753658029091
316,613.6348119177463
317,613.5951156059712
318,613.5563153011753
319,613.5184467705544
320,613.481542983449
321,613.445633997327
322,613.4107468615774
323,613.3769055394082
324,613.3441308480853
325,613.3124404176955
326,613.2818486685552
327,613.2523668072754
328,613.2240028413177
329,613.1967616116796
330,613.1706448431919
331,613.1456512117662
332,613.1217764277694
333,613.0990133344873
334,613.0773520204039
335,613.0567799437995
336,613.0372820680064
337,613.0188410056054
338,613.0014371699126
339,612.985048932258
340,612.9696527837391
341,612.9552235002969
342,612.941734310066
343,612.9291570619508
344,612.9174623942926
345,612.9066199023667
346,612.8965983034116
347,612.8873655979266
348,612.8788892260432
349,612.8711362177135
350,612.8640733353451
351,612.8576672074685
352,612.851884452215
353,612.846691789817
354,612.8420561438977
355,612.8379447318503
356,612.834325145014
357,612.8311654196202
358,612.828434099618
359,612.8261002924921
360,612.8241337190798
361,612.8225047582669
362,612.8211844873798
363,612.8201447190776
364,612.8193580355257
365,612.8187978205647
366,612.8184382904763
367,612.8182545238465
368,612.8182224909634
369,612.8183190831902
370,612.8185221428106
371,612.818810493893
372,612.8191639747077
373,612.8195634721363
374,612.819990958402
375,612.8204295303582
376,612.8208634514838
377,612.8212781965764
378,612.8216604988957
379,612.821998399228
380,612.8222812961267
381,612.8224999964635
382,612.8226467654135
383,612.8227153750096
384,612.822701150417
385,612.8226010130371
386,612.8224135195268
387,612.8221388958605
388,612.8217790656413
389,612.8213376718975
390,612.8208200916182
391,612.8202334423264
392,612.8195865800789
393,612.8188900883583
394,612.8181562573211
395,612.8173990527898
396,612.8166340742969
397,612.8158785014737
398,612.8151510281833
399,612.8144717840042
400,612.8138622429262
401,612.8133451193866
402,612.8129442520002
403,612.8126844754893
404,612.8125914813697
405,612.812691667979
406,612.8130119805555
407,612.8135797423479
408,612.8144224780658
409,612.8155677312708
410,612.8170428774989
411,612.8188749350454
412,612.8210903754411
413,612.8237149357072
414,612.8267734344525
415,612.8302895937917
416,612.8342858689405
417,612.8387832872261
418,612.8438012980889
419,612.849357635484
420,612.8554681939477
421,612.8621469195008
422,612.8694057164461
423,612.877254370982
424,612.8857004924337
425,612.8947494728243
426,612.9044044653998
427,612.9146663825437
428,612.9255339132995
429,612.93700356052
430,612.9490696974933
431,612.961724643783
432,612.9749587599309
433,612.9887605605586
434,613.0031168451268
435,613.0180128451883
436,613.033432386525
437,613.0493580642412
438,613.0657714286981
439,613.0826531799909
440,613.0999833684584
441,613.1177415985298
442,613.1359072331703
443,613.1544595963188
444,613.1733781709173
445,613.1926427903031
446,613.21223382084
447,613.232132333725
448,613.2523202639823
449,613.2727805548041
450,613.2934972856407
451,613.3144557827618
452,613.3356427113889
453,613.3570461488894
454,613.3786556388804
455,613.4004622263589
456,613.4224584741278
457,613.4446384608906
458,613.4669977614835
459,613.4895334098754
460,613.5122438457346
461,613.5351288455456
462,613.5581894394323
463,613.5814278149802
464,613.6048472093847
465,613.628451791201
466,613.6522465328745
467,613.6762370751647
468,613.7004295845595
469,613.724830604844
470,613.7494469040914
471,613.774285318416
472,613.7993525938682
473,613.8246552279047
474,613.8501993119518
475,613.875990376635
476,613.9020332412164
477,613.9283318686964
478,613.9548892279588
479,613.9817071643087
480,614.0087862797334
481,614.0361258241815
482,614.0637235991142
483,614.0915758745488
484,614.1196773207257
485,614.1480209553102
486,614.1765981066527
487,614.2053983931821
488,614.2344097186193
489,614.2636182824479
490,614.2930086049452
491,614.3225635660209
492,614.3522644570984
493,614.3820910452723
494,614.4120216489642
495,614.4420332242427
496,614.4721014609173
497,614.502200887485
498,614.5323049840121
499,614.5623863020446
500,614.5924165906029
501,614.6223669273285
502,614.6522078539512
503,614.6819095153504
504,614.7114418015004
505,614.7407744915027
506,614.7698773988669
507,614.7987205172337
508,614.827274165817
509,614.8555091338924
510,614.8833968236798
511,614.9109093909874
512,614.9380198830144
513,614.9647023727277
514,614.990932089209
515,615.016685543356
516,615.0419406483161
517,615.0666768339933
518,615.0908751548945
519,615.1145183904962
520,615.1375911372662
521,615.1600798915108
522,615.1819731222837
523,615.2032613337096
524,615.2239371162482
525,615.2439951866401
526,615.2634324164326
527,615.2822478490183
528,615.3004427050895
529,615.3180203764405
530,615.3349864081973
531,615.3513484697809
532,615.3671163150968
533,615.38230173253
534,615.3969184852876
535,615.41098224253
536,615.4245105016216
537,615.4375225017518
538,615.4500391291003
539,615.4620828136419
540,615.4736774176339
541,615.4848481158926
542,615.4956212682073
543,615.506024284564
544,615.516085484191
545,615.5258339496954
546,615.5352993777105
547,615.5445119274282
548,615.5535020681589
549,615.5623004267211
550,615.5709376351825
551,615.5794441793523
552,615.5878502484296
553,615.5961855862666
554,615.6044793448035
555,615.6127599403846
556,615.6210549138153
557,615.629390795076
558,615.6377929735233
559,615.6462855742469
560,615.6548913411461
561,615.6636315272754
562,615.6725257930324
563,615.6815921127688
564,615.6908466903465
565,615.7003038840102
566,615.7099761407641
567,615.7198739403372
568,615.7300057488615
569,615.7403779824928
570,615.7509949813299
571,615.7618589941106
572,615.7729701742026
573,615.7843265872658
574,615.7959242306839
575,615.807757064616
576,615.8198170544106
577,615.8320942240374
578,615.844576719981
579,615.85725088469
580,615.870101338373
581,615.8831110678414
582,615.8962615212034
583,615.9095327073583
584,615.9229032993426
585,615.9363507407252
586,615.9498513544404
587,615.9633804536352
588,615.9769124541748
589,615.9904209883848
590,616.0038790194812
591,616.0172589560401
592,616.0305327657901
593,616.0436720879217
594,616.0566483429452
595,616.0694328389601
596,616.0819968731429
597,616.09431182739
598,616.1063492572936
599,616.1180809739221
600,616.1294791181833
601,616.1405162278327
602,616.1511652973988
603,616.1613998313852
604,616.171193891112
605,616.1805221355921
606,616.1893598569544
607,616.1976830111026
608,616.2054682443694
609,616.2126929168312
610,616.2193351227525
611,616.2253737084387
612,616.2307882876937
613,616.2355592550987
614,616.2396677974506
615,616.2430959038653
616,616.2458263752061
617,616.24784283358
618,616.2491297326413
619,616.2496723694208
620,616.2494568983745
621,616.2484703482925
622,616.2467006425826
623,616.2441366233066
624,616.2407680792321
625,616.2365857781065
626,616.2315815033278
627,616.2257480951312
628,616.2190794962278
629,616.2115708015109
630,616.2032183110551
631,616.1940195853037
632,616.1839735011465
633,616.1730803075053
634,616.1613416790168
635,616.1487607663969
636,616.1353422421005
637,616.1210923399556
638,616.1060188875813
639,616.0901313306404
640,616.0734407483469
641,616.0559598600229
642,616.0377030227401
643,616.0186862201118
644,615.9989270421892
645,615.9784446563705
646,615.9572597694159
647,615.9353945810263
648,615.9128727297907
649,615.889719232487
650,615.8659604176728
651,615.8416238542898
652,615.8167382757565
653,615.7913334998619
654,615.7654403447626
655,615.739090541511
656,615.7123166436735
657,615.6851519346401
658,615.657630333205
659,615.629786298016
660,615.6016547316283
661,615.5732708851376
662,615.5446702646611
663,615.5158885412001
664,615.4869614655306
665,615.4579247896836
666,615.4288141963237
667,615.399665237016
668,615.370513279978
669,615.3413934675169
670,615.3123406830117
671,615.2833895270411
672,615.254574301967
673,615.225929003863
674,615.1974873202205
675,615.1692826315356
676,615.1413480147885
677,615.1137162469322
678,615.0864198067218
679,615.0594908734429
680,615.0329613212867
681,615.0068627082981
682,614.9812262590127
683,614.9560828400965
684,614.9314629284708
685,614.9073965715789
686,614.8839133396419
687,614.8610422699843
688,614.83881180382
689,614.8172497162345
690,614.7963830404794
691,614.7762379880796
692,614.75683986653
693,614.7382129964564
694,614.7203806300367
695,614.7033648722979
696,614.6871866066788
697,614.6718654260051
698,614.6574195698012
699,614.6438658686798
700,614.6312196963961
701,614.6194949300001
702,614.6087039183421
703,614.5988574589979
704,614.5899647834699
705,614.5820335503571
706,614.5750698461027
707,614.5690781929494
708,614.5640615637479
709,614.5600214031443
710,614.5569576543875
711,614.554868790585
712,614.553751848801
713,614.5536024650701
714,614.5544149084076
715,614.5561821122961
716,614.5588957028251
717,614.5625460233709
718,614.5671221562172
719,614.5726119417777
720,614.5790019961876
721,614.586277728077
722,614.5944233553846
723,614.6034219231171
724,614.6132553229837
725,614.6239043158181
726,614.6353485575924
727,614.647566629627
728,614.660536073337
729,614.6742334296031
730,614.6886342826944
731,614.7037133085504
732,614.7194443270733
733,614.7358003578701
734,614.7527536787304
735,614.7702758861359
736,614.7883379572852
737,614.8069103134467
738,614.8259628847915
739,614.8454651771079
740,614.8653863408516
741,614.8856952428732
742,614.9063605410117
743,614.927350761655
744,614.9486343803377
745,614.9701799053472
746,614.9919559641124
747,615.0139313919142
748,615.0360753222965
749,615.0583572784909
750,615.0807472651771
751,615.1032158598972
752,615.1257343033884
753,615.1482745880305
754,615.1708095435631
755,615.1933129192062
756,615.2157594612431
757,615.2381249850357
758,615.2603864404248
759,615.2825219695951
760,615.3045109566854
761,615.3263340686124
762,615.3479732867252
763,615.3694119290569
764,615.3906346631584
765,615.4116275097588
766,615.4323778377354
767,615.4528743510392
768,615.473107068339
769,615.4930672962223
770,615.5127475968919
771,615.5321417514527
772,615.5512447200161
773,615.5700525998305
774,615.5885625823933
775,615.6067729100845
776,615.6246828324756
777,615.642292562211
778,615.6596032302458
779,615.6766168401231
780,615.693336220847
781,615.7097649778548
782,615.725907441731
783,615.7417686146581
784,615.7573541150043
785,615.772670120772
786,615.7877233128171
787,615.8025208188114
788,615.8170701588446
789,615.8313791933647
790,615.8454560738285
791,615.8593091960182
792,615.8729471556545
793,615.8863787058065
794,615.8996127156912
795,615.9126581306112
796,615.9255239328508
797,615.9382191032992
798,615.9507525834342
799,615.9631332371258
800,615.9753698115691
801,615.9874708965755
802,615.999444881462
803,616.0112999088614
804,616.0230438248641
805,616.0346841249744
806,616.0462278954732
807,616.0576817500105
808,616.0690517616022
809,616.0803433905962
810,616.0915614095148
811,616.1027098259513
812,616.1137918049362
813,616.1248095923731
814,616.135764441205
815,616.1466565419263
816,616.1574849589348
817,616.1682475740856
818,616.1789410386799
819,616.1895607350367
820,616.2001007487894
821,616.2105538530212
822,616.2209115051976
823,616.2311638575587
824,616.2412997812619
825,616.2513069041518
826,616.261171661621
827,616.2708793596693
828,616.2804142490289
829,616.2897596090924
830,616.2988978403481
831,616.3078105640692
832,616.3164787280749
833,616.3248827174469
834,616.3330024690885
835,616.3408175889513
836,616.3483074706688
837,616.3554514142855
838,616.3622287437958
839,616.3686189223082
840,616.3746016638256
841,616.3801570408756
842,616.3852655875503
843,616.3899083978272
844,616.3940672192758
845,616.3977245423583
846,616.4008636855335
847,616.4034688763526
848,616.4055253287071
849,616.4070193163477
850,616.4079382427149
851,616.4082707069837
852,616.4080065660359
853,616.407136991835
854,616.405654523433
855,616.4035531126672
856,616.4008281626534
857,616.3974765583876
858,616.3934966889832
859,616.3888884611425
860,616.3836533034328
861,616.3777941609321
862,616.3713154799441
863,616.3642231827945
864,616.3565246331322
865,616.3482285924955
866,616.3393451691018
867,616.329885759895
868,616.3198629869163
869,616.3092906290566
870,616.2981835502329
871,616.2865576249595
872,616.2744296621512
873,616.2618173278795
874,616.2487390677643
875,616.2352140296855
876,616.2212619874248
877,616.2069032656941
878,616.1921586668565
879,616.1770493995351
880,616.1615970091938
881,616.1458233106036
882,616.1297503219231
883,616.1134001999429
884,616.0967951759601
885,616.079957491817
886,616.0629093359119
887,616.0456727793012
888,616.0282697121661
889,616.0107217808458
890,615.993050325572
891,615.97527631917
892,615.9574203072879
893,615.939502350976
894,615.9215419725396
895,615.9035581055472
896,615.8855690497737
897,615.8675924317027
898,615.8496451710265
899,615.8317434534334
900,615.813902709967
901,615.7961376033512
902,615.7784620217539
903,615.7608890803533
904,615.7434311307346
905,615.7260997776211
906,615.708905901935
907,615.6918596888745
908,615.6749706596293
909,615.6582477054018
910,615.641699122478
911,615.625332647249
912,615.6091554904117
913,615.5931743700252
914,615.5773955434939
915,615.561824838743
916,615.5464676847985
917,615.5313291417866
