frame_number,force
0,600.4345700000115
1,600.2663650833281
2,600.1023468205104
3,599.9465343782748
4,599.8026025786163
5,599.6736959336428
6,599.5622352715094
7,599.4697181498844
8,599.3965322583254
9,599.341828610918
10,599.3035101386156
11,599.2783732339867
12,599.2624056446413
13,599.2512021249876
14,599.2404201334949
15,599.2261813888518
16,599.2053441283992
17,599.1756180124165
18,599.135545878613
19,599.0844098898071
20,599.0221243360445
21,598.9491611855211
22,598.866528951248
23,598.7757968430878
24,598.6791325457725
25,598.5793165431952
26,598.479712110072
27,598.3841897202406
28,598.2970073267282
29,598.2226379956538
30,598.1655322482779
31,598.1298101216047
32,598.118894028022
33,598.1351188357099
34,598.1793821974219
35,598.2509011326603
36,598.3471107968088
37,598.463709263605
38,598.5948531444697
39,598.7335300683112
40,598.872127121971
41,599.0031594901156
42,599.1200549168095
43,599.2178554789531
44,599.2937197368243
45,599.3471719712373
46,599.3801085499558
47,599.3965919203383
48,599.4024432682857
49,599.4046330495825
50,599.4104995741538
51,599.4268845189849
52,599.4593139236039
53,599.5113424346998
54,599.5841326647666
55,599.6763037256029
56,599.784072668872
57,599.9017047054161
58,600.0222483652101
59,600.1384640759532
60,600.2438019606012
61,600.3332785069939
62,600.4041284427391
63,600.4561397930809
64,600.4916190279943
65,600.5149993259698
66,600.5321891702392
67,600.5498177085138
68,600.5745354507336
69,600.6124800977079
70,600.6689414902381
71,600.7481784539302
72,600.853283481351
73,600.9859964322145
74,601.1464444986616
75,601.3328871165371
76,601.5416033204658
77,601.7670409865867
78,602.0022704179412
79,602.2396932793303
80,602.4718911168661
81,602.6924719888339
82,602.8967823740404
83,603.082379714804
84,603.249200562494
85,603.3994081978338
86,603.5369552966723
87,603.6669388442476
88,603.7948476624431
89,603.9258087047185
90,604.0639303057633
91,604.2118224796908
92,604.3703504135457
93,604.5386465325955
94,604.714363685101
95,604.8941010739698
96,605.0738952756824
97,605.2496624339027
98,605.4175064886584
99,605.5738560509748
100,605.7154461698221
101,605.8392119927463
102,605.9421887352695
103,606.0214967719883
104,606.0744451651439
105,606.0987497016683
106,606.092848814323
107,606.0562913452841
108,605.9901440012608
109,605.8973328182145
110,605.7828106000029
111,605.6534427198899
112,605.5175412250798
113,605.3840610024366
114,605.2615804166096
115,605.1572710826913
116,605.0760698365091
117,605.0201972789022
118,604.9890696703351
119,604.9795772294362
120,604.98666168769
121,605.0040984430328
122,605.0253640271527
123,605.0444580937686
124,605.0565641713201
125,605.0584781160903
126,605.0487918872265
127,605.0278645431339
128,604.9976281466517
129,604.9612777726459
130,604.9229012717956
131,604.8871118544636
132,604.8587345018398
133,604.8425611135252
134,604.8431520796
135,604.8646466675038
136,604.9105482633595
137,604.98345890311
138,605.0847531437848
139,605.2142158424787
140,605.3697151782803
141,605.5470143548742
142,605.739820004283
143,605.9401228283297
144,606.1388246009957
145,606.3265806130912
146,606.4947278358919
147,606.6361381613617
148,606.7458599182853
149,606.8214842512735
150,606.8632470982924
151,606.8739052697074
152,606.8584118048549
153,606.8234063617001
154,606.7765553496084
155,606.7258051513087
156,606.6786255337067
157,606.6413178112356
158,606.6184497782801
159,606.6124554766538
160,606.623407095763
161,606.6489463207014
162,606.6843651933553
163,606.7228452283623
164,606.7558791002425
165,606.773892543724
166,606.7670489135564
167,606.7261687380011
168,606.6436561945786
169,606.5143133983576
170,606.3359455597009
171,606.1097007375828
172,605.8401231881784
173,605.5349159672652
174,605.2044162754167
175,604.8608057011717
176,604.5171114529999
177,604.1860896609574
178,603.8791045072613
179,603.6051255169222
180,603.3699613946277
181,603.1758293476345
182,603.0213193690049
183,602.9017550689233
184,602.8098888054946
185,602.7368195137278
186,602.6730026121495
187,602.609231504334
188,602.5374953284287
189,602.4516479072929
190,602.3478569747151
191,602.2248314939606
192,602.0838292727874
193,601.9284299526581
194,601.7640589701721
195,601.5972965302578
196,601.4350766334604
197,601.2839192324371
198,601.1493198768903
199,601.0353682661993
200,600.9446104783622
201,600.8781189251345
202,600.8356916463351
203,600.8160844203134
204,600.8172019341572
205,600.8362268455297
206,600.8697122320826
207,600.9136780131923
208,600.963742089063
209,601.0153037683642
210,601.0637870968133
211,601.1049374217844
212,601.135145804262
213,601.1517590077817
214,601.1533195398821
215,601.1396777727107
216,601.1119406409115
217,601.0722657182309
218,601.0235488456229
219,600.9690664743479
220,600.9121268113128
221,600.8557740506131
222,600.8025780402049
223,600.7545173770345
224,600.7129322004365
225,600.6785062405212
226,600.6512517675885
227,600.6305069906075
228,600.6149828429703
229,600.6028875145511
230,600.5921180253854
231,600.5804738134333
232,600.5658398946663
233,600.5462956913437
234,600.5201174767504
235,600.4856675198394
236,600.4412104684737
237,600.3847474812428
238,600.3139786525587
239,600.2264807617714
240,600.1201243155199
241,599.9936613207981
242,599.8473212334034
243,599.6832069842253
244,599.5053235909992
245,599.3191854615266
246,599.1310774518712
247,598.9471345004699
248,598.7724366722684
249,598.610298569168
250,598.4618788184897
251,598.3261615117742
252,598.2002817430524
253,598.0801013491654
254,597.9609111842146
255,597.8381465691294
256,597.7080305305387
257,597.5680847784874
258,597.4174688253103
259,597.2571229650557
260,597.0897003123997
261,596.9192873670543
262,596.7509395828048
263,596.5900876149368
264,596.4418900449344
265,596.3106224778046
266,596.1992032707616
267,596.1089507740055
268,596.039628926031
269,595.9897672179926
270,595.9571637742079
271,595.9394312514531
272,595.9344424980756
273,595.9405726284813
274,595.9567005519336
275,595.982007986764
276,596.0156775651303
277,596.0566202276129
278,596.1033414977593
279,596.1539956220322
280,596.2066025524293
281,596.2593455669228
282,596.3108503987786
283,596.3603726205837
284,596.4078663363916
285,596.4539469842052
286,596.4997833101061
287,596.5469603174719
288,596.597347669711
289,596.6529863408213
290,596.7159772457167
291,596.7883367751064
292,596.8717943074587
293,596.9675491587776
294,597.0760570271301
295,597.1969402190596
296,597.3290838262627
297,597.4709007635489
298,597.6206686053278
299,597.7768096916025
300,597.938015467763
301,598.1031798725455
302,598.271170835294
303,598.4405151252137
304,598.6090956398245
305,598.773961270118
306,598.9313251403073
307,599.0767796646877
308,599.2057020310139
309,599.3137804387934
310,599.3975697431941
311,599.4549870531326
312,599.4856791551316
313,599.4912252693498
314,599.4751704544562
315,599.442904874979
316,599.4014032845374
317,599.3588263100188
318,599.3239815298251
319,599.305657685428
320,599.3118725536683
321,599.3491033720843
322,599.4215897578703
323,599.53080357208
324,599.6751627025832
325,599.8500323492021
326,600.0480211745554
327,600.259549285624
328,600.4736408703213
329,600.6788719928468
330,600.8643805083057
331,601.0208258298645
332,601.1411844513514
333,601.2212910331475
334,601.2600786728485
335,601.2595201960737
336,601.2243107267099
337,601.1613536306787
338,601.0791189890024
339,600.9869439750792
340,600.8943410401178
341,600.8103641407929
342,600.7430511258399
343,600.6989294812479
344,600.6825696566897
345,600.6962027264734
346,600.7394650969874
347,600.8093565372719
348,600.9004776444942
349,601.0055563839269
350,601.1162066892372
351,601.2238125415034
352,601.3204135839812
353,601.3994798926763
354,601.4564909592788
355,601.4892686051409
356,601.4980497093705
357,601.485312600989
358,601.4553856819772
359,601.4138766788806
360,601.3669779120526
361,601.320728623057
362,601.2803365264099
363,601.2496570429003
364,601.2308915128223
365,601.2245110405044
366,601.2293694848428
367,601.2429576444335
368,601.2617698194845
369,601.2817793167646
370,601.299018798436
371,601.3102255546207
372,601.3134651759491
373,601.3086213256016
374,601.2976494652937
375,601.2845382354221
376,601.2749890392596
377,601.2758810721823
378,601.2946105211565
379,601.3383858985276
380,601.4135498843692
381,601.5249898679605
382,601.6756879781817
383,601.8664445097706
384,602.0957940099289
385,602.3601252859418
386,602.6540035320644
387,602.9706619412544
388,603.3025926508025
389,603.6421487218042
390,603.9820823206835
391,604.3159766934452
392,604.638555252407
393,604.9458578672778
394,605.2352758679701
395,605.5054482015622
396,605.7560358057582
397,605.9874002022133
398,606.2002205459291
399,606.395099064114
400,606.5722262532888
401,606.7311910213745
402,606.8710078374733
403,606.9903854726709
404,607.0881950620787
405,607.1640328217156
406,607.2187366735163
407,607.2547253118512
408,607.2760827117538
409,607.2883785545732
410,607.2982585167897
411,607.3128529658418
412,607.3390605032844
413,607.3827775283371
414,607.4481578425915
415,607.5369885256843
416,607.648267728443
417,607.7780733479739
418,607.9198024469811
419,608.0648142080904
420,608.2034239279316
421,608.3261053483794
422,608.4247021675465
423,608.4934431173398
424,608.5295931400477
425,608.5336442327092
426,608.5090379503663
427,608.4614914897027
428,608.3980469835682
429,608.3259817779289
430,608.2517262277129
431,608.1799395895096
432,608.1128814472453
433,608.0501776676609
434,607.9890153881557
435,607.9247178784118
436,607.8515726244067
437,607.7637476866383
438,607.6561403171955
439,607.5250346260781
440,607.3684817081077
441,607.1863623984029
442,606.9801570620119
443,606.7525092666034
444,606.5067033636107
445,606.2461747835312
446,605.9741472704492
447,605.6934500028462
448,605.4065179359784
449,605.115539197742
450,604.8226928569816
451,604.5304093960789
452,604.2415798269909
453,603.9596450386721
454,603.6885181322135
455,603.4323269270172
456,603.1950098590835
457,602.9798447131179
458,602.789012634245
459,602.6232881340012
460,602.4819104056404
461,602.3626482279265
462,602.2620329137932
463,602.1757141032527
464,602.0988936043775
465,602.0267969079399
466,601.955135353826
467,601.8804992895612
468,601.8006212454967
469,601.714466060455
470,601.6221354420042
471,601.5246093004779
472,601.4233819209813
473,601.3200809150704
474,601.2161650425284
475,601.1127709448856
476,601.0107262627129
477,600.9106909452526
478,600.8133530197316
479,600.7196046642889
480,600.6306561695682
481,600.5480818189778
482,600.4738039436612
483,600.4100107165907
484,600.358994537868
485,600.322905648139
486,600.3034328679281
487,600.301441091115
488,600.3166130320741
489,600.347157333074
490,600.3896473175445
491,600.4390425261797
492,600.4889249460275
493,600.5319580722974
494,600.5605510537562
495,600.5676794292282
496,600.5477707514672
497,600.4975140670863
498,600.416430042459
499,600.3070739377242
500,600.1748296635491
501,600.0273513277042
502,599.8737756413044
503,599.7238409572717
504,599.5870169205145
505,599.4717036268321
506,599.3845293907511
507,599.3297778899743
508,599.3090021340892
509,599.3209006696433
510,599.3615061882961
511,599.4246702254377
512,599.5027585880932
513,599.5874357459312
514,599.6704149844703
515,599.7440709575517
516,599.8018498245306
517,599.8384701486378
518,599.8499693572782
519,599.8336879658283
520,599.7882758616904
521,599.7137546911955
522,599.6116103453353
523,599.4848586755213
524,599.3380358343788
525,599.1770880018887
526,599.0091458915408
527,598.8421652508458
528,598.6844184691644
529,598.543854145728
530,598.4273940922052
531,598.3402814431006
532,598.2856005145492
533,598.2640529884616
534,598.2740171529633
535,598.3118616182554
536,598.372439936747
537,598.4496627689767
538,598.5370426930027
539,598.6281367784267
540,598.716857795587
541,598.7976680438335
542,598.8656991939432
543,598.916848954222
544,598.9478905379709
545,598.9566084604286
546,598.9419590205767
547,598.904243467552
548,598.845263825108
549,598.7684043259773
550,598.6785629442155
551,598.5818694259422
552,598.4851729888074
553,598.395346853588
554,598.318513007581
555,598.259320253813
556,598.2204014870448
557,598.2020931034305
558,598.2024361904681
559,598.2174208848129
560,598.2414036514253
561,598.2676288422324
562,598.2888091857477
563,598.297743083359
564,598.2879518693156
565,598.2543044085395
566,598.1935715087671
567,598.1048351003561
568,597.9896788398167
569,597.8521142453013
570,597.6982471573078
571,597.5357430402838
572,597.3731758192185
573,597.2193315170364
574,597.0825090594899
575,596.9698525047127
576,596.8867677720107
577,596.836492403395
578,596.8198723586997
579,596.8353662866488
580,596.8792736304715
581,596.9461706259699
582,597.0295145414836
583,597.1223337657607
584,597.2178860693776
585,597.3101745217771
586,597.39426490127
587,597.4664146175828
588,597.5240589219258
589,597.5656946343155
590,597.5906782243065
591,597.5989461660757
592,597.5906822889865
593,597.565980652959
594,597.5245608425361
595,597.4655852165504
596,597.3876167472188
597,597.2887458102024
598,597.1668989606108
599,597.0203150756458
600,596.8481345550995
601,596.6510081992176
602,596.4316090141748
603,596.1949282418982
604,595.9482590605805
605,595.7008240316127
606,595.4630813641569
607,595.2458230738289
608,595.0592196443425
609,594.9119554631623
610,594.8105531877413
611,594.7589380918631
612,594.758270467897
613,594.8070649821201
614,594.9015854312789
615,595.0364408934831
616,595.2052498025997
617,595.4012221655398
618,595.6175454918292
619,595.8475335424663
620,596.0845851163789
621,596.3220686017878
622,596.5532690593685
623,596.7715044889296
624,596.9704521940057
625,597.1446491063747
626,597.2900677066121
627,597.404640821615
628,597.4886207940493
629,597.5447019540566
630,597.5778838373094
631,597.5950850879334
632,597.6045419075543
633,597.6150532341741
634,597.6351522456295
635,597.672273117835
636,597.7319673412884
637,597.8172430580927
638,597.928143659147
639,598.0616939159873
640,598.2122868022923
641,598.3724789063014
642,598.5340589549734
643,598.6891989459916
644,598.8314989120928
645,598.956769041142
646,599.0634379144758
647,599.152535095216
648,599.2272657133583
649,599.2922574022243
650,599.3526089731295
651,599.4129044832268
652,599.4763662747212
653,599.5442965347934
654,599.61589875868
655,599.6884898477642
656,599.7580375318653
657,599.8199125091949
658,599.8697273297944
659,599.9041235021732
660,599.9213649848854
661,599.9216234281465
662,599.906906824041
663,599.8806691781691
664,599.8472146537533
665,599.8110463405089
666,599.7762900412489
667,599.7462624686882
668,599.7231943626291
669,599.708094042525
670,599.7007386813102
671,599.6997814991183
672,599.7029527063817
673,599.7073257188538
674,599.7096308704745
675,599.7066141637571
676,599.6954337399908
677,599.6740541347272
678,599.6415595891391
679,599.5982977958527
680,599.5458017700818
681,599.486502273572
682,599.4233031973985
683,599.3591262004928
684,599.296528539667
685,599.2374585496807
686,599.1831575785213
687,599.1341770796706
688,599.0904675687427
689,599.0515016523703
690,599.016401560919
691,598.9840470981715
692,598.9531470860665
693,598.9222701175987
694,598.8898422546373
695,598.8541219911094
696,598.8131628177854
697,598.7647852905948
698,598.7066003901801
699,598.636130680197
700,598.5510508716604
701,598.449530790535
702,598.330637797362
703,598.1947449607264
704,598.0438810762158
705,597.881954298169
706,597.7148041662764
707,597.5500776870475
708,597.3969402015239
709,597.2656045372768
710,597.1666365219987
711,597.1100245216471
712,597.1040813974926
713,597.1543275706151
714,597.2625424683177
715,597.4261594872899
716,597.6381252936526
717,597.8872688466462
718,598.1591569506254
719,598.4373619436576
720,598.7050184152259
721,598.9464899758553
722,599.1489257059857
723,599.3034912293481
724,599.4061158041516
725,599.4576780729617
726,599.4636319747941
727,599.4331400526544
728,599.3778318874407
729,599.3103423747467
730,599.2428142508903
731,599.1855697221029
732,599.1461493078895
733,599.12886447053
734,599.1349134425966
735,599.1629854858842
736,599.2101654674987
737,599.272892896457
738,599.3477507755096
739,599.4319462740391
740,599.5234582002926
741,599.6209228902765
742,599.723382147407
743,599.8300161438447
744,599.9399407233119
745,600.0520893615932
746,600.1651591565367
747,600.2775943642616
748,600.387597840914
749,600.4931772942371
750,600.5922388761301
751,600.6827368089811
752,600.762874534204
753,600.831328625206
754,600.8874404797498
755,600.9313109572802
756,600.9637490289167
757,600.9860632172982
758,600.9997358709827
759,601.0060679316413
760,601.0058979777967
761,600.9994711021508
762,600.9864800353569
763,600.9662518285938
764,600.9380212602503
765,600.9012193075853
766,600.8557124759171
767,600.8019497099618
768,600.7409972155949
769,600.6744675743809
770,600.60438245232
771,600.5330366949182
772,600.4629296108594
773,600.3967834603292
774,600.3376019988945
775,600.2886787938752
776,600.2534743608987
777,600.2353331436412
778,600.2370764009646
779,600.2605610550304
780,600.3063211222097
781,600.3733948679874
782,600.459387874054
783,600.5607512061913
784,600.6731957160845
785,600.792139221043
786,600.9130952598989
787,601.0319476853564
788,601.1450960604458
789,601.2494889677704
790,601.3425809066931
791,601.4222531701867
792,601.4867358534353
793,601.5345681724884
794,601.5646351847463
795,601.5763004434327
796,601.5696108682181
797,601.5455082111351
798,601.5059659696961
799,601.4539826023105
800,601.3933953503446
801,601.328530185658
802,601.2637584922398
803,601.203067130735
804,601.1497505530206
805,601.1063006657026
806,601.0745111274994
807,601.0557461126824
808,601.0512746623093
809,601.062558603634
810,601.0914041141629
811,601.1399336931825
812,601.2103942711119
813,601.3048682582511
814,601.424974112742
815,601.5716256582689
816,601.7448808982195
817,601.9438725704699
818,602.1667902788189
819,602.4108888973509
820,602.6725268159435
821,602.9472636672989
822,603.2300424647674
823,603.5154500110625
824,603.7980217744621
825,604.0725504820969
826,604.3343624969531
827,604.5795291624809
828,604.8049844214185
829,605.0085364378072
830,605.1887872195342
831,605.3449917553918
832,605.4768862987279
833,605.5845066117956
834,605.6680193706536
835,605.7276016307478
836,605.7634042003783
837,605.7756145990573
838,605.7646074080968
839,605.7311509683766
840,605.6766297836675
841,605.6032359494684
842,605.5140831734589
843,605.4132075485963
844,605.3054368675862
845,605.1961304534705
846,605.0908119763908
847,604.9947333780298
848,604.9124166832132
849,604.8472299065918
850,604.8010664699633
851,604.7742010860284
852,604.765373786695
853,604.7721080940743
854,604.7912145105495
855,604.8193830551099
856,604.8537364230042
857,604.8922073642481
858,604.9336391113551
859,604.977593073565
860,605.0239503674397
861,605.0724594773276
862,605.1223872711414
863,605.1723867644225
864,605.2206186057206
865,605.2650731555062
866,605.303973477761
867,605.3361294601566
868,605.3611556212518
869,605.3795246546824
870,605.3924710651281
871,605.401776348756
872,605.4094749453767
873,605.4175330235063
874,605.4275654099547
875,605.4406538769289
876,605.4573024206564
877,605.4775186137639
878,605.5009712187101
879,605.5271704362345
880,605.555643392677
881,605.5861002975223
882,605.6185843089673
883,605.6535766638268
884,605.6920088434684
885,605.735140473268
886,605.7843074457661
887,605.8406041667391
888,605.9045890637193
889,605.9760766265333
890,606.0540341081471
891,606.1365741681323
892,606.2210318356019
893,606.3041229952639
894,606.3821944789191
895,606.4515802368135
896,606.509054407012
897,606.5523225943246
898,606.5804502154256
899,606.5941230354351
900,606.595673139392
901,606.5888590372331
902,606.5784290126907
903,606.5695134319662
904,606.5669096742926
905,606.5743617538136
906,606.5939693949382
907,606.6258447472101
908,606.6680672838086
909,606.71691080035
910,606.7672658015736
911,606.813162472933
912,606.848312652161
913,606.8666274783061
914,606.8627046485066
915,606.8322852831612
916,606.7726550280652
917,606.6829388028796
