frame_number,force
0,827.292646737099
1,827.2642353870575
2,827.2387182839936
3,827.216070821014
4,827.1962058169844
5,827.1789858692551
6,827.1642378131916
7,827.1517683241378
8,827.1413797010347
9,827.1328849611788
10,827.1261214675192
11,827.120962392901
12,827.11732545561
13,827.1151785407368
14,827.1145419681224
15,827.1154872550405
16,827.1181323684834
17,827.1226337593096
18,827.1291758048882
19,827.1379584511864
20,827.1491837968399
21,827.1630422638854
22,827.1796990037575
23,827.1992812529489
24,827.2218673204368
25,827.24747769476
26,827.2760685171804
27,827.3075275070235
28,827.3416723340475
29,827.3782513509249
30,827.4169465465498
31,827.4573785877884
32,827.499113835404
33,827.5416731913597
34,827.5845425724602
35,827.6271847479758
36,827.6690522279939
37,827.7096008423179
38,827.7483036217747
39,827.7846645600388
40,827.8182317449682
41,827.848609238017
42,827.8754670668887
43,827.8985488427828
44,827.9176767552914
45,827.932753942072
46,827.9437644505188
47,827.9507711964823
48,827.9539124187537
49,827.953397069333
50,827.9494994157742
51,827.9425529882031
52,827.9329439463133
53,827.9211039212514
54,827.9075023358208
55,827.8926381498621
56,827.8770309997051
57,827.8612118030435
58,827.8457129952216
59,827.8310586309138
60,827.8177547066783
61,827.8062802321856
62,827.7970796620549
63,827.7905571998301
64,827.7870732380943
65,827.7869428798656
66,827.7904361664713
67,827.7977794132247
68,827.8091569921949
69,827.8247129580595
70,827.844551994251
71,827.8687392206347
72,827.8972984758204
73,827.930208817184
74,827.967399215036
75,828.0087417768758
76,828.0540442955028
77,828.10304335829
78,828.1553995117314
79,828.210695921056
80,828.2684416027347
81,828.3280797285048
82,828.3890008026876
83,828.4505598233136
84,828.5120960277081
85,828.5729536113174
86,828.6325018418374
87,828.6901531557838
88,828.7453781078083
89,828.7977164907692
90,828.8467845227751
91,828.8922785588617
92,828.9339761640856
93,828.9717355045858
94,829.0054938973411
95,829.03526607666
96,829.0611423647829
97,829.0832865587771
98,829.1019330694214
99,829.117382790144
100,829.1299973657543
101,829.1401918284911
102,829.1484257846454
103,829.1551934122048
104,829.1610125432373
105,829.1664131519847
106,829.1719256716359
107,829.1780696379492
108,829.185343123485
109,829.1942132989979
110,829.2051083181298
111,829.2184106203375
112,829.2344516776335
113,829.2535081392201
114,829.2757992538956
115,829.3014854188217
116,829.3306677559196
117,829.3633887457265
118,829.3996340869438
119,829.4393360064068
120,829.4823781694258
121,829.5286021545587
122,829.5778152136552
123,829.62979880892
124,829.6843172864214
125,829.7411260256271
126,829.7999784115582
127,829.8606309717775
128,829.9228461175588
129,829.9863922226191
130,830.051041176205
131,830.1165639012668
132,830.1827245719164
133,830.249274415615
134,830.3159460387403
135,830.3824491355044
136,830.448468249099
137,830.513663033009
138,830.5776712627315
139,830.640114656451
140,830.700607347734
141,830.7587666054828
142,830.814225116228
143,830.8666438631337
144,830.9157244428326
145,830.9612196437723
146,831.0029412941429
147,831.040764748261
148,831.0746298440172
149,831.1045385885902
150,831.1305500825807
151,831.1527732800307
152,831.1713582193968
153,831.1864864015079
154,831.1983609684873
155,831.2071972095589
156,831.2132137689489
157,831.2166248745018
158,831.2176339667518
159,831.2164292143759
160,831.2131814463548
161,831.2080449213222
162,831.201161054545
163,831.1926647830485
164,831.1826927919104
165,831.1713924971178
166,831.1589305948203
167,831.145500144598
168,831.1313254299874
169,831.116664105462
170,831.1018063933881
171,831.0870713927936
172,831.0728008550889
173,831.0593509341082
174,831.0470823926426
175,831.0363496604349
176,831.0274890974624
177,831.0208068245072
178,831.0165665191346
179,831.0149776590215
180,831.0161848265901
181,831.0202587868417
182,831.0271900034141
183,831.0368850307075
184,831.0491658864631
185,831.0637722046004
186,831.0803657940544
187,831.098537187337
188,831.1178137979052
189,831.1376693959295
190,831.1575347503012
191,831.176809396176
192,831.1948744794729
193,831.2111065266844
194,831.2248918977684
195,831.235641632604
196,831.2428063251981
197,831.24589049555
198,831.2444657239295
199,831.2381817077982
200,831.2267745175402
201,831.2100716504216
202,831.1879938981137
203,831.1605544365307
204,831.1278558140644
205,831.0900855547142
206,831.0475108961286
207,831.0004728878306
208,830.9493798587224
209,830.8947001895808
210,830.8369543303836
211,830.7767059908915
212,830.7145523903305
213,830.6511134525048
214,830.5870199421245
215,830.5229007272446
216,830.4593695307956
217,830.3970116246552
218,830.3363708841596
219,830.2779374832922
220,830.2221363757455
221,830.1693166716499
222,830.1197420681232
223,830.0735825589328
224,830.0309077393526
225,829.9916821578506
226,829.9557632734308
227,829.9229025565172
228,829.8927501319545
229,829.8648631947576
230,829.8387182798049
231,829.8137273148809
232,829.7892571928147
233,829.7646523438134
234,829.7392595025158
235,829.7124536153599
236,829.6836636813852
237,829.6523972736492
238,829.6182625154848
239,829.5809863565406
240,829.5404281343185
241,829.4965876687485
242,829.4496075055429
243,829.3997693073442
244,829.3474847067748
245,829.2932811588907
246,829.2377834753423
247,829.1816918241311
248,829.1257570854258
249,829.0707545693793
250,829.0174571780764
251,828.9666091156528
252,828.9189012517106
253,828.8749492147562
254,828.8352751575242
255,828.8002938416865
256,828.7703032973753
257,828.7454799641121
258,828.7258779951196
259,828.711432279642
260,828.7019646773518
261,828.6971929727661
262,828.6967421120268
263,828.7001573171337
264,828.7069186819841
265,828.7164568650248
266,828.7281694949451
267,828.7414379051902
268,828.7556438367402
269,828.7701857542316
270,828.784494337022
271,828.7980465806507
272,828.8103779154749
273,828.8210918740904
274,828.8298670444282
275,828.8364612546164
276,828.8407131316594
277,828.8425413356043
278,828.8419418435974
279,828.838983629803
280,828.8338029891879
281,828.8265966219674
282,828.8176134769676
283,828.8071452961273
284,828.795515817807
285,828.7830686684291
286,828.770154111814
287,828.7571150410697
288,828.7442728325411
289,828.7319138361056
290,828.7202772835346
291,828.7095452766181
292,828.6998353728313
293,828.6911962038472
294,828.6836065118242
295,828.6769778874511
296,828.6711613083951
297,828.6659573000396
298,828.6611291750166
299,828.6564184477033
300,828.6515613256722
301,828.6463052053797
302,828.6404242359065
303,828.6337331368876
304,828.6260985384802
305,828.6174472106721
306,828.6077707391853
307,828.5971264962484
308,828.5856350533115
309,828.57347434999
310,828.5608709362385
311,828.5480885973793
312,828.5354148455303
313,828.5231461219839
314,828.5115729109099
315,828.5009660908178
316,828.491565638968
317,828.4835723377277
318,828.4771426375692
319,828.4723865035942
320,828.4693679424379
321,828.4681078889724
322,828.4685891320443
323,828.4707629231112
324,828.4745568348544
325,828.4798833206828
326,828.4866482773256
327,828.4947588086459
328,828.504129451594
329,828.5146863725106
330,828.5263693513642
331,828.5391316207548
332,828.5529377782376
333,828.5677600433052
334,828.5835731025121
335,828.6003477443628
336,828.6180434923024
337,828.6366005047003
338,828.6559311206889
339,828.6759116015395
340,828.6963748196202
341,828.7171047914906
342,828.737833942209
343,828.758243781543
344,828.7779693180535
345,828.7966071614535
346,828.8137269829057
347,828.8288858328469
348,828.8416446887501
349,828.8515864589036
350,828.8583345084378
351,828.8615706632578
352,828.8610516400779
353,828.8566229355534
354,828.8482293324959
355,828.8359213164405
356,828.819856849561
357,828.8002981520467
358,828.7776034322769
359,828.7522138785257
360,828.7246365789822
361,828.6954242649306
362,828.6651528826961
363,828.6343981090757
364,828.6037120927144
365,828.573601827324
366,828.5445104781462
367,828.5168026606984
368,828.4907542507115
369,828.4665469417671
370,828.4442675078442
371,828.4239115354652
372,828.4053912181353
373,828.3885466224182
374,828.3731596333513
375,828.3589696059036
376,828.3456896730474
377,828.3330227553478
378,828.3206765415209
379,828.3083769328687
380,828.2958795701906
381,828.2829791032917
382,828.2695158941567
383,828.255379934358
384,828.2405119500165
385,828.2249019378437
386,828.208585599003
387,828.1916391943289
388,828.174173247276
389,828.1563253953534
390,828.1382526510762
391,828.1201233763761
392,828.102109295812
393,828.0843778180719
394,828.0670848760062
395,828.0503685199826
396,828.0343435769704
397,828.0190977045494
398,828.0046890594039
399,827.9911456088039
400,827.9784659329907
401,827.9666212455917
402,827.9555582914131
403,827.9452027448001
404,827.9354627341678
405,827.9262322011355
406,827.917393978368
407,827.9088226565291
408,827.9003873886815
409,827.8919547248173
410,827.8833914707778
411,827.8745675222882
412,827.8653586515399
413,827.8556492731777
414,827.8453352554623
415,827.8343268842626
416,827.8225521431384
417,827.8099604990001
418,827.7965273029107
419,827.7822586951127
420,827.7671966334374
421,827.7514235377946
422,827.7350661666022
423,827.7182985879243
424,827.7013442357969
425,827.6844769367528
426,827.66802055786
427,827.6523467518217
428,827.6378702535583
429,827.6250413117034
430,827.6143351034099
431,827.6062383652469
432,827.6012338755087
433,827.5997836744517
434,827.6023119300651
435,827.6091882504342
436,827.6207121824198
437,827.6370996741574
438,827.6584722965804
439,827.6848498902531
440,827.716147066447
441,827.7521737587607
442,827.7926397934812
443,827.8371631470143
444,827.8852812000001
445,827.9364640076644
446,827.9901285215668
447,828.0456528684325
448,828.1023901423459
449,828.1596815357589
450,828.2168688830087
451,828.2733068004585
452,828.3283746553184
453,828.3814886117093
454,828.4321139243068
455,828.4797774243369
456,828.5240798236522
457,828.5647071667793
458,828.6014405644133
459,828.6341632527196
460,828.6628640332158
461,828.6876362847496
462,828.7086720481418
463,828.7262511523899
464,828.7407258653989
465,828.7525019798499
466,828.7620175396436
467,828.7697205849393
468,828.7760473275969
469,828.7814020539678
470,828.7861398490015
471,828.7905530045851
472,828.7948617032745
473,828.7992092520019
474,828.8036618388187
475,828.8082125265846
476,828.8127889441363
477,828.8172638999188
478,828.8214680099051
479,828.8252034510788
480,828.8282580872044
481,828.8304193776652
482,828.8314875978559
483,828.8312879649377
484,828.8296813256185
485,828.8265731582537
486,828.8219207512112
487,828.8157384859528
488,828.8081011365135
489,828.7991450269424
490,828.7890668406374
491,828.7781198981615
492,828.7666078147422
493,828.7548756072243
494,828.7432985321082
495,828.7322691621066
496,828.7221833937527
497,828.7134262051657
498,828.7063580702169
499,828.7013029717219
500,828.6985388733998
501,828.6982912482563
502,828.7007298372854
503,828.7059683266791
504,828.7140662402602
505,828.7250321937711
506,828.7388277723683
507,828.7553715434916
508,828.7745429507205
509,828.7961859872861
510,828.8201126304411
511,828.8461060587719
512,828.8739237211282
513,828.9033004401713
514,828.933951918648
515,828.965579142139
516,828.9978740545031
517,829.0305264966855
518,829.0632319496801
519,829.0956993437845
520,829.1276581487284
521,829.1588640514186
522,829.1891026728986
523,829.2181909536595
524,829.2459760431714
525,829.2723317415257
526,829.2971527319145
527,829.3203470087685
528,829.3418270662772
529,829.3615005720939
530,829.3792613748711
531,829.3949817256844
532,829.4085065130373
533,829.4196501580946
534,829.4281966436625
535,829.4339029571569
536,829.4365059620042
537,829.4357323520272
538,829.4313109628342
539,829.4229864474727
540,829.4105332745144
541,829.3937691785657
542,829.3725674816548
543,829.3468679598604
544,829.3166860362775
545,829.2821199895003
546,829.2433556278265
547,829.2006676874641
548,829.1544173124997
549,829.1050454241654
550,829.0530623744477
551,828.9990347321145
552,828.9435702569162
553,828.8873021167186
554,828.830873262168
555,828.7749216458059
556,828.720066701527
557,828.6668972546672
558,828.6159608917271
559,828.5677547933402
560,828.5227180595809
561,828.4812255778554
562,828.4435834813952
563,828.4100262045247
564,828.3807150709856
565,828.3557383061082
566,828.3351123571958
567,828.3187843856753
568,828.3066357436423
569,828.2984862515898
570,828.2940992133606
571,828.2931872571288
572,828.2954191600948
573,828.3004277829281
574,828.3078191392189
575,828.3171824615105
576,828.3281009322911
577,828.3401625988342
578,828.3529709113652
579,828.3661542897203
580,828.3793741443452
581,828.3923308903552
582,828.4047676807837
583,828.4164717882115
584,828.4272737531899
585,828.4370445763122
586,828.4456913176671
587,828.4531514811174
588,828.4593865860858
589,828.4643754384741
590,828.4681077417187
591,828.4705786755992
592,828.4717848284823
593,828.4717214992286
594,828.4703810778543
595,828.4677520840685
596,828.4638184927028
597,828.4585591467117
598,828.451947257882
599,828.4439501045323
600,828.4345289924615
601,828.4236394387925
602,828.4112315214032
603,828.397250424832
604,828.3816372856536
605,828.36433042898
606,828.3452670459839
607,828.3243853627201
608,828.3016273977516
609,828.2769424390237
610,828.2502913256365
611,828.2216514991375
612,828.1910226618064
613,828.1584328051156
614,828.1239443302093
615,828.087659926306
616,828.0497278061539
617,828.0103458440643
618,827.9697641106771
619,827.9282852469627
620,827.8862621358235
621,827.8440925063463
622,827.802210460798
623,827.7610753610154
624,827.7211588949474
625,827.682931301828
626,827.6468476054466
627,827.6133344179465
628,827.5827776475845
629,827.5555113883247
630,827.5318083446525
631,827.5118722255872
632,827.4958325185587
633,827.4837419131723
634,827.4755764690278
635,827.4712384924312
636,827.4705620124806
637,827.4733207009004
638,827.4792380423446
639,827.4879994830457
640,827.4992660926972
641,827.5126889726357
642,827.5279233475006
643,827.5446411218102
644,827.5625407618547
645,827.5813537252054
646,827.6008472434836
647,827.620823858599
648,827.6411184937798
649,827.6615939365594
650,827.6821354886388
651,827.7026452953846
652,827.7230365950161
653,827.7432279119083
654,827.7631371425374
655,827.7826755946007
656,827.8017422989766
657,827.820219177648
658,827.8379677601757
659,827.8548280376419
660,827.8706197868245
661,827.8851463923024
662,827.8982009148211
663,827.9095739275297
664,827.9190624696365
665,827.9264793712518
666,827.9316622272307
667,827.9344814429852
668,827.9348469692202
669,827.932713497345
670,827.9280839744655
671,827.9210113651653
672,827.9115987076581
673,827.8999976966236
674,827.8864062097134
675,827.8710652917927
676,827.8542560633703
677,827.8362968380586
678,827.8175405000852
679,827.798371986235
680,827.7792055628305
681,827.7604815048498
682,827.7426617916029
683,827.7262245055308
684,827.7116567116806
685,827.6994457114729
686,827.6900687474656
687,827.6839814950471
688,827.681605963191
689,827.6833186366754
690,827.6894397088942
691,827.7002240442081
692,827.7158541703122
693,827.7364352699541
694,827.7619918887718
695,827.7924659327477
696,827.8277155328869
697,827.8675145226632
698,827.9115525586969
699,827.9594362066772
700,828.0106914850726
701,828.0647683527175
702,828.1210474899997
703,828.1788495320732
704,828.2374467213722
705,828.296076806265
706,828.3539589327793
707,828.4103111976858
708,828.4643694080705
709,828.5154064456517
710,828.5627514851739
711,828.605808158224
712,828.6440706181261
713,828.6771364443922
714,828.7047155120327
715,828.7266343371336
716,828.7428358945456
717,828.7533753329213
718,828.7584122581635
719,828.7582003069359
720,828.7530747020534
721,828.7434384993162
722,828.7297483177592
723,828.7125003948804
724,828.6922177357109
725,828.6694389434072
726,828.6447090880406
727,828.6185727072201
728,828.5915687587568
729,828.5642271335176
730,828.5370662222826
731,828.5105909708809
732,828.4852908451791
733,828.4616372480648
734,828.4400802357571
735,828.4210447559569
736,828.4049268509102
737,828.3920902016714
738,828.3828631321566
739,828.3775359687622
740,828.3763585921396
741,828.3795380818236
742,828.3872364520033
743,828.3995685692754
744,828.4166004447358
745,828.4383482261638
746,828.464778331176
747,828.4958091204525
748,828.5313142517073
749,828.5711275243908
750,828.6150488058478
751,828.6628505266398
752,828.7142841547696
753,828.7690860381083
754,828.8269821473419
755,828.8876915135627
756,828.950928357641
757,829.0164029571364
758,829.0838212442486
759,829.1528830845023
760,829.2232792325183
761,829.2946871096556
762,829.3667657368679
763,829.4391502990898
764,829.5114468629927
765,829.583227737756
766,829.6540279302353
767,829.7233431408793
768,829.7906297464922
769,829.8553071855974
770,829.9167630843614
771,829.9743612921579
772,830.0274527086723
773,830.0753884797058
774,830.1175349956961
775,830.1532901968153
776,830.1821008276703
777,830.2034803199739
778,830.2170268707526
779,830.2224411028589
780,830.2195425418804
781,830.2082840759001
782,830.188763580009
783,830.1612319455448
784,830.1260968293286
785,830.0839215529115
786,830.0354187678325
787,829.9814387524692
788,829.9229524920412
789,829.8610300042362
790,829.7968146876508
791,829.7314947281081
792,829.6662727367577
793,829.6023348121238
794,829.5408201763522
795,829.4827924876141
796,829.4292138656283
797,829.3809225399979
798,829.3386148344078
799,829.3028319695546
800,829.2739519180407
801,829.2521862669037
802,829.2375817924732
803,829.2300263403104
804,829.2292586484919
805,829.2348818054628
806,829.2463799222019
807,829.2631373200702
808,829.284459264844
809,829.3095931872891
810,829.3377494408662
811,829.3681208768737
812,829.3999008234183
813,829.4322994081899
814,829.4645584528297
815,829.4959652648469
816,829.5258655634964
817,829.5536755901711
818,829.5788932414814
819,829.6011078688307
820,829.6200082717107
821,829.6353884146431
822,829.6471504886341
823,829.6553050511716
824,829.6599680984727
825,829.6613550749569
826,829.6597719887284
827,829.6556039190059
828,829.649301274999
829,829.6413642809666
830,829.6323263675869
831,829.6227373637158
832,829.6131474447471
833,829.604092607808
834,829.5960820859268
835,829.5895877840542
836,829.5850356544362
837,829.582798881718
838,829.5831927080741
839,829.5864706771027
840,829.5928220550169
841,829.6023701975328
842,829.6151716483552
843,829.6312157923085
844,829.6504249399541
845,829.672654742245
846,829.6976948170513
847,829.7252695025911
848,829.7550388150715
849,829.7865999270601
850,829.8194896571895
851,829.8531884829572
852,829.8871264684659
853,829.9206912906869
854,829.9532383203689
855,829.984102550326
856,830.0126121108664
857,830.038103134719
858,830.059935749341
859,830.0775109361365
860,830.0902879224077
861,830.0978016731815
862,830.0996798911108
863,830.0956587241927
864,830.085596227515
865,830.0694826283028
866,830.0474466269393
867,830.0197572830753
868,829.9868213714497
869,829.9491763216788
870,829.9074789698574
871,829.8624904579159
872,829.815057792475
873,829.7660927587204
874,829.7165489700345
875,829.6673977977175
876,829.61960384599
877,829.5741006039367
878,829.5317669333729
879,829.4934050905248
880,829.4597209646953
881,829.4313071048601
882,829.4086289256311
883,829.3920143521383
884,829.3816471578002
885,829.3775642941285
886,829.3796574607243
887,829.387678976099
888,829.4012517670118
889,829.4198830737042
890,829.442981302556
891,829.4698753701655
892,829.4998358735783
893,829.5320974455531
894,829.5658816763953
895,829.6004200205384
896,829.6349761875015
897,829.6688676392012
898,829.7014859208399
899,829.7323155592757
900,829.7609511498312
901,829.7871120928754
902,829.8106543171718
903,829.8315782602231
904,829.8500323668233
905,829.8663114243957
906,829.8808491752321
907,829.8942048316629
908,829.9070433996338
909,829.9201101117776
910,829.9341997418267
911,829.950122020822
912,829.968664711973
913,829.9905560856597
914,830.0164285768674
915,830.0467853422707
916,830.0819713049101
