frame_number,force
0,827.368843752308
1,827.3628201252291
2,827.3573855126448
3,827.3525447820789
4,827.3483022572791
5,827.3446616585228
6,827.3416260484324
7,827.3391977831674
8,827.3373784688132
9,827.3361689228134
10,827.3355691403141
11,827.3355782653051
12,827.3361945664939
13,827.3374154179492
14,827.3392372846142
15,827.341655712798
16,827.3446653258127
17,827.3482598251327
18,827.3524319976852
19,827.3571737299632
20,827.3624760295196
21,827.3683290542324
22,827.3747221496493
23,827.3816438947092
24,827.3890821560274
25,827.3970241506754
26,827.4054565170876
27,827.4143653935038
28,827.4237365032147
29,827.4335552457452
30,827.4438067930148
31,827.4544761894828
32,827.4655484552737
33,827.4770086912353
34,827.4888421848065
35,827.5010345155271
36,827.5135716589782
37,827.5264400879242
38,827.5396268694332
39,827.5531197567653
40,827.5669072747921
41,827.5809787976629
42,827.5953246175027
43,827.6099360031446
44,827.6248052482182
45,827.6399257082468
46,827.6552918267155
47,827.6708991503514
48,827.6867443340523
49,827.7028251359493
50,827.7191404030322
51,827.7356900477287
52,827.7524750158727
53,827.7694972465597
54,827.7867596244243
55,827.8042659248941
56,827.8220207530561
57,827.8400294769284
58,827.858298156061
59,827.8768334664827
60,827.8956426231525
61,827.9147333012415
62,827.934113557651
63,827.953791754057
64,827.9737764825093
65,827.9940764942706
66,828.0147006322278
67,828.0356577669326
68,828.0569567362071
69,828.0786062882285
70,828.1006150280047
71,828.1229913671332
72,828.1457434767113
73,828.1688792433042
74,828.1924062280069
75,828.2163316288913
76,828.2406622474774
77,828.265404460206
78,828.2905641960592
79,828.3161469213479
80,828.342157632272
81,828.368600855251
82,828.3954806543081
83,828.4228006440942
84,828.4505640066218
85,828.4787735095697
86,828.5074315240392
87,828.5365400398182
88,828.5661006764958
89,828.5961146892369
90,828.626582968617
91,828.6575060345103
92,828.6888840244525
93,828.7207166770788
94,828.7530033112126
95,828.7857428009862
96,828.8189335471134
97,828.8525734441594
98,828.8866598434815
99,828.9211895115468
100,828.9561585836
101,828.9915625130243
102,829.0273960170168
103,829.0636530193441
104,829.1003265910196
105,829.1374088898401
106,829.174891099862
107,829.2127633719964
108,829.2510147668977
109,829.2896332012031
110,829.3286053980504
111,829.3679168426903
112,829.4075517439178
113,829.4474930019501
114,829.4877221832601
115,829.5282195027929
116,829.5689638139814
117,829.6099326070301
118,829.6511020159967
119,829.6924468351722
120,829.7339405451023
121,829.7755553483327
122,829.8172622146351
123,829.8590309351632
124,829.9008301847707
125,829.9426275916196
126,829.9843898131284
127,830.0260826172201
128,830.0676709678497
129,830.1091191139966
130,830.1503906816307
131,830.1914487684365
132,830.2322560412636
133,830.2727748363692
134,830.3129672625388
135,830.3527953070634
136,830.3922209443555
137,830.4312062467664
138,830.4697134969786
139,830.5077053011738
140,830.5451447019952
141,830.5819952901103
142,830.6182213129541
143,830.6537877790116
144,830.6886605558689
145,830.7228064603086
146,830.7561933389712
147,830.7887901385236
148,830.8205669647984
149,830.851495130863
150,830.8815471943005
151,830.9106969841627
152,830.9389196181762
153,830.9661915109189
154,830.9924903737441
155,831.0177952071999
156,831.0420862866246
157,831.0653451416274
158,831.0875545302945
159,831.1086984091266
160,831.1287618998247
161,831.147731253979
162,831.1655938164876
163,831.1823379881395
164,831.1979531873976
165,831.2124298111198
166,831.2257591938911
167,831.2379335657914
168,831.248946008684
169,831.2587904113466
170,831.2674614239872
171,831.2749544129383
172,831.2812654165612
173,831.286391103486
174,831.2903287342322
175,831.2930761271001
176,831.2946316291155
177,831.2949940927307
178,831.294162858937
179,831.2921377474335
180,831.2889190545218
181,831.284507559402
182,831.2789045393916
183,831.2721117942834
184,831.2641316796348
185,831.2549671484032
186,831.2446218000819
187,831.2330999363705
188,831.2204066223691
189,831.2065477523046
190,831.1915301188759
191,831.1753614853554
192,831.1580506595479
193,831.1396075685814
194,831.1200433334059
195,831.0993703418335
196,831.0776023188903
197,831.0547543931226
198,831.0308431573372
199,831.005886722206
200,830.9799047613352
201,830.9529185467736
202,830.9249509744081
203,830.8960265791528
204,830.8661715401796
205,830.8354136765709
206,830.803782433676
207,830.7713088602692
208,830.738025576489
209,830.703966732563
210,830.6691679584106
211,830.6336663042865
212,830.5975001726622
213,830.5607092416116
214,830.5233343801315
215,830.4854175560574
216,830.4470017374497
217,830.4081307884406
218,830.368849360528
219,830.3292027801749
220,830.28923693346
221,830.2489981484788
222,830.2085330762371
223,830.1678885708188
224,830.1271115696794
225,830.0862489750156
226,830.0453475372337
227,830.0044537414879
228,829.9636136980903
229,829.9228730374059
230,829.882276809667
231,829.8418693899707
232,829.8016943885136
233,829.7617945658528
234,829.7222117526937
235,829.6829867734589
236,829.6441593727402
237,829.6057681436935
238,829.5678504574659
239,829.5304423928256
240,829.4935786653093
241,829.4572925554677
242,829.4216158361612
243,829.3865786992362
244,829.3522096822327
245,829.3185355960001
246,829.2855814542429
247,829.253370406119
248,829.2219236731138
249,829.191260491515
250,829.1613980618639
251,829.132351506757
252,829.104133838339
253,829.076755936755
254,829.0502265406528
255,829.0245522504823
256,828.9997375449038
257,828.9757848102092
258,828.9526943823689
259,828.9304646011199
260,828.909091875367
261,828.8885707591056
262,828.8688940370416
263,828.8500528190432
264,828.83203664249
265,828.8148335815313
266,828.7984303622009
267,828.7828124822897
268,828.767964334849
269,828.7538693341708
270,828.7405100429856
271,828.7278682994843
272,828.7159253427367
273,828.7046619352064
274,828.69405848127
275,828.6840951408766
276,828.674751937703
277,828.6660088613507
278,828.65784596325
279,828.6502434459647
280,828.6431817455549
281,828.6366416065894
282,828.6306041493572
283,828.625050928836
284,828.6199639850603
285,828.6153258846676
286,828.6111197536015
287,828.6073293012192
288,828.6039388363421
289,828.600933275992
290,828.5982981476213
291,828.5960195855846
292,828.5940843225123
293,828.5924796762167
294,828.5911935327525
295,828.5902143262031
296,828.5895310156242
297,828.5891330593456
298,828.5890103865179
299,828.58915336548
300,828.5895527683643
301,828.5901997314086
302,828.591085710601
303,828.5922024324271
304,828.5935418395837
305,828.595096031643
306,828.5968572008479
307,828.5988175635111
308,828.6009692877897
309,828.6033044187707
310,828.6058148018133
311,828.6084920050812
312,828.6113272423631
313,828.6143112976094
314,828.6174344529402
315,828.6206864219745
316,828.6240562901056
317,828.6275324628667
318,828.6311026230214
319,828.6347536966591
320,828.6384718284039
321,828.6422423657759
322,828.6460498526901
323,828.6498780319853
324,828.6537098567434
325,828.6575275099858
326,828.6613124321292
327,828.6650453554162
328,828.6687063445364
329,828.6722748428256
330,828.675729723661
331,828.6790493468526
332,828.6822116199106
333,828.6851940640698
334,828.6879738848658
335,828.690528046973
336,828.6928333529713
337,828.6948665257258
338,828.6966042941317
339,828.6980234821069
340,828.6991011008829
341,828.6998144447608
342,828.7001411904763
343,828.7000595001138
344,828.6995481271668
345,828.6985865249961
346,828.6971549566737
347,828.695234605066
348,828.6928076819145
349,828.6898575345622
350,828.6863687488733
351,828.6823272468242
352,828.6777203772975
353,828.6725369987452
354,828.666767552568
355,828.6604041262517
356,828.6534405055113
357,828.6458722149529
358,828.6376965471076
359,828.6289125801063
360,828.6195211846629
361,828.609525021304
362,828.598928528941
363,828.5877379060269
364,828.5759610857384
365,828.5636077067726
366,828.55068908129
367,828.5372181612462
368,828.5232095039613
369,828.5086792374368
370,828.493645025678
371,828.4781260340926
372,828.4621428948577
373,828.4457176719586
374,828.4288738253961
375,828.4116361738643
376,828.3940308551097
377,828.3760852832511
378,828.3578281025394
379,828.3392891372258
380,828.3204993373117
381,828.3014907199808
382,828.2822963065262
383,828.2629500546619
384,828.2434867862838
385,828.2239421109928
386,828.2043523459074
387,828.1847544323392
388,828.1651858498116
389,828.1456845277849
390,828.1262887554112
391,828.1070370896869
392,828.0879682623939
393,828.0691210861733
394,828.0505343600175
395,828.032246774502
396,828.01429681715
397,827.9967226783498
398,827.979562158146
399,827.9628525740462
400,827.9466306698225
401,827.9309325251793
402,827.9157934661041
403,827.9012479756917
404,827.8873296052485
405,827.8740708855739
406,827.8615032384986
407,827.8496568889537
408,827.8385607779355
409,827.8282424766967
410,827.8187281024216
411,827.8100422356208
412,827.8022078395289
413,827.7952461818581
414,827.7891767593223
415,827.7840172254082
416,827.779783321945
417,827.7764888150689
418,827.774145436126
419,827.7727628278611
420,827.772348495996
421,827.7729077661946
422,827.7744437465357
423,827.7769572958499
424,827.7804469984036
425,827.7849091452973
426,827.7903377227113
427,827.7967244069408
428,827.8040585661143
429,827.812327268576
430,827.8215152981203
431,827.8316051765861
432,827.8425771946377
433,827.8544094517356
434,827.8670779062481
435,827.8805564364684
436,827.8948169131594
437,827.9098292841966
438,827.9255616717966
439,827.9419804826044
440,827.9590505305875
441,827.9767351723635
442,827.9949964542795
443,828.0137952701796
444,828.0330915283713
445,828.052844325946
446,828.0730121284527
447,828.0935529530273
448,828.1144245533623
449,828.1355846052116
450,828.1569908913366
451,828.1786014848816
452,828.2003749302177
453,828.2222704203081
454,828.2442479696025
455,828.266268581282
456,828.288294407418
457,828.3102889003823
458,828.3322169537246
459,828.3540450307237
460,828.3757412789116
461,828.3972756290927
462,828.4186198777682
463,828.4397477524248
464,828.4606349597394
465,828.4812592172623
466,828.5016002695265
467,828.5216398897994
468,828.5413618688222
469,828.5607519918736
470,828.5797980053904
471,828.5984895742447
472,828.6168182306076
473,828.6347773151007
474,828.6523619107255
475,828.6695687698829
476,828.6863962346146
477,828.7028441500355
478,828.7189137708527
479,828.7346076609335
480,828.7499295860628
481,828.7648844002249
482,828.7794779258986
483,828.7937168289432
484,828.8076084887467
485,828.8211608644201
486,828.8343823579423
487,828.8472816752414
488,828.8598676861869
489,828.8721492844022
490,828.8841352477565
491,828.895834100404
492,828.9072539773133
493,828.9184024923508
494,828.9292866111513
495,828.9399125301829
496,828.9502855635393
497,828.9604100390522
498,828.9702892053388
499,828.9799251513527
500,828.9893187398528
501,828.9984695558603
502,829.0073758706787
503,829.0160346214869
504,829.0244414060382
505,829.032590491749
506,829.0404748384567
507,829.0480861342617
508,829.055414843976
509,829.0624502697406
510,829.0691806233419
511,829.0755931096958
512,829.0816740209094
513,829.0874088403485
514,829.0927823562201
515,829.0977787842263
516,829.1023818986521
517,829.1065751708204
518,829.110341913358
519,829.1136654284037
520,829.1165291578103
521,829.1189168334478
522,829.12081262584
523,829.1222012895287
524,829.1230683037605
525,829.1234000073108
526,829.1231837264614
527,829.1224078953468
528,829.1210621680744
529,829.1191375222379
530,829.1166263536144
531,829.1135225619454
532,829.1098216276987
533,829.105520679649
534,829.1006185530471
535,829.0951158380608
536,829.0890149180243
537,829.0823199968003
538,829.0750371143151
539,829.0671741491922
540,829.0587408074839
541,829.0497485967982
542,829.0402107855103
543,829.0301423471315
544,829.0195598901232
545,829.0084815734893
546,828.9969270083614
547,828.9849171457258
548,828.9724741506411
549,828.9596212638187
550,828.9463826520926
551,828.9327832498101
552,828.9188485934378
553,828.9046046517306
554,828.8900776537133
555,828.8752939165317
556,828.8602796749778
557,828.8450609142566
558,828.8296632074013
559,828.8141115586864
560,828.7984302543633
561,828.7826427219987
562,828.7667713996193
563,828.7508376157372
564,828.734861481167
565,828.7188617933951
566,828.7028559541399
567,828.6868599005986
568,828.6708880507088
569,828.6549532626184
570,828.6390668085504
571,828.6232383632538
572,828.6074760071763
573,828.5917862443329
574,828.5761740346265
575,828.5606428401034
576,828.5451946843276
577,828.5298302238168
578,828.5145488303037
579,828.4993486824726
580,828.4842268657608
581,828.4691794788533
582,828.4542017456225
583,828.4392881314074
584,828.4244324626727
585,828.4096280492122
586,828.394867808122
587,828.3801443887762
588,828.3654502980634
589,828.3507780252526
590,828.3361201660022
591,828.3214695450348
592,828.3068193368089
593,828.2921631831979
594,828.277495306948
595,828.2628106196108
596,828.2481048227555
597,828.2333745014926
598,828.2186172096017
599,828.2038315457316
600,828.1890172201782
601,828.1741751117237
602,828.1593073140906
603,828.1444171717308
604,828.1295093048277
605,828.1145896234684
606,828.0996653309935
607,828.0847449166208
608,828.0698381375773
609,828.0549559910922
610,828.0401106766502
611,828.0253155488736
612,828.0105850613623
613,827.995934701832
614,827.981380918921
615,827.9669410410592
616,827.9526331877856
617,827.9384761739154
618,827.9244894069514
619,827.910692778135
620,827.8971065475783
621,827.8837512241109
622,827.8706474408327
623,827.857815827798
624,827.8452768836156
625,827.8330508478875
626,827.8211575762615
627,827.8096164195643
628,827.7984461082194
629,827.7876646430442
630,827.7772891935359
631,827.7673360047594
632,827.7578203138534
633,827.7487562769528
634,827.7401569070711
635,827.7320340232723
636,827.724398211299
637,827.7172587956825
638,827.7106238232311
639,827.7045000576277
640,827.6988929845888
641,827.6938068266677
642,827.6892445664109
643,827.6852079763618
644,827.6816976543989
645,827.6787130631855
646,827.676252573
647,827.6743135077436
648,827.6728921942295
649,827.6719840149276
650,827.6715834641856
651,827.6716842077021
652,827.6722791447534
653,827.6733604724636
654,827.6749197513454
655,827.676947971447
656,827.6794356187158
657,827.6823727414597
658,827.6857490169252
659,827.6895538179508
660,827.6937762794518
661,827.6984053642509
662,827.7034299275562
663,827.7088387792297
664,827.7146207428924
665,827.7207647108801
666,827.7272596941635
667,827.7340948665517
668,827.7412596027565
669,827.7487435101186
670,827.7565364539491
671,827.7646285765795
672,827.773010310395
673,827.7816723853671
674,827.7906058318421
675,827.7998019794845
676,827.8092524532825
677,827.8189491673897
678,827.8288843173882
679,827.8390503713821
680,827.8494400602057
681,827.860046366952
682,827.8708625160307
683,827.8818819620209
684,827.8930983786422
685,827.9045056482463
686,827.9160978523588
687,827.9278692639937
688,827.9398143426707
689,827.9519277331963
690,827.9642042692009
691,827.9766389821422
692,827.9892271160656
693,828.0019641480038
694,828.0148458135566
695,828.0278681369622
696,828.0410274648718
697,828.054320503111
698,828.0677443558919
699,828.0812965671386
700,828.0949751636697
701,828.1087786999171
702,828.1227063036697
703,828.1367577221084
704,828.1509333671855
705,828.1652343592527
706,828.1796625677651
707,828.1942206478288
708,828.2089120712748
709,828.223741150845
710,828.2387130559996
711,828.2538338187791
712,828.2691103281156
713,828.2845503110769
714,828.3001622998172
715,828.3159555835045
716,828.3319401450905
717,828.3481265833356
718,828.3645260208848
719,828.3811499993791
720,828.3980103627076
721,828.4151191296662
722,828.4324883575041
723,828.4501299980257
724,828.4680557479671
725,828.4862768953136
726,828.5048041631069
727,828.5236475521343
728,828.5428161837117
729,828.5623181436317
730,828.5821603282922
731,828.6023482939925
732,828.622886110396
733,828.6437762192692
734,828.6650192998825
735,828.6866141427885
736,828.7085575338498
737,828.7308441502611
738,828.7534664699849
739,828.7764146957132
740,828.7996766942997
741,828.8232379525522
742,828.8470815502327
743,828.8711881510586
744,828.8955360124463
745,828.920101014708
746,828.9448567103552
747,828.9697743939586
748,828.9948231925937
749,829.0199701764151
750,829.0451804885212
751,829.0704174930034
752,829.0956429398344
753,829.1208171450706
754,829.1458991848276
755,829.1708471015901
756,829.1956181214779
757,829.2201688810096
758,829.2444556617421
759,829.2684346310209
760,829.2920620870349
761,829.3152947064358
762,829.3380897929098
763,829.3604055251789
764,829.3822012029334
765,829.4034374891581
766,829.4240766472858
767,829.4440827716405
768,829.4634220096755
769,829.4820627745465
770,829.4999759465725
771,829.5171350620682
772,829.5335164878843
773,829.5490995798258
774,829.5638668231347
775,829.5778039534533
776,829.5909000569918
777,829.6031476488483
778,829.6145427285173
779,829.625084811657
780,829.634776937249
781,829.643625649436
782,829.6516409535478
783,829.6588362460958
784,829.6652282187977
785,829.670836737001
786,829.6756846932451
787,829.6797978371159
788,829.6832045829852
789,829.6859357976729
790,829.6880245704928
791,829.6895059685035
792,829.6904167799976
793,829.6907952493453
794,829.690680806307
795,829.6901137928993
796,829.6891351908273
797,829.6877863523446
798,829.6861087371619
799,829.6841436577332
800,829.6819320349156
801,829.6795141656296
802,829.6769295037817
803,829.6742164554694
804,829.6714121893895
805,829.6685524632694
806,829.6656714668784
807,829.6628016817521
808,829.65997375735
809,829.6572164031251
810,829.6545562959361
811,829.6520180023196
812,829.6496239152891
813,829.6473942055466
814,829.6453467871503
815,829.6434972976796
816,829.6418590927573
817,829.6404432545388
818,829.6392586135044
819,829.6383117826564
820,829.6376072030675
821,829.6371471996955
822,829.6369320464455
823,829.6369600395527
824,829.6372275784651
825,829.6377292535494
826,829.638457940105
827,829.6394048982794
828,829.6405598785637
829,829.6419112326621
830,829.6434460297309
831,829.6451501781934
832,829.6470085533962
833,829.6490051311974
834,829.6511231272304
835,829.6533451412624
836,829.6556533058974
837,829.6580294388133
838,829.6604551976652
839,829.6629122367153
840,829.665382364205
841,829.6678476994698
842,829.670290828785
843,829.6726949589422
844,829.6750440675795
845,829.6773230492917
846,829.6795178565062
847,829.6816156341331
848,829.683604847142
849,829.6854754004481
850,829.6872187506635
851,829.6888280093043
852,829.6902980369584
853,829.6916255277572
854,829.6928090833211
855,829.6938492752573
856,829.6947486953051
857,829.6955119923283
858,829.6961458954626
859,829.6966592227918
860,829.6970628749726
861,829.6973698132521
862,829.6975950213018
863,829.6977554502275
864,829.6978699461071
865,829.6979591595547
866,829.6980454371256
867,829.6981526948217
868,829.698306274413
869,829.6985327836435
870,829.6988599216219
871,829.699316290912
872,829.6999311981126
873,829.7007344449763
874,829.7017561122732
875,829.7030263386301
876,829.7045750965412
877,829.706431967735
878,829.7086259201136
879,829.7111850885087
880,829.7141365614531
881,829.717506176009
882,829.721318322467
883,829.7255957605213
884,829.7303594484357
885,829.7356283866544
886,829.7414194771508
887,829.7477473995158
888,829.754624504427
889,829.7620607248032
890,829.7700635046641
891,829.778637745504
892,829.7877857698488
893,829.7975073015731
894,829.8077994624556
895,829.8186567843777
896,829.8300712365434
897,829.8420322671205
898,829.8545268587184
899,829.8675395970423
900,829.8810527518895
901,829.8950463694327
902,829.9094983745666
903,829.9243846819726
904,829.9396793145138
905,829.9553545275788
906,829.9713809380746
907,829.9877276569147
908,830.0043624240806
909,830.0212517456777
910,830.0383610328269
911,830.0556547426249
912,830.073096521695
913,830.0906493529883
914,830.1082757064984
915,830.1259376944536
916,830.1435972313894
917,830.1612161992919
