frame_number,force
0,643.4105900000626
1,643.2268084932807
2,643.0452071178981
3,642.8681165513935
4,642.6981157353705
5,642.5380475025675
6,642.3909520301671
7,642.2599345564554
8,642.1479853274379
9,642.0577667359198
10,641.9913856297491
11,641.9501818755866
12,641.9345783932962
13,641.944028897089
14,641.9770537217246
15,642.0313009640812
16,642.1035659212016
17,642.1897645696675
18,642.284935979262
19,642.3833745316778
20,642.4789459456529
21,642.5655596583482
22,642.6377052441113
23,642.6909393047316
24,642.7222312150834
25,642.7301255737775
26,642.714734046409
27,642.6776061625997
28,642.6215339082974
29,642.5503268228775
30,642.4685764697509
31,642.3814248878157
32,642.2943485865245
33,642.2129497388286
34,642.1427182817125
35,642.088724758014
36,642.0552379736627
37,642.0453090225461
38,642.0603887098604
39,642.1000391424616
40,642.1617791263178
41,642.24108731036
42,642.3315844238065
43,642.4254198358984
44,642.5138783661175
45,642.5881811925907
46,642.6403875850104
47,642.6642492365468
48,642.6558604695443
49,642.6139919628836
50,642.5400707910829
51,642.4378426892496
52,642.3128044537053
53,642.1715217876954
54,642.0209500726213
55,641.8678570314031
56,641.7184181098062
57,641.5780226536065
58,641.4512880448559
59,641.3422285885791
60,641.2544754877209
61,641.1914154281245
62,641.1561322389298
63,641.1511045739059
64,641.1777080099278
65,641.2356491958102
66,641.3224890208257
67,641.4333885454322
68,641.5611597349327
69,641.6966504432095
70,641.829450550975
71,641.9488640355609
72,642.0450382239848
73,642.1100888769047
74,642.1390400806092
75,642.130428437773
76,642.0864880623304
77,642.0129075787629
78,641.918209708094
79,641.8128406131125
80,641.7080736002106
81,641.6148373315987
82,641.5425829635983
83,641.4983142230277
84,641.4859093451594
85,641.5058437961335
86,641.5553672636055
87,641.6291061954611
88,641.7199783926407
89,641.8202465839075
90,641.9225216184294
91,642.0205565020902
92,642.1097379606128
93,642.1872559193649
94,642.2519875294114
95,642.3041645295909
96,642.3449088781887
97,642.3757270264608
98,642.3980445930848
99,642.4128379846495
100,642.4203892044928
101,642.4201752501295
102,642.4109067009487
103,642.390728821205
104,642.3575774746089
105,642.3096534034188
106,642.2459568145439
107,642.1668045462079
108,642.0742273090535
109,641.9721323053334
110,641.8661456638882
111,641.7631201464476
112,641.6703745912687
113,641.5947935524943
114,641.5419470888548
115,641.5153830432288
116,641.5161980175084
117,641.542934267375
118,641.5918063089043
119,641.6572340428637
120,641.7326321017326
121,641.811367543015
122,641.8877513879257
123,641.9578887371529
124,642.0202066531673
125,642.0755325554893
126,642.1266975166669
127,642.1777476278922
128,642.2329285902281
129,642.2956522939445
130,642.3676548993085
131,642.448510795058
132,642.5355845935586
133,642.6244065822211
134,642.7093724987585
135,642.7846171747375
136,642.8448998997816
137,642.8863563405325
138,642.9070024540645
139,642.9069171189909
140,642.8880888926393
141,642.853985004155
142,642.8089610303714
143,642.7576465559054
144,642.704411539509
145,642.652965207132
146,642.606094143882
147,642.5655267676126
148,642.5319150141147
149,642.5049294069033
150,642.4834535569961
151,642.4658473563914
152,642.4502447376747
153,642.4348611318475
154,642.4182877258861
155,642.3997365106683
156,642.3791853896042
157,642.357372738968
158,642.3356166106453
159,642.3154884255974
160,642.2984344887429
161,642.2854661943851
162,642.2770021686302
163,642.2728685440358
164,642.2724059899951
165,642.2746245312823
166,642.2783687475113
167,642.2824720476697
168,642.2858811724449
169,642.2877370283799
170,642.2874181284292
171,642.2845768441607
172,642.2791979691001
173,642.2716739015611
174,642.2628496809073
175,642.2539815676766
176,642.246581286376
177,642.2421607407363
178,642.2419254758315
179,642.2464831537394
180,642.2556365780731
181,642.2683158712398
182,642.282671203864
183,642.2963073037065
184,642.3066088747244
185,642.3110914113804
186,642.3077155799293
187,642.2951176564967
188,642.2727241366791
189,642.2407344393877
190,642.1999770267961
191,642.1516724993805
192,642.0971626272932
193,642.0376705275289
194,641.974136856261
195,641.9071431716109
196,641.8369112595575
197,641.7633706294487
198,641.6863050301429
199,641.6055922149967
200,641.5215187118853
201,641.4351010911536
202,641.3483170903996
203,641.2641604641667
204,641.1864684857525
205,641.11951772348
206,641.0674399372168
207,641.0335645125031
208,641.0198251190335
209,641.0263642001082
210,641.0514284516395
211,641.0915739194628
212,641.1421134256955
213,641.1976893554199
214,641.2528677860031
215,641.3026968488751
216,641.3432036993255
217,641.3717995337095
218,641.3875344829797
219,641.3911261091407
220,641.3847105507994
221,641.3713418995703
222,641.3543543165108
223,641.3367438808197
224,641.320699229943
225,641.3073423056857
226,641.2966840368456
227,641.2877787584536
228,641.2790572606484
229,641.2687979412168
230,641.2556506874167
231,641.2390887449646
232,641.2196697619038
233,641.1990487785225
234,641.1797693627213
235,641.1649131472138
236,641.1576909105789
237,641.1610319923922
238,641.1772048856768
239,641.2074928812946
240,641.251956018918
241,641.3093279026405
242,641.3770975427557
243,641.4517889508902
244,641.5293917944099
245,641.6058573996224
246,641.6775735303246
247,641.7417540249484
248,641.796708607877
249,641.8419840327399
250,641.8783780237275
251,641.9078182380249
252,641.9330905622737
253,641.9574234342631
254,641.9839854720155
255,642.0153955851669
256,642.0533494228737
257,642.0984393742644
258,642.1502038059923
259,642.2073904378689
260,642.2683656346717
261,642.3315629893099
262,642.395855987364
263,642.4607632397166
264,642.5264422870057
265,642.5934860487295
266,642.6625885194408
267,642.7341750000813
268,642.8080865640545
269,642.8833782843712
270,642.9582586967291
271,643.0301759038256
272,643.0960357762468
273,643.1525154744462
274,643.1964273195262
275,643.2251029777593
276,643.2367820797341
277,643.2309788143967
278,643.2087780245072
279,643.1730052926367
280,643.1282248582743
281,643.0805322492444
282,643.0371276117477
283,643.0056912147305
284,642.993625966439
285,643.0072602130263
286,643.0511100110278
287,643.1272958757476
288,643.2352017598099
289,643.3714411605857
290,643.5301426901192
291,643.7034974670358
292,643.882461328548
293,644.0575025399738
294,644.2193180296634
295,644.3594786974708
296,644.4709904087181
297,644.548764621583
298,644.5899802992798
299,644.5943023878997
300,644.5639193415707
301,644.5033720879684
302,644.4191618037584
303,644.3191455579324
304,644.2117606142634
305,644.1051553311007
306,644.0063369567498
307,643.9204609583445
308,643.8503698292589
309,643.7964433771198
310,643.7567706509867
311,643.727615599202
312,643.7041164321325
313,643.6811175630951
314,643.6539929611275
315,643.6193092239839
316,643.5752123086152
317,643.5214935471641
318,643.4593697119685
319,643.3910700025071
320,643.3193461784927
321,643.2470129454787
322,643.1765936759276
323,643.1101044836792
324,643.0489758784796
325,642.9940971048723
326,642.9459610055032
327,642.9048683763438
328,642.8711304032117
329,642.8452114828219
330,642.8277822323014
331,642.8196796459652
332,642.8217879584993
333,642.8348699626642
334,642.8593947674506
335,642.8954075258974
336,642.9424639531725
337,642.9996244833983
338,643.0654857173946
339,643.1382203219313
340,643.215596876336
341,643.2949607092834
342,643.3731756276898
343,643.4465477726134
344,643.5107741411163
345,643.5609821950743
346,643.5919429284409
347,643.5985235698269
348,643.5763857868246
349,643.5228456592639
350,643.4377255810253
351,643.3239815180311
352,643.1879049747962
353,643.0387773344623
354,642.8879729525623
355,642.7476318112679
356,642.6291183584731
357,642.541531944019
358,642.4905354221701
359,642.4777238222302
360,642.5006613118688
361,642.5535781884527
362,642.6285716531332
363,642.717044093784
364,642.8110793426844
365,642.9045044009077
366,642.9934816262656
367,643.0765845283064
368,643.1544033001168
369,643.2287999331666
370,643.3019908733901
371,643.3756683846862
372,643.4503559487738
373,643.5251164217307
374,643.5976219512867
375,643.6645042077075
376,643.7218657169446
377,643.7658417414304
378,643.7931292747685
379,643.8014238886147
380,643.7897214753825
381,643.7584537956409
382,643.7094406987152
383,643.6456670100353
384,643.5709278918182
385,643.4894152563808
386,643.4053235352553
387,643.3225382536748
388,643.2444452773433
389,643.1738680672835
390,643.1131111689322
391,643.0640676107098
392,643.0283381721408
393,643.0073136224876
394,643.0021921044453
395,643.0139390249676
396,643.0432262652452
397,643.0903900817804
398,643.1554208723282
399,643.2379639230663
400,643.3372939464517
401,643.4522366469058
402,643.5810368676914
403,643.7211980723198
404,643.8693328440728
405,644.0210708272573
406,644.1710737944368
407,644.3132018475324
408,644.4408462823926
409,644.5473951960031
410,644.6267580365989
411,644.673874331324
412,644.6851611586956
413,644.6588778933801
414,644.595385306635
415,644.4972619861526
416,644.3692376078925
417,644.2179186332481
418,644.0513106510217
419,643.8781740784095
420,643.7072816760517
421,643.5466699813015
422,643.4029807587136
423,643.2809698882467
424,643.1832306256263
425,643.1101480226521
426,643.0600748962661
427,643.029695516888
428,643.0145228917356
429,643.0094644921921
430,643.0093882113777
431,643.0096174287966
432,643.0062852436968
433,642.9965013569908
434,642.9783370822641
435,642.9506914916667
436,642.9131295935138
437,642.865767906975
438,642.8092407165753
439,642.7447367358603
440,642.6740656450612
441,642.5997022240637
442,642.5247603215621
443,642.4528607104538
444,642.3878695412926
445,642.3335037241463
446,642.2928380816338
447,642.2678027717171
448,642.25880047543
449,642.2645680927075
450,642.2823464185954
451,642.3083300480242
452,642.3382967833091
453,642.3682873899628
454,642.3952083712144
455,642.4172441133145
456,642.4339983117239
457,642.4463459606962
458,642.456044290646
459,642.4651960385935
460,642.4756819530778
461,642.4886908456953
462,642.5044578434654
463,642.52225695334
464,642.5406102774708
465,642.5576211831814
466,642.5713258074329
467,642.5799746034161
468,642.5821974996308
469,642.5770579820494
470,642.5640305006478
471,642.5429293496485
472,642.5138020997011
473,642.4768073557593
474,642.4321223611965
475,642.3799381291077
476,642.3205712046324
477,642.2546627460034
478,642.1833872319713
479,642.1085821623534
480,642.0327330364412
481,641.9587874645732
482,641.8898152487877
483,641.8285701633121
484,641.7770371098075
485,641.7360573899465
486,641.7051110086525
487,641.6823024432936
488,641.6645574165801
489,641.6480076600211
490,641.628523725986
491,641.6023437431037
492,641.5667284435438
493,641.5205504884473
494,641.4647097915088
495,641.4022712565308
496,641.3382582370867
497,641.2791026951255
498,641.2318360900409
499,641.2031747080404
500,641.1986733436215
501,641.2220781643665
502,641.2749369578843
503,641.3564718520881
504,641.4636961177986
505,641.5917411016712
506,641.7343450835018
507,641.8844520080083
508,642.0348670645526
509,642.1789023687513
510,642.3109288475622
511,642.4267556503154
512,642.5237943633018
513,642.6010181118439
514,642.6587749135127
515,642.69853947732
516,642.7226733096769
517,642.7342172271894
518,642.736694850099
519,642.7338917219157
520,642.7295977389821
521,642.7273352920942
522,642.7301073218605
523,642.7401809251758
524,642.7589028570934
525,642.7865487791034
526,642.8222251261061
527,642.8638454769414
528,642.9081935467503
529,642.9510800526404
530,642.9876034335041
531,643.0125211172506
532,643.0207207236236
533,643.0077557506539
534,642.9703872248774
535,642.9070568854202
536,642.8182167476454
537,642.7064603674655
538,642.5764330967503
539,642.4345257177188
540,642.2883752868651
541,642.1462166516834
542,642.0161495054036
543,641.9053983120828
544,641.8196353670045
545,641.7624203352116
546,641.7348060177429
547,641.7351713757268
548,641.7593418166474
549,641.8010215987106
550,641.8525009586214
551,641.9055383126571
552,641.9522822382804
553,641.9860990877353
554,642.0022023633359
555,641.9980254677483
556,641.9733264626065
557,641.9300487284194
558,641.8719799040699
559,641.804259821478
560,641.7327905535914
561,641.6635965755947
562,641.6021790278553
563,641.552919342283
564,641.5186067017901
565,641.5001638587999
566,641.4966152850275
567,641.5052983693263
568,641.5222828179648
569,641.5429356650486
570,641.5625426899346
571,641.5768821155253
572,641.5826650816938
573,641.5778103872457
574,641.5615753561648
575,641.5345832985832
576,641.4987665840029
577,641.4572123363712
578,641.4138886519361
579,641.373254620386
580,641.339801632943
581,641.31760485742
582,641.3099586925032
583,641.3191315776733
584,641.3462285484324
585,641.3911231171229
586,641.4524293719791
587,641.527520472304
588,641.6126290615746
589,641.7030636984988
590,641.7935483948272
591,641.8786608041526
592,641.9533189888044
593,642.0132505627377
594,642.0553816033687
595,642.0781093095635
596,642.0814544153588
597,642.0671044311028
598,642.0383508558397
599,641.9999064726153
600,641.9575840336619
601,641.9178355069519
602,641.8871846401598
603,641.8716177703081
604,641.876011863174
605,641.903671437877
606,641.956028399402
607,642.032537841321
608,642.130776002334
609,642.2467177709675
610,642.375151812494
611,642.5101833333619
612,642.64577003278
613,642.7762343154484
614,642.8967005508517
615,643.0034216814674
616,643.0939793399818
617,643.1673621555036
618,643.2239420946249
619,643.2653626945594
620,643.2943235501856
621,643.3142262093144
622,643.3286756965325
623,643.3409013793244
624,643.35322100707
625,643.3666804102759
626,643.3809574377237
627,643.3945517733677
628,643.4052211910794
629,643.41057899874
630,643.4087358970253
631,643.3988583859251
632,643.3815340541611
633,643.3588768339486
634,643.3343563108039
635,643.3123809466724
636,643.2976999114778
637,643.2947105302435
638,643.3067673477486
639,643.3355851817211
640,643.3808167586316
641,643.4398709355032
642,643.5080190097365
643,643.5788060764759
644,643.6447362362152
645,643.6981416178694
646,643.7320963901923
647,643.7412224477266
648,643.7222624839752
649,643.6743540259408
650,643.5990006781788
651,643.499788913477
652,643.3819330866486
653,643.2517402368167
654,643.1160629398695
655,642.9817645111024
656,642.8551939491692
657,642.7416859307543
658,642.645141154236
659,642.5677570035153
660,642.5099526135242
661,642.4704878222218
662,642.4467385954799
663,642.4350775072382
664,642.4313166276187
665,642.4311820384876
666,642.430781051247
667,642.4269977839076
668,642.4177404568936
669,642.4019895608564
670,642.3796526240928
671,642.3512875268268
672,642.3177835449139
673,642.2800816499539
674,642.2389910771751
675,642.1951354844672
676,642.149036414256
677,642.101306266634
678,642.0528859931585
679,642.0052422178114
680,641.9604449763946
681,641.9210796215061
682,641.8899934715171
683,641.8699216569885
684,641.8630645630951
685,641.8707001430558
686,641.8929094099328
687,641.9284709490222
688,641.9749454945936
689,642.0289378967365
690,642.0864963032805
691,642.1435809663222
692,642.1965127308512
693,642.2423152646954
694,642.2789050618821
695,642.305140639296
696,642.3207844688345
697,642.3264331281856
698,642.3234354541191
699,642.3137790454832
700,642.299919053393
701,642.2845549684673
702,642.2704020764966
703,642.2600174040798
704,642.255708927976
705,642.2594989086914
706,642.2730706468717
707,642.2976423620153
708,642.3337784378115
709,642.3812136362362
710,642.4387795392415
711,642.50448456672
712,642.5757430706152
713,642.6497028843457
714,642.7235987039596
715,642.7950668532833
716,642.8623853559101
717,642.9246268542313
718,642.9817159972124
719,643.0343802304802
720,643.0839930931414
721,643.1323299745771
722,643.181272030383
723,643.232499965022
724,643.2872185246281
725,643.3459409297875
726,643.4083410124532
727,643.4731668039524
728,643.5382185391137
729,643.6004208667025
730,643.6560383625111
731,643.7010663856295
732,643.7317690338018
733,643.7452644395299
734,643.7400222527099
735,643.7161585330542
736,643.6754706605236
737,643.6212164939618
738,643.5576885113437
739,643.4896656517302
740,643.421844684159
741,643.3583497063369
742,643.3023910498899
743,643.2561096996867
744,643.2206117581774
745,643.1961642901176
746,643.18248677824
747,643.1790442698837
748,643.1852469946936
749,643.2004964008224
750,643.2240784131409
751,643.2549590849358
752,643.2915587079127
753,643.3315716239421
754,643.37188223489
755,643.4086135942551
756,643.43732858066
757,643.4533817524026
758,643.452397029432
759,643.4308255382658
760,643.3865185032025
761,643.3192317904673
762,643.2309657524434
763,643.1260478002434
764,643.0108970243501
765,642.8934670397413
766,642.7824281382245
767,642.6862041105942
768,642.6120086247807
769,642.5650261420751
770,642.5478587061685
771,642.5603172198201
772,642.5995746784911
773,642.6606304902186
774,642.7369826356451
775,642.821384477653
776,642.9065757364555
777,642.9859105624329
778,643.0538419148037
779,643.1062473761062
780,643.140596061546
781,643.1559643826768
782,643.1529148324997
783,643.1332631497729
784,643.0997768576483
785,643.0558591023527
786,643.0052614692457
787,642.9518430902278
788,642.8993682196817
789,642.8513216771604
790,642.810723871746
791,642.7799416863492
792,642.7605110162214
793,642.7530046738877
794,642.7569906461316
795,642.7711230898202
796,642.7933858010778
797,642.8214679270978
798,642.8532090142515
799,642.8870237379306
800,642.9222156598358
801,642.9591127167729
802,642.9989969085266
803,643.0438422879723
804,643.095903966423
805,643.1572143038849
806,643.2290497209425
807,643.3114387209904
808,643.4027867633445
809,643.4996905006527
810,643.5969961304327
811,643.688123642979
812,643.7656402749292
813,643.8220310135872
814,643.8505794184908
815,643.8462401684178
816,643.8063703245316
817,643.7312008244594
818,643.623971601522
819,643.4907126236433
820,643.3397121062665
821,643.1807557337359
822,643.0242405563513
823,642.8802650010284
824,642.7577775448406
825,642.6638456502149
826,642.6030984834134
827,642.5774002971989
828,642.5858081032992
829,642.6248388741951
830,642.6890170279287
831,642.7716124742802
832,642.8654382651393
833,642.9635716914294
834,643.0598983930514
835,643.1494407596263
836,643.228489250442
837,643.2945911163778
838,643.3464711741763
839,643.3839648599691
840,643.408016991706
841,643.4207333453107
842,643.4253995967761
843,643.4263564951668
844,643.4286614809847
845,643.4375445774193
846,643.4577346963526
847,643.4927691239737
848,643.5444060243414
849,643.6122473896634
850,643.6936539681437
851,643.7839919950729
852,643.8771923026783
853,643.9665398064009
854,644.045571030667
855,644.1089498462444
856,644.1532024672163
857,644.1772056851327
858,644.1823403490356
859,644.172260386026
860,644.1522939866354
861,644.128574938133
862,644.1070669107863
863,644.0926651393048
864,644.0885377015337
865,644.0958161394523
866,644.1136693863315
867,644.1397075114077
868,644.1705953287478
869,644.2027377009401
870,644.2329203927733
871,644.2588268884193
872,644.2793879741558
873,644.2949518515213
874,644.3072829497517
875,644.3194073740277
876,644.335329162179
877,644.3596473544861
878,644.3971066217507
879,644.4521185766282
880,644.528304124481
881,644.6281182044687
882,644.7526062205884
883,644.9013062315383
884,645.0722762065396
885,645.2622133664327
886,645.4666439604413
887,645.680179587683
888,645.8968405712365
889,646.1104308661154
890,646.3149260591448
891,646.5048322077879
892,646.6754985566007
893,646.8233956095991
894,646.9463654339794
895,647.0438141502304
896,647.1167864302569
897,647.1678681657393
898,647.2009001543786
899,647.2205317806747
900,647.231683873004
901,647.2390120585508
902,647.246457208725
903,647.2569400214517
904,647.2722155504716
905,647.2928684058286
906,647.3184144211788
907,647.3474794476891
908,647.3780358584854
909,647.4076807013672
910,647.4339381167881
911,647.4545670442419
912,647.4678528771573
913,647.47285960129
914,647.4696206250884
915,647.4592512679188
916,647.4439662088242
