acceleration,velocity,displacement
-0.05118953733810407,0.0,0.0
-0.050098987778147766,-2.5322131279062957e-05,-6.330532819765739e-09
-0.04901201938617934,-5.0099883070144734e-05,-2.5186036407067666e-08
-0.047932185420712675,-7.433593427186774e-05,-5.629499074257079e-08
-0.046862983750957626,-9.803472656478532e-05,-9.938765595173406e-08
-0.04580783022098762,-0.00012120243005777163,-1.541969451073733e-07
-0.044770033246962826,-0.00014384689592475923,-2.20459276603006e-07
-0.04375277000099132,-0.00016597759673674776,-2.9791539976838276e-07
-0.04275906448369779,-0.00018760555535792003,-3.863111877920497e-07
-0.04179176771968458,-0.00020874326340876561,-4.853983924837212e-07
-0.04085354023659318,-0.00022940459039783506,-5.949353559353713e-07
-0.039946836921545825,-0.0002496046846873698,-7.146876747066726e-07
-0.039073894292569626,-0.00026935986749089866,-8.444288127512397e-07
-0.03823672018026641,-0.00028868752110910767,-9.839406599012412e-07
-0.037437085792615746,-0.00030760597260232823,-1.1330140333291002e-06
-0.03667652013138468,-0.00032613437408332834,-1.2914491200005143e-06
-0.03595630672617161,-0.00034429258079771743,-1.4590558587207758e-06
-0.035277482635868815,-0.0003621010281382275,-1.635654260954762e-06
-0.034640839636273756,-0.00037958060870626315,-1.8210746701658847e-06
-0.03404692747625055,-0.00039675255048439423,-2.015157959963549e-06
-0.03349605905010432,-0.00041363829711598294,-2.2177556718636433e-06
-0.03298831730729678,-0.0004302593912053332,-2.4287300939439724e-06
-0.032523563710936496,-0.00044663736145989153,-2.6479542821102785e-06
-0.03210144806466135,-0.000462793614403791,-2.875312026076199e-06
-0.03172141954060973,-0.0004787493313051088,-3.110697762503424e-06
-0.03138273874698246,-0.0004945253708770068,-3.354016438048953e-06
-0.031084490672284845,-0.0005101421782318237,-3.605183325326161e-06
-0.03082559834330707,-0.0005256197004857217,-3.864123795005547e-06
-0.030604837039540686,-0.0005409773093314336,-4.130773047459836e-06
-0.03042084891313571,-0.0005562337308196027,-4.405075807497595e-06
-0.030272157864053732,-0.0005714069825139001,-4.686985985830971e-06
-0.030157184517282845,-0.0005865143181092343,-4.976466310986755e-06
-0.030074261149677397,-0.0006015721795259744,-5.273487935395557e-06
-0.030021646419588623,-0.0006165961564182908,-5.5780300193816234e-06
-0.02999753976125773,-0.0006316009529635024,-5.890079296727072e-06
-0.03000009531981696,-0.0006466003617337711,-6.20962962540139e-06
-0.030027435326110352,-0.0006616072443952529,-6.536681526933646e-06
-0.030077662843435,-0.0006766335189376392,-6.871241717766869e-06
-0.03014887385535704,-0.0006916901531123373,-7.213322635779363e-06
-0.030239168696939187,-0.0007067871637504113,-7.56294196499505e-06
-0.03034666285183484,-0.0007219336216376048,-7.920122161342054e-06
-0.030469497139190817,-0.0007371376616353612,-8.284889982160295e-06
-0.030605847303015587,-0.0007524064977459128,-8.657276022005615e-06
-0.030753933006434805,-0.0007677464428232754,-9.037314257147913e-06
-0.03091202622892676,-0.0007831629326321157,-9.425041601011761e-06
-0.031078459057688686,-0.0007986605539537697,-9.820497472658232e-06
-0.03125163084641114,-0.0008142430764297947,-1.0223723380254123e-05
-0.03143001468975026,-0.000829913487813835,-1.0634762521315031e-05
-0.03161216314202293,-0.0008456740322717783,-1.1053659401336435e-05
-0.03179671310291977,-0.0008615262513330139,-1.1480459472237633e-05
-0.03198238980093681,-0.000877471027058978,-1.1915208791835631e-05
-0.03216800982211974,-0.0008935086269647422,-1.2357953705341561e-05
-0.03235248315268106,-0.0009096387502084424,-1.2808740549634857e-05
-0.03253481422617552,-0.0009258605745531565,-1.3267615380825257e-05
-0.03271410198908432,-0.0009421728036069715,-1.3734623725365289e-05
-0.03288953902451188,-0.0009585737138603706,-1.4209810354732124e-05
-0.033060409801684267,-0.0009750612010669196,-1.4693219083463947e-05
-0.03322608814340591,-0.000991632825553192,-1.5184892590118975e-05
-0.03338603401757785,-0.0010082858560934382,-1.568487226053063e-05
-0.03353978976120096,-0.0010250173120381328,-1.6193198052563525e-05
-0.0336869758401434,-0.001041824003438469,-1.6709908381432674e-05
-0.03382728623811497,-0.0010587025689580336,-1.7235040024531798e-05
-0.03396048355306572,-0.0010756495114058288,-1.7768628044622764e-05
-0.03408639386144856,-0.0010926612307594573,-1.8310705730164086e-05
-0.03420490139677921,-0.0011097340545740142,-1.8861304551497453e-05
-0.03431594308266998,-0.0011268642656938764,-1.9420454131564426e-05
-0.034419502960282136,-0.0011440481272046144,-1.9988182229789048e-05
-0.03451560655536221,-0.0011612819045835254,-2.0564514737736082e-05
-0.03460431524292516,-0.0011785618850330972,-2.1149475685140238e-05
-0.03468572068729825,-0.0011958843940156531,-2.1743087254902425e-05
-0.03475993945093038,-0.0012132458090502102,-2.2345369805668893e-05
-0.03482710786464526,-0.001230642570879104,-2.295634190065122e-05
-0.034887377233228066,-0.0012480711921535725,-2.357602034140939e-05
-0.03494090942416856,-0.0012655282638179216,-2.4204420205402264e-05
-0.034987872865243456,-0.0012830104593902747,-2.484155488620431e-05
-0.03502843896001549,-0.0013005145373465895,-2.5487436135388528e-05
-0.03506277891212109,-0.0013180373418146237,-2.614207410517883e-05
-0.0350910609264231,-0.0013355758017742597,-2.680547739107605e-05
-0.03511344773533489,-0.001353126928939699,-2.747765307375454e-05
-0.03513009439121279,-0.001370687814471336,-2.81586067596073e-05
-0.03514114626966516,-0.0013882556246365555,-2.8848342619384272e-05
-0.035146737234801204,-0.001405827595512672,-2.9546863424421578e-05
-0.035146987919229086,-0.0014234010268011797,-3.025417058000004e-05
-0.035142004070207074,-0.0014409732747985386,-3.097026415539997e-05
-0.03513187491408327,-0.0014585417445446111,-3.1695142910235756e-05
-0.0351166714982749,-0.0014761038811477007,-3.242880431665884e-05
-0.03509644498240519,-0.0014936571602678708,-3.317124457701273e-05
-0.035071224864272596,-0.0015111990777295402,-3.392245863651208e-05
-0.0350410171410275,-0.0015287271382308652,-3.4682440190502183e-05
-0.03500580242246994,-0.0015462388431217397,-3.545118168584033e-05
-0.034965534031826465,-0.0015637316772353137,-3.62286743159296e-05
-0.034920136147607556,-0.0015812030947801722,-3.701490800893347e-05
-0.034869502055386616,-0.0015986505043309208,-3.7809871408711245e-05
-0.03481349258727076,-0.001616071252991585,-3.861355184804187e-05
-0.034751934824416644,-0.001633462609844507,-3.942593531375089e-05
-0.034684621121567484,-0.001650821748831003,-4.024700640341977e-05
-0.0346113084889311,-0.0016681457312336277,-4.107674827343593e-05
-0.03453171835137419,-0.001685431487943704,-4.191514257823026e-05
-0.03444553670730264,-0.0017026758017083731,-4.276216940064328e-05
-0.03435241472188294,-0.0017198752895656695,-4.361780717346179e-05
-0.03425196979552412,-0.0017370263856950213,-4.4482032592276966e-05
-0.034143787143083276,-0.001754125324929673,-4.535482051993314e-05
-0.03402742190798497,-0.0017711681271924402,-4.6236143882963665e-05
-0.033902401823174055,-0.00178815058312523,-4.712597356054308e-05
-0.033768230414621375,-0.001805068241184679,-4.802427826662056e-05
-0.03362439071909444,-0.001821916396468108,-4.8931024426033756e-05
-0.03347034945885654,-0.0018386900815125957,-4.9846176045528934e-05
-0.03330556159235057,-0.0018553840592753976,-5.076969458072593e-05
-0.033129475152279576,-0.001871992818461555,-5.170153880016017e-05
-0.03294153628952627,-0.0018885105713220066,-5.2641664647606056e-05
-0.03274119445054692,-0.001904931254007025,-5.359002510393832e-05
-0.03252790761631719,-0.001921248529523741,-5.454657004982101e-05
-0.03230114752403457,-0.001937455793308829,-5.551124613052915e-05
-0.032060404788644775,-0.0019535461813869988,-5.648399662420311e-05
-0.0318051938487826,-0.0019695125810463556,-5.746476131481145e-05
-0.031535057682342806,-0.001985347643929137,-5.8453476371055325e-05
-0.03124957226350383,-0.002001043801415599,-5.945007423239151e-05
-0.03094835075568465,-0.002016593282170396,-6.0454483503288006e-05
-0.03063104744804487,-0.0020319881317213285,-6.146662885676093e-05
-0.030297361447201035,-0.00204722023394514,-6.248643094817755e-05
-0.02994704013400099,-0.0020622813343404403,-6.351380634024894e-05
-0.02957988239078877,-0.002077163064971638,-6.454866744007695e-05
-0.02919574160152591,-0.0020918569709697165,-6.55909224490623e-05
-0.028794528425564278,-0.002106354538476489,-6.664047532642385e-05
-0.028376213341105273,-0.0021206472239181564,-6.769722576702251e-05
-0.027940828943237603,-0.002134726484489242,-6.876106919412436e-05
-0.02748847196985272,-0.0021485838097175147,-6.983189676767606e-05
-0.027019305025666324,-0.0021622107539663944,-7.090959540859704e-05
-0.02653355798180773,-0.002175598969718263,-7.199404783951821e-05
-0.026031529036041518,-0.0021887402414727253,-7.308513264231596e-05
-0.02551358541278408,-0.0022016265200849316,-7.418272433270538e-05
-0.024980163661403574,-0.0022142499573534788,-7.528669345206497e-05
-0.02443176949212987,-0.002226602940641862,-7.63969066765638e-05
-0.023868977088129507,-0.0022386781272869267,-7.7513226943546e-05
-0.023292427848589415,-0.0022504684785211062,-7.863551359499801e-05
-0.02270282853698684,-0.0022619672926175003,-7.976362253778266e-05
-0.022100948820006742,-0.002273168236956749,-8.089740642017622e-05
-0.021487618183652742,-0.002284065378707664,-8.203671482409232e-05
-0.020863722209212416,-0.00229465321380588,-8.31813944722207e-05
-0.020230198193233663,-0.0023049266939064914,-8.43312894491488e-05
-0.01958803010975154,-0.0023148812509822376,-8.548624143537098e-05
-0.01893824293590169,-0.0023245128192436507,-8.664608995292745e-05
-0.018281896383703637,-0.002333817854073552,-8.781067262125676e-05
-0.017620078094557165,-0.0023427933476931175,-8.897982542169843e-05
-0.01695389635839852,-0.0023514368413063563,-9.01533829689483e-05
-0.016284472418265833,-0.0023597464335005226,-9.133117878765002e-05
-0.01561293241813211,-0.002367720784709622,-9.251304559220255e-05
-0.014940399057667982,-0.0023753591175785724,-9.36988155677746e-05
-0.014267983042641848,-0.0023826612131036496,-9.488832065044516e-05
-0.01359677445980172,-0.0023896274024792605,-9.60813928043409e-05
-0.012927834238180402,-0.002396258554653756,-9.727786429362415e-05
-0.012262185865663734,-0.002402556059679717,-9.847756794720752e-05
-0.011600807510835033,-0.0024085218080238417,-9.968033741413341e-05
-0.010944624669516775,-0.0024141581660689295,-0.00010088600740765661
-0.01029450342350705,-0.0024194679480921853,-0.00010209441393619689
-0.009651244368582949,-0.002424454385040208,-0.00010330539451947998
-0.00901557723912944,-0.002429121090442136,-0.00010451878838835057
-0.008388156227573263,-0.002433472023808812,-0.00010573443666691331
-0.007769555972891682,-0.002437511451858928,-0.00010695218253583024
-0.007160268183709431,-0.0024412439078980784,-0.00010817187137576949
-0.0065606988724654985,-0.002444674149662122,-0.00010939335089015954
-0.005971166199740432,-0.0024478071159301736,-0.00011061647120655762
-0.005391898949153961,-0.002450647882217397,-0.00011184108495609452
-0.004823035667321492,-0.002453201615871516,-0.00011306704733061674
-0.004264624508678286,-0.002455473530915516,-0.0001142942161173135
-0.0037166238211561687,-0.002457468842997975,-0.00011552245171079187
-0.0031789034965788374,-0.0024591927248274084,-0.00011675161710274821
-0.0026512470895164657,-0.0024606502624739323,-0.00011798157784957355
-0.0021333546795759776,-0.0024618464129162053,-0.00011921220201842109
-0.0016248464176546692,-0.002462785963190513,-0.00012044336011244777
-0.001125266667302851,-0.0024634734914617522,-0.00012167492497611083
-0.0006340886413220089,-0.0024639133302889085,-0.0001229067716815485
-0.00015071944497783242,-0.0024641095323104834,-0.00012413877739719833
0.0003254945404698209,-0.0024640658385366105,-0.00012537082123991012
0.000795261981788076,-0.002463785649406046,-0.00012660278411189577
0.0012593406641993026,-0.0024632719987445493,-0.00012783454852393342
0.0017185313435111376,-0.0024625275307426217,-0.0001290659984063052
0.002173671412433329,-0.0024615544800536356,-0.00013029701890900428
0.002625628405976414,-0.0024603546550990333,-0.00013152749619279244
0.003075293352995142,-0.0024589294246592903,-0.00013275731721273202
0.0035235739571966443,-0.002457279707831742,-0.00013398636949585479
0.003971387576780351,-0.0024554059674482477,-0.00013521454091467477
0.004419653978515672,-0.002453308207059424,-0.0001364417194583017
0.004869287863732277,-0.002450985971598862,-0.00013766779300296625
0.005321191187429804,-0.0024484383518360714,-0.000138892649083825
0.005776245309305057,-0.002445663992711888,-0.00014011617466996198
0.006235303024028532,-0.0024426611056285546,-0.0001413382559445471
0.00669918052017625,-0.002439427484742503,-0.00014255877809213986
0.007168649320784262,-0.002435960527282263,-0.00014377762509514604
0.007644428272296516,-0.002432257257883993,-0.00014499467954143762
0.008127175673988482,-0.0024283143568974218,-0.00014620982244513298
0.008617481665512329,-0.0024241281925625464,-0.00014742293308249796
0.009115861001125386,-0.002419694856895887,-0.00014863388884486258
0.009622746333312563,-0.0024150102050622775,-0.00014984256511035211
0.010138482118535831,-0.0024100698979493155,-0.000151048835136105
0.010663319252061685,-0.002404869447606666,-0.000152252569972494
0.011197410531426675,-0.002399404265160794,-0.00015345363840068587
0.011740807030511786,-0.002393669710770309,-0.00015465190689466864
0.012293455439290666,-0.0023876611451528586,-0.00015584723960864944
0.012855196395867604,-0.002381373982194069,-0.00015703949839048617
0.01342576381504411,-0.002374803742141341,-0.00015822854282157003
0.014004785204628462,-0.002367946104886423,-0.00015941423028332697
0.014591782956121391,-0.0023607969628462355,-0.00016059641605026013
0.015186176594972798,-0.002353352472958462,-0.0001617749534092113
0.015787285972945094,-0.0023456091073164823,-0.00016294969380428005
0.01639433538253752,-0.002337563701977612,-0.00016412048700660358
0.01700645857414841,-0.0023292135034884403,-0.0001652871813079701
0.017622704657529367,-0.002320556212680521,-0.00016644962373701233
0.018242044861964107,-0.0023115900253006475,-0.00016760766029650764
0.0188633801114469,-0.0023023136690572947,-0.00016876113622009712
0.019485549345142548,-0.0022927264366931475,-0.00016990989624653474
0.020107338479424985,-0.0022828282147370057,-0.0001710537849093923
0.02072748986360982,-0.002272619507651247,-0.00017219264683998936
0.021344712035812792,-0.0022621014571763912,-0.00017332632708119626
0.021957689557695826,-0.002251275856778014,-0.00017445467140968487
0.022565092709556176,-0.002240145161211201,-0.00017557752666418218
0.02316558685669198,-0.002228712491319639,-0.00017669474107731488
0.023757841343853166,-0.0022169816342695026,-0.00017780616460871216
0.02434053782408672,-0.0022049570394775176,-0.0001789116492771489
0.024912377968222793,-0.00219264381052944,-0.00018001104948965065
0.02547209052498567,-0.002180047693406138,-0.00018110422236563455
0.02601843771174903,-0.0021671750613469543,-0.0001821910280543228
0.026550220921074275,-0.0021540328966887486,-0.00018327133004383174
0.02706628573734388,-0.002140628770024144,-0.00018434499546050997
0.027565526274702767,-0.0021269708170211323,-0.00018541189535727128
0.028046888868430476,-0.002113067713235349,-0.0001864719049898354
0.028509375169061338,-0.002098928647225976,-0.00018752490407995072
0.028952044698389863,-0.002084563292259113,-0.00018857077706482199
0.029374016932249974,-0.002069981776851453,-0.00018960941333209962
0.029774472982918024,-0.0020551946543726613,-0.00019064070743990565
0.030152656966307676,-0.0020402128718853547,-0.00019166455932147016
0.030507877152355565,-0.002025047738355689,-0.0001926808744740304
0.03083950700258325,-0.0020097108923169543,-0.00019368956413169858
0.031146986186321942,-0.001994214269019728,-0.00019469054542203276
0.031429821634065,-0.0019785700670646314,-0.00019568374150605384
0.0316875886442244,-0.001962790714495059,-0.00019666908170144377
0.03191993202403336,-0.0019468888343279944,-0.00019764650158864955
0.03212656722414682,-0.0019308772095159494,-0.00019861594309961053
0.032307281417662564,-0.001914768747355497,-0.0001995773545888284
0.03246193447159894,-0.0018985764433831816,-0.00020053069088651307
0.03259045976042897,-0.0018823133448251747,-0.00020147591333356517
0.0326928647817477,-0.0018659925136896307,-0.00020241298979819386
0.032769231556412884,-0.0018496269896050906,-0.00020334189467401755
0.0328197168197038,-0.0018332297525110615,-0.00020426260885954658
0.03284455201962753,-0.0018168136853012288,-0.00020517511971899965
0.032844043126462996,-0.001800391536514706,-0.00020607942102445363
0.03281857023344812,-0.0017839758831747284,-0.000206975512879376
0.03276858690949507,-0.0017675790938889925,-0.00020786340162364192
0.03269461926158151,-0.0017512132923462233,-0.00020874309972020071
0.0325972646744595,-0.001734890321362213,-0.00020961462562362783
0.0324771902080024,-0.0017186217076415977,-0.00021047800363087877
0.032335130644018065,-0.0017024186274285926,-0.00021133326371464633
0.032171886189926495,-0.0016862918732201064,-0.0002121804413398085
0.031988319867231156,-0.0016702518217058169,-0.00021301957726353998
0.03178535462621942,-0.0016543084030824543,-0.00021385071731973705
0.031563970223347976,-0.0016384710718700625,-0.00021467391218847517
0.0313251998771654,-0.001622748779344934,-0.00021548921715127892
0.031070126691212833,-0.0016071499477028396,-0.00021629669183304085
0.03079987980466098,-0.0015916824460788712,-0.00021709639993148627
0.03051563021039414,-0.0015763535685751073,-0.00021788840893514975
0.030218586173977012,-0.0015611700144790145,-0.0002186727898309133
0.029909988198988182,-0.0015461378708857732,-0.0002194496168022545
0.029591103511881548,-0.0015312625979580557,-0.00022021896691946545
0.029263220074967476,-0.0015165490170613435,-0.0002209809198232203
0.028927640168970984,-0.001502001302000359,-0.00022173555740298572
0.028585673608302026,-0.0014876229735560408,-0.00022248296347187482
0.028238630663585226,-0.0014734168974880689,-0.00022322322343963584
0.027887814775881654,-0.0014593852861282022,-0.0002239564239855399
0.02753451516185838,-0.0014455297036437673,-0.0002246826527329829
0.027179999423118953,-0.001431851074997523,-0.0002254019979276432
0.026825506274190534,-0.0014183496985731956,-0.0002261145481210359
0.026472238490535552,-0.001405025262382014,-0.00022682039186127468
0.02612135616480103,-0.0013918768637181799,-0.00022751961739279973
0.025773970360726876,-0.001378903032086798,-0.00022821231236675097
0.02543113726692524,-0.001366101755179885,-0.00022889856356356764
0.025093852958012582,-0.0013534705076236504,-0.00022957845662926853
0.024763048852285786,-0.0013410062821710758,-0.0002302520758267172
0.02443958791658182,-0.001328705622978859,-0.0002309195038030047
0.024124261630553864,-0.001316564660592075,-0.00023158082137389742
0.023817787700779414,-0.0013045791482592418,-0.00023223610732611024
0.023520808507431584,-0.001292744499207189,-0.00023288543823797686
0.023233890259921113,-0.0012810558245153509,-0.0002335288883189075
0.022957522824314153,-0.001269507971244292,-0.0002341665292678474
0.02269212016468203,-0.001258095560497043,-0.00023479843015078273
0.02243802132064929,-0.0012468130251257102,-0.0002354246572971884
0.02219549183280189,-0.0012356546468373474,-0.00023604527421517918
0.021964725529354766,-0.0012246145924968083,-0.00023666034152501273
0.021745846599639993,-0.0012136869494645596,-0.00023726991691050306
0.021538911900145865,-0.0012028657598396131,-0.0002378740550878291
0.021343913462125292,-0.0011921450534990454,-0.00023847280779116378
0.021160781188232707,-0.001181518879836456,-0.00023906622377449765
0.020989385736354536,-0.0011709813381053091,-0.0002396543488289831
0.02082954159892965,-0.0011605266062714881,-0.0002402372258150773
0.020681010400935847,-0.0011501489682715217,-0.00024081489470871304
0.02054350445187675,-0.0011398428395583186,-0.0002413873926606705
0.020416690584765106,-0.001129602790799158,-0.00024195475406825985
0.020300194295442095,-0.0011194235695791064,-0.00024251701065835442
