frame_number,force
0,732.3972200000607
1,732.6454006434599
2,732.8721130681768
3,733.0581571612922
4,733.1885428223522
5,733.2538535965666
6,733.2508926075266
7,733.1825844344447
8,733.0572023729723
9,732.8870625620111
10,732.686869684751
11,732.4719176835271
12,732.2563554186156
13,732.0517242432412
14,731.8659498941948
15,731.7029115504907
16,731.5626175489446
17,731.4419104142604
18,731.3355363402541
19,731.2373750166828
20,731.1416371887577
21,731.0438714608938
22,730.941654768178
23,730.8348829436858
24,730.7256470076194
25,730.6177625011097
26,730.5160793223457
27,730.4257220727245
28,730.351397337889
29,730.2968595031687
30,730.26456797068
31,730.255524227619
32,730.2692605707623
33,730.3039529247377
34,730.3566297984188
35,730.4234398462256
36,730.4999315022724
37,730.5813068353226
38,730.6626400872339
39,730.7390794335067
40,730.8060557735743
41,730.8595032775851
42,730.8960738140896
43,730.9133206663405
44,730.9098366852479
45,730.8853484985202
46,730.8407808785265
47,730.778301133752
48,730.701330140497
49,730.6144856294908
50,730.5234274182602
51,730.4345968807793
52,730.3548592743929
53,730.2910620474329
54,730.2495349529094
55,730.2355891138394
56,730.2530988041369
57,730.30423901355
58,730.3894019744854
59,730.5072618479817
60,730.6549380357396
61,730.8282271390206
62,731.0218961279965
63,731.2300266112687
64,731.4463823366477
65,731.664765448688
66,731.8793410668095
67,732.0849317696116
68,732.2772922984458
69,732.453360478487
70,732.6114543623469
71,732.7513650615871
72,732.8742879858537
73,732.9825497544338
74,733.0791318719207
75,733.1670559066587
76,733.2487497886732
77,733.32553608594
78,733.3973628760403
79,733.462837977194
80,733.5195383123516
81,733.5644807986553
82,733.594606485048
83,733.6071657833204
84,733.5999709635822
85,733.5715525734241
86,733.5212823988693
87,733.4494981213536
88,733.3576094500073
89,733.2481305948241
90,733.1245966233047
91,732.9913576273871
92,732.8532644361657
93,732.7152593913911
94,732.5818930056249
95,732.4568160016656
96,732.3423327050547
97,732.2391226690347
98,732.1462230388204
99,732.0613053053281
100,731.9811882709948
101,731.9024429474182
102,731.8219141028354
103,731.7370292724399
104,731.6458634806727
105,731.54702435494
106,731.4394743271599
107,731.3223998486812
108,731.1951885727718
109,731.0575176121033
110,730.9095170238
111,730.7519613949464
112,730.58644865491
113,730.4155317910919
114,730.2427703606232
115,730.0726759359941
116,729.9105501474056
117,729.7622469132446
118,729.6339056915677
119,729.5316861456703
120,729.4615029482126
121,729.4287369589497
122,729.4378936722544
123,729.492195459915
124,729.5931393389338
125,729.7401125018522
126,729.9301859318098
127,730.1581690015727
128,730.4169299046245
129,730.6979228588057
130,730.9918396724553
131,731.289304689403
132,731.5815345639664
133,731.8608875671335
134,732.1212459993052
135,732.3582095274917
136,732.5691086303448
137,732.7528663434913
138,732.9097518940712
139,733.0410856965105
140,733.1489573095787
141,733.235994189006
142,733.305181911702
143,733.3597114118702
144,733.4028227678099
145,733.4376153589196
146,733.4667999128749
147,733.4923958387468
148,733.5154256648361
149,733.5356945841918
150,733.5517376123089
151,733.5609726788385
152,733.560042952945
153,733.5452929555831
154,733.5133069591698
155,733.4614326354332
156,733.3882102199935
157,733.293638170631
158,733.1792413246277
159,733.0479537642543
160,732.9038600699785
161,732.7518513760555
162,732.5972617441398
163,732.4455507416417
164,732.302066427289
165,732.1718680179067
166,732.0595551339825
167,731.9690651390684
168,731.9034399663705
169,731.8645974831849
170,731.8531553248649
171,731.8683449540787
172,731.9080283002365
173,731.9688080624485
174,732.0462226988541
175,732.1350327530671
176,732.2296108855531
177,732.3244273405653
178,732.4145857365892
179,732.4963334211145
180,732.5674604518993
181,732.6275097250524
182,732.6777387593759
183,732.7208073994987
184,732.7602319897401
185,732.7997283857809
186,732.8426084351331
187,732.8913687133389
188,732.9475452148365
189,733.0118395999028
190,733.0844572490645
191,733.1655369838707
192,733.2555206075592
193,733.3553296354268
194,733.4662796583556
195,733.5897420669504
196,733.726635186861
197,733.8768805243728
198,734.0389826632063
199,734.2098672144576
200,734.385038460215
201,734.5590237462566
202,734.7259953019201
203,734.8804302152063
204,735.0176885211168
205,735.1344339783242
206,735.2288611942483
207,735.3007173885352
208,735.3511320721084
209,735.3823038150082
210,735.3971249164972
211,735.3988244471966
212,735.3906747430694
213,735.3757663763809
214,735.3568389681267
215,735.336159984099
216,735.31545801807
217,735.2959266266248
218,735.2783079138657
219,735.2630456637985
220,735.2504802084965
221,735.2410443372046
222,735.2354066823623
223,735.2345041750918
224,735.2394266201371
225,735.2511702253697
226,735.2703401431337
227,735.2969135907492
228,735.3301522755048
229,735.3686941601969
230,735.4107996848364
231,735.4546999901484
232,735.4989871174923
233,735.5429770415179
234,735.58696049613
235,735.6322580806179
236,735.6810412723962
237,735.7359580264078
238,735.7996664723853
239,735.8743983357872
240,735.9616416579144
241,736.0619735646169
242,736.1750261319844
243,736.2995547411265
244,736.4335844159797
245,736.574608677205
246,736.7198046419289
247,736.866222891677
248,737.0109191391515
249,737.151014209574
250,737.2836912163403
251,737.4061508856591
252,737.5155432421246
253,737.6088950401165
254,737.6830753730146
255,737.7348666705125
256,737.7611921402693
257,737.7594843184584
258,737.7281054324288
259,737.666701441937
260,737.5764025420867
261,737.4598459678539
262,737.321051627624
263,737.1652021154393
264,736.9983685493576
265,736.8272034511986
266,736.6586072313585
267,736.4993683771679
268,736.3557794439722
269,736.2332423678123
270,736.1358924081567
271,736.066278474488
272,736.0251303671541
273,736.011228077025
274,736.0213841024565
275,736.050564480057
276,736.0921889832168
277,736.1386359000445
278,736.1819242007833
279,736.214484598673
280,736.2299010944669
281,736.2235179223377
282,736.1928425597928
283,736.1377122423885
284,736.0602260862012
285,735.9644777728317
286,735.8561452736042
287,735.7419947718471
288,735.6293391306195
289,735.5254732299213
290,735.437107311467
291,735.3698362849757
292,735.3276957486144
293,735.3128441491368
294,735.3253843856762
295,735.363322467985
296,735.4226622697988
297,735.4976401216757
298,735.581099761792
299,735.664994218152
300,735.740976850207
301,735.8010187421
302,735.8379820543765
303,735.8460949127883
304,735.8212967488258
305,735.7614352631837
306,735.6663017667153
307,735.5375097565219
308,735.3782520449407
309,735.1929883276144
310,734.9871005058228
311,734.766521990024
312,734.5373292328957
313,734.3052994468276
314,734.0754869113532
315,733.8519226152243
316,733.6375504071848
317,733.4344441896267
318,733.2442258501247
319,733.0684984848689
320,732.9090960016133
321,732.7680337341241
322,732.6471692268518
323,732.547684041635
324,732.4695413597109
325,732.4110607134734
326,732.3687062748445
327,732.3371362320336
328,732.3095165634272
329,732.2780591523241
330,732.2347063113324
331,732.1718671255013
332,732.0831230874979
333,731.9638498925602
334,731.8117293159008
335,731.6271343351009
336,731.413359862843
337,731.176657029811
338,730.9260297029797
339,730.6727687328843
340,730.4297270197205
341,730.2103801620271
342,730.0277666776904
343,729.8934323326899
344,729.8164984465433
345,729.8029465354464
346,729.8551802216768
347,729.9718932233314
348,730.148235851536
349,730.376236999513
350,730.6454156904367
351,730.9435118372267
352,731.2572759124098
353,731.57327345993
354,731.878676472253
355,732.1620238705736
356,732.4139291444192
357,732.6276893566163
358,732.799718252011
359,732.9297165533442
360,733.0205242420785
361,733.0776588725023
362,733.108599899786
363,733.1219155147393
364,733.1263445138337
365,733.1299387349065
366,733.1393441499818
367,733.1592699291057
368,733.1921822191689
369,733.2382550622209
370,733.2955915949594
371,733.3606895014376
372,733.4290867372055
373,733.4961031919237
374,733.5575847563188
375,733.6105512500316
376,733.6536587057465
377,733.6874189098712
378,733.7141651174012
379,733.7377902689443
380,733.763297033348
381,733.7961917104328
382,733.8417491059488
383,733.9041946657079
384,733.985891466802
385,734.0866563717133
386,734.2033346439291
387,734.3297309950574
388,734.456942161049
389,734.5740780375568
390,734.6693047973774
391,734.7310978529272
392,734.7495550730793
393,734.717594464669
394,734.6318555470915
395,734.4931521662431
396,734.3063926373469
397,734.079980839483
398,733.8248107509496
399,733.553035514735
400,733.2768172231503
401,733.0072508337752
402,732.7536097297949
403,732.5229810790623
404,732.3202626260514
405,732.1484178935768
406,732.0088643540454
407,731.9018901059575
408,731.8270239533548
409,731.7833035426968
410,731.769411988543
411,731.7837004828496
412,731.8241626330271
413,731.8884382611675
414,731.9738896197539
415,732.0777369042751
416,732.1971973242123
417,732.329564293037
418,732.4721921451121
419,732.6223999262987
420,732.7773486722324
421,732.933961341477
422,733.0889418495491
423,733.2389205105687
424,733.3807194235835
425,733.51169850271
426,733.6301147571841
427,733.7354130981762
428,733.8283740412697
429,733.9110686775714
430,733.986605637101
431,734.0586933149959
432,734.1310774039433
433,734.2069392598899
434,734.2883470295286
435,734.3758377026187
436,734.4681834535444
437,734.5623732389552
438,734.653821392843
439,734.7367864253625
440,734.8049445262133
441,734.8520367268179
442,734.8725171302652
443,734.8621558282329
444,734.8185540377253
445,734.7415040187753
446,734.6331160350516
447,734.4976708562968
448,734.3412149676975
449,734.1709592857547
450,733.9945645586142
451,733.8194054869376
452,733.6519060109865
453,733.4970376423865
454,733.3580655722678
455,733.2365912638771
456,733.1328743469148
457,733.0463533089933
458,732.9762493861168
459,732.9221285258106
460,732.884303236873
461,732.863979859446
462,732.8631026830839
463,732.8839174466609
464,732.9283581140654
465,732.9974146952987
466,733.0906397497956
467,733.2059095321914
468,733.339499309418
469,733.486469705512
470,733.6412908903905
471,733.7985688312248
472,733.9537137710281
473,734.1034246348233
474,734.2459356495843
475,734.3810377621184
476,734.5099151209164
477,734.6348309456624
478,734.7586863793698
479,734.8844824376012
480,735.0147363506053
481,735.1509239314587
482,735.2930331148577
483,735.4393178398478
484,735.5863204942915
485,735.7291782857483
486,735.8621688866709
487,735.9794124586901
488,736.0756319356926
489,736.1468690344788
490,736.1910585724902
491,736.2083835265865
492,736.2013647485112
493,736.1746711555389
494,736.1346621627383
495,736.0887014930679
496,736.04432248399
497,736.0083736120207
498,735.9862968147213
499,735.9816603147987
500,735.9959916979619
501,736.0288812679826
502,736.0782873682997
503,736.1409726349782
504,736.2130083818472
505,736.2902893855951
506,736.3690041737143
507,736.4460093124599
508,736.5190651447051
509,736.5869130552213
510,736.6492114049423
511,736.7063860422016
512,736.75946836382
513,736.8099714621738
514,736.8598057027599
515,736.9111956514466
516,736.9665513298802
517,737.0282605803185
518,737.0983936554122
519,737.1783409826121
520,737.2684342820934
521,737.3676228106187
522,737.4732884714084
523,737.5812832736838
524,737.6862487561842
525,737.7822182911301
526,737.8634197213221
527,737.9251242097861
528,737.9643661155606
529,737.9803973096191
530,737.9748136445987
531,737.9513677109062
532,737.9155360986238
533,737.8739287009925
534,737.8336165035162
535,737.8014382000615
536,737.7833502689821
537,737.7839028751815
538,737.8059223346318
539,737.8504433851061
540,737.9168762331036
541,738.003337206789
542,738.1070352590658
543,738.2246063794804
544,738.3523304167469
545,738.4862291038708
546,738.6220930755056
547,738.7554968676392
548,738.8818432475413
549,738.9964588989264
550,739.0947599192641
551,739.1725095199455
552,739.2261778400184
553,739.2533739969131
554,739.2532734368295
555,739.2269420967226
556,739.1774745649155
557,739.1099017002637
558,739.0308668103565
559,738.9481104828495
560,738.8698338715886
561,738.804019509637
562,738.7577816654089
563,738.7368100160925
564,738.744967472212
565,738.784093926679
566,738.8540372251595
567,738.9528842967776
568,739.0773247449956
569,739.2230681990727
570,739.3852507968096
571,739.5587844729506
572,739.7386138490577
573,739.9198581243785
574,740.0978455491019
575,740.2680929441767
576,740.4263129627003
577,740.5685217025682
578,740.6912736340716
579,740.7919930416685
580,740.8693229646445
581,740.9233904567411
582,740.9558987644368
583,740.9699955253718
584,740.9699158462032
585,740.9604469683671
586,740.946296121003
587,740.9314578202249
588,740.9186749450485
589,740.9090794149669
590,740.9020851711521
591,740.8955778869336
592,740.8863916854998
593,740.8709905426269
594,740.8462108709716
595,740.8099035818686
596,740.7613466589345
597,740.701366048021
598,740.632177703613
599,740.5570233121966
600,740.4797009733473
601,740.404087404868
602,740.3337195864704
603,740.2714685549032
604,740.2193152781457
605,740.1782359855646
606,740.1482105762793
607,740.1283622809048
608,740.1172088488441
609,740.1129656003408
610,740.1138174923848
611,740.1180947324399
612,740.124335004833
613,740.1312591274982
614,740.1377032826249
615,740.1425461823558
616,740.144654721167
617,740.14284919147
618,740.1358673866733
619,740.1223035903828
620,740.1005207855407
621,740.0685673179715
622,740.0241479667932
623,739.9646928298897
624,739.8875462747725
625,739.7902784211113
626,739.6711041819426
627,739.5293648394475
628,739.3659776667859
629,739.183717929695
630,738.9872101206504
631,738.7825804340524
632,738.576818962979
633,738.376972913315
634,738.1893237691295
635,738.0186923095611
636,737.8679784023128
637,737.7379958685907
638,737.6276111370236
639,737.5341367710438
640,737.4538835663234
641,737.3827562603069
642,737.316783439016
643,737.2524917497065
644,737.1870733311838
645,737.1183538187765
646,737.044623665756
647,736.9644253670227
648,736.8763918370745
649,736.779211169186
650,736.6717505403676
651,736.5533189371258
652,736.4240087598689
653,736.2850402140357
654,736.1390303204633
655,735.9901149393312
656,735.843871118926
657,735.7070171891538
658,735.5869031480576
659,735.4908398027305
660,735.4253484929194
661,735.3954404728544
662,735.4040493043871
663,735.4517245371537
664,735.5366357402285
665,735.6548480421251
666,735.8007621842373
667,735.9676033040049
668,736.1478864845234
669,736.3338408145398
670,736.5177981462845
671,736.6925425687997
672,736.8515975653631
673,736.989423307314
674,737.1015046193069
675,737.1843195680447
676,737.2351912417628
677,737.2520491304449
678,737.2331571454016
679,737.1768855709898
680,737.0816000354102
681,736.9457138342257
682,736.7679139380423
683,736.5475338918336
684,736.2850112187988
685,735.9823443681253
686,735.6434672202062
687,735.2744816336309
688,734.8837144597743
689,734.4815857686438
690,734.0802836992077
691,733.6932374015787
692,733.3343788426342
693,733.0172058895588
694,732.7537018961339
695,732.5532149909521
696,732.4214403670964
697,732.3596723124997
698,732.3644875524174
699,732.4279718838923
700,732.5385004029389
701,732.6819491369617
702,732.8431075473181
703,733.007033951796
704,733.1601623877103
705,733.2910853715761
706,733.3910354863444
707,733.4541312213096
708,733.477446553884
709,733.4609390843688
710,733.407252251871
711,733.3214020237672
712,733.2103608920157
713,733.0825505908412
714,732.9472496865576
715,732.8139251532428
716,732.69151694362
717,732.5877352784086
718,732.508452611956
719,732.4572690948745
720,732.4353055625384
721,732.4412508973322
722,732.4716684267994
723,732.5215341747934
724,732.5849272859853
725,732.6557385394705
726,732.7282463647463
727,732.7974583198164
728,732.8592130940671
729,732.9101245390028
730,732.9474718702163
731,732.9691037400336
732,732.9733785781204
733,732.9591443869849
734,732.9257590496287
735,732.8731452606012
736,732.8018612575771
737,732.7131601901197
738,732.6090088790411
739,732.4920382560734
740,732.36540863628
741,732.2325998420728
742,732.097168937531
743,731.9625319118261
744,731.8318048121519
745,731.7076986566973
746,731.5924355375207
747,731.4876611008192
748,731.3943548651799
749,731.3127560438699
750,731.2423244524472
751,731.1817567025521
752,731.1290768840298
753,731.0818065364804
754,731.0371942341081
755,730.992471932643
756,730.9451142611048
757,730.8930894903077
758,730.8350817817283
759,730.7706398990257
760,730.7002014707499
761,730.6249724305924
762,730.5466906615476
763,730.4673379502736
764,730.388866805423
765,730.3129855666558
766,730.2410146261149
767,730.1738024129031
768,730.1116830461447
769,730.0544719358613
770,730.0015150652474
771,729.9518103223696
772,729.904202436274
773,729.8576274922635
774,729.8113576146732
775,729.7651830401247
776,729.7194797171578
777,729.6751424915765
778,729.6334009003734
779,729.5955654661548
780,729.5627719006135
781,729.5357920439099
782,729.5149620218132
783,729.5002476314794
784,729.4914306855572
785,729.4883606566078
786,729.4911844187533
787,729.5004633160244
788,729.5171223921836
789,729.5422394336066
790,729.5767444169325
791,729.6211368062641
792,729.6753213414786
793,729.7386137608897
794,729.8099046420423
795,729.887926271147
796,729.9715514090668
797,730.0600506702727
798,730.1532436139439
799,730.251504684129
800,730.3556242780294
801,730.4665613251567
802,730.5851454839013
803,730.7117890952575
804,730.8462495855144
805,730.9874552313233
806,731.1333961686446
807,731.2810958713478
808,731.4266964033712
809,731.5656928750483
810,731.693332976039
811,731.8051566527204
812,731.8975994545498
813,731.9685505578211
814,732.0177644101941
815,732.0470572707779
816,732.0602497198024
817,732.062841388467
818,732.0614332703929
819,732.0629437675549
820,732.0736963576242
821,732.0984953409031
822,732.1398410655137
823,732.1974384275328
824,732.268110031827
825,732.3461581248763
826,732.424148018887
827,732.494009399525
828,732.5482758324582
829,732.5812405898477
830,732.5898274862382
831,732.5740472066907
832,732.5369964793822
833,732.4844309774951
834,732.4239932700818
835,732.3642094478831
836,732.3133891844121
837,732.2785723789029
838,732.2646578814511
839,732.2738273058826
840,732.3053381790402
841,732.3557051710261
842,732.4192287508174
843,732.4887863347541
844,732.5567781984894
845,732.6161076259697
846,732.6610582427536
847,732.6879232875225
848,732.6952804994725
849,732.683905436454
850,732.6564229328034
851,732.616839409408
852,732.5700654454205
853,732.5214793615305
854,732.4765452883747
855,732.4404820377849
856,732.4179613775335
857,732.4128016629805
858,732.4276396310651
859,732.4636099887523
860,732.520106079585
861,732.5947022625211
862,732.6832855072151
863,732.7803900606162
864,732.8796775701435
865,732.9744716610456
866,733.0582522320211
867,733.1250437078952
868,733.1696801722974
869,733.1879762208075
870,733.1768580376231
871,733.1345086410606
872,733.0605589201979
873,732.9563205565829
874,732.8250162154283
875,732.6719309311948
876,732.5044048393067
877,732.3316102219759
878,732.1640859871675
879,732.0130368884394
880,731.8894543324193
881,731.8031689790912
882,731.7619704777121
883,731.7709141198312
884,731.8318962111216
885,731.9435414268086
886,732.1014075515478
887,732.2984644396773
888,732.5257507987451
889,732.7730854668101
890,733.0297316186454
891,733.2849663634582
892,733.5285549930383
893,733.7511453374838
894,733.9445901434773
895,734.1021965461193
896,734.2189105313776
897,734.2914671770452
898,734.3185436108994
899,734.3009188051931
900,734.2415944988873
901,734.1458045962063
902,734.0208456034812
903,733.875681379027
904,733.7203064901707
905,733.5649036142569
906,733.418895601197
907,733.2900388578707
908,733.1837018562134
909,733.1024262256033
910,733.0458113190002
911,733.0107237857891
912,732.9918110488184
913,732.9822713266758
914,732.9747914834855
915,732.9625226296632
916,732.9399477000933
917,732.9035143217003
918,732.8519505893304
