frame_number,force
0,728.1855500071728
1,728.23591155979
2,728.2861131111255
3,728.3359958049393
4,728.3854030613385
5,728.4341816816831
6,728.4821829159337
7,728.5292634828767
8,728.5752865354352
9,728.6201225652633
10,728.6636502426348
11,728.7057571887367
12,728.7463406776673
13,728.7853082651583
14,728.8225783409888
15,728.8580806025274
16,728.8917564473786
17,728.9235592832491
18,728.953454752859
19,728.9814208711638
20,729.0074480713721
21,729.0315391556544
22,729.0537091468414
23,729.0739850391252
24,729.092405448125
25,729.1090201626369
26,729.1238896017322
27,729.137084182251
28,729.1486836036461
29,729.158776059134
30,729.16745738355
31,729.1748301491606
32,729.1810027211752
33,729.1860882845716
34,729.1902038527286
35,729.1934692665621
36,729.196006191373
37,729.1979371181594
38,729.1993843766469
39,729.2004691680639
40,729.2013106259324
41,729.2020249125943
42,729.2027243584942
43,729.2035166511049
44,729.2045040806923
45,729.2057828499557
46,729.2074424533872
47,729.2095651301726
48,729.2122253923062
49,729.2154896281277
50,729.219415781178
51,729.2240531050098
52,729.2294419953882
53,729.235613901099
54,729.2425913132234
55,729.2503878312423
56,729.2590083034776
57,729.2684490389095
58,729.2786980867055
59,729.2897355788409
60,729.3015341303923
61,729.3140592916855
62,729.3272700463498
63,729.3411193493038
64,729.3555546987548
65,729.3705187365596
66,729.3859498719212
67,729.4017829243188
68,729.4179497823291
69,729.4343800751833
70,729.4510018536699
71,729.4677422768759
72,729.484528301483
73,729.5012873705315
74,729.5179480983643
75,729.5344409479839
76,729.5506988966615
77,729.5666580854216
78,729.5822584475782
79,729.5974443104751
80,729.6121649631623
81,729.6263751813921
82,729.6400357004801
83,729.6531136265033
84,729.6655827770797
85,729.67742394428
86,729.688625073668
87,729.699181355015
88,729.7090952221401
89,729.7183762616324
90,729.7270410323318
91,729.735112798704
92,729.742621181588
93,729.7496017298719
94,729.7560954171473
95,729.7621480686958
96,729.7678097262879
97,729.7731339607949
98,729.7781771448787
99,729.7829976996695
100,729.7876553302125
101,729.7922102645352
102,729.7967225105057
103,729.8012511433018
104,729.8058536343998
105,729.8105852306459
106,729.8154983895016
107,729.8206422745611
108,729.826062314482
109,729.8317998284278
110,729.8378917211031
111,729.8443702498598
112,729.8512628651954
113,729.8585921245514
114,729.8663756779881
115,729.8746263233758
116,729.8833521282457
117,729.8925566150544
118,729.9022390061475
119,729.9123945242443
120,729.9230147436454
121,729.9340879862028
122,729.9455997543797
123,729.9575331921279
124,729.9698695635324
125,729.9825887393868
126,729.995669682768
127,730.0090909257892
128,730.0228310306518
129,730.0368690288843
130,730.051184833581
131,730.0657596210086
132,730.0805761801939
133,730.0956192314419
134,730.1108757162356
135,730.1263350611699
136,730.141989417904
137,730.157833880385
138,730.173866680033
139,730.1900893586213
140,730.2065069168267
141,730.2231279344037
142,730.2399646567889
143,730.2570330433405
144,730.274352774058
145,730.2919472134962
146,730.3098433318982
147,730.3280715842224
148,730.3466657480303
149,730.3656627213511
150,730.385102281785
151,730.4050268085266
152,730.4254809698112
153,730.4465113791894
154,730.4681662244597
155,730.4904948728393
156,730.5135474554867
157,730.5373744345698
158,730.5620261570158
159,730.5875524004858
160,730.6140019183255
161,730.6414219908867
162,730.66985799073
163,730.699352969056
164,730.7299472705324
165,730.761678183623
166,730.7945796334304
167,730.828681923322
168,730.8640115297385
169,730.900590951716
170,730.9384386133809
171,730.977568814658
172,731.0179917232969
173,731.0597134004355
174,731.102735852149
175,731.1470571002261
176,731.1926712662898
177,731.2395686640772
178,731.2877358951536
179,731.3371559436326
180,731.3878082658038
181,731.4396688710464
182,731.4927103910608
183,731.5469021353605
184,731.6022101322131
185,731.6585971555592
186,731.7160227395613
187,731.7744431832642
188,731.8338115485183
189,731.8940776548699
190,731.9551880754564
191,732.0170861379856
192,732.0797119346602
193,732.1430023445301
194,732.2068910713356
195,732.2713086993954
196,732.3361827695876
197,732.4014378770584
198,732.4669957920444
199,732.5327756048977
200,732.5986938959521
201,732.6646649304247
202,732.7306008782499
203,732.7964120583993
204,732.8620072064749
205,732.9272937631365
206,732.9921781795744
207,733.056566235263
208,733.1203633630247
209,733.1834749771679
210,733.245806801984
211,733.307265199687
212,733.3677574983358
213,733.4271923209745
214,733.4854799171263
215,733.5425324973836
216,733.5982645716743
217,733.6525932917297
218,733.7054387977377
219,733.7567245677458
220,733.806377766315
221,733.8543295868529
222,733.900515580613
223,733.9448759648435
224,733.9873559029714
225,734.0279057509863
226,734.0664812661611
227,734.1030437763819
228,734.1375603100316
229,734.1700036874229
230,734.2003525754477
231,734.2285915076102
232,734.254710871947
233,734.2787068694447
234,734.3005814454302
235,734.3203421959627
236,734.3380022504123
237,734.3535801302318
238,734.3670995825296
239,734.3785893858023
240,734.3880831247008
241,734.3956189313326
242,734.4012391920223
243,734.4049902200152
244,734.4069218958773
245,734.4070872783191
246,734.4055421893478
247,734.4023447793334
248,734.397555079276
249,734.3912345485446
250,734.383445626246
251,734.3742512932956
252,734.3637146505821
253,734.351898516915
254,734.338865049027
255,734.3246753846452
256,734.3093893086833
257,734.293064942547
258,734.2757584575098
259,734.2575238144132
260,734.2384125327012
261,734.2184734919102
262,734.1977527684799
263,734.1762935103561
264,734.1541358513081
265,734.1313168663357
266,734.1078705692407
267,734.0838279531338
268,734.0592170735748
269,734.0340631719503
270,734.008388834789
271,733.9822141843969
272,733.9555570972236
273,733.9284334472068
274,733.9008573709908
275,733.8728415507865
276,733.844397509613
277,733.8155359132084
278,733.7862668729977
279,733.7566002451717
280,733.7265459221331
281,733.6961141140785
282,733.6653156197756
283,733.6341620862189
284,733.6026662566527
285,733.5708422056944
286,733.5387055595389
287,733.5062736990299
288,733.4735659436974
289,733.4406037151717
290,733.4074106784896
291,733.3740128600791
292,733.3404387418169
293,733.3067193312626
294,733.2728882087642
295,733.238981552491
296,733.2050381424813
297,733.1710993445062
298,733.1372090741527
299,733.1034137410858
300,733.0697621728418
301,733.0363055167269
302,733.0030971176808
303,732.9701923695854
304,732.9376485377077
305,732.9055245510363
306,732.8738807648967
307,732.8427786956278
308,732.8122807298814
309,732.7824498115383
310,732.7533491095833
311,732.7250416707591
312,732.697590061646
313,732.6710560058534
314,732.6455000225831
315,732.6209810723913
316,732.597556214601
317,732.5752802788434
318,732.5542055508191
319,732.5343814698239
320,732.5158543336426
321,732.4986670058557
322,732.4828586213848
323,732.468464287757
324,732.4555147818664
325,732.4440362448996
326,732.434049880941
327,732.4255716664472
328,732.4186120777249
329,732.4131758424496
330,732.4092617201812
331,732.4068623161113
332,732.4059639317109
333,732.4065464555007
334,732.4085832971842
335,732.4120413690146
336,732.4168811192835
337,732.423056623827
338,732.4305157419416
339,732.4392003426356
340,732.4490466056048
341,732.4599853988708
342,732.4719427317898
343,732.4848402785889
344,732.4985959645478
345,732.5131246050265
346,732.5283385863822
347,732.5441485766164
348,732.560464252013
349,732.5771950246248
350,732.5942507550542
351,732.6115424358611
352,732.6289828328719
353,732.6464870744567
354,732.6639731825773
355,732.6813625439446
356,732.6985803239531
357,732.7155558287187
358,732.732222820873
359,732.7485197936797
360,732.7643902071861
361,732.7797826902182
362,732.7946512122386
363,732.8089552282811
364,732.8226597984841
365,732.8357356822114
366,732.8481594059912
367,732.8599133041745
368,732.8709855308811
369,732.8813700416941
370,732.8910665441006
371,732.900080416555
372,732.9084225963752
373,732.9161094359429
374,732.9231625252963
375,732.9296084778885
376,732.9354786755698
377,732.940808968997
378,732.9456393307935
379,732.9500134607745
380,732.9539783449226
381,732.9575837719607
382,732.9608818129961
383,732.9639262707727
384,732.9667721056325
385,732.969474845522
386,732.9720899876093
387,732.9746723995102
388,732.9772757284474
389,732.9799518263366
390,732.982750197787
391,732.9857174767443
392,732.9888969363358
393,732.9923280356045
394,732.9960460064176
395,733.0000814837284
396,733.0044601820591
397,733.0092026204535
398,733.0143238976351
399,733.0198335189692
400,733.0257352769191
401,733.0320271869261
402,733.0387014811608
403,733.0457446632169
404,733.053137626994
405,733.0608558423869
406,733.0688696091803
407,733.077144379209
408,733.0856411456544
409,733.0943168973648
410,733.1031251349824
411,733.112016443886
412,733.1209391163374
413,733.1298398124873
414,733.1386642481867
415,733.1473578973553
416,733.1558666973765
417,733.1641377466598
418,733.1721199837693
419,733.1797648377527
420,733.1870268399864
421,733.1938641891204
422,733.2002392623289
423,733.2061190675479
424,733.2114756322561
425,733.2162863248587
426,733.2205341056839
427,733.2242077063174
428,733.2273017378224
429,733.2298167294592
430,733.2317590998236
431,733.2331410625042
432,733.2339804689749
433,733.2343005923863
434,733.2341298567659
435,733.233501516559
436,733.2324532914769
437,733.2310269616103
438,733.2292679281917
439,733.2272247464616
440,733.2249486384129
441,733.2224929939574
442,733.2199128690576
443,733.2172644891127
444,733.21460476586
445,733.2119908361482
446,733.2094796308278
447,733.2071274815411
448,733.2049897723715
449,733.203120641924
450,733.2015727391414
451,733.2003970331585
452,733.1996426744719
453,733.1993569023816
454,733.1995849921121
455,733.2003702337803
456,733.2017539341596
457,733.2037754312597
458,733.2064721116786
459,733.2098794218819
460,733.2140308669143
461,733.2189579928689
462,733.224690351837
463,733.2312554496601
464,733.2386786778683
465,733.2469832321616
466,733.2561900207843
467,733.2663175667826
468,733.2773819078262
469,733.2893964957549
470,733.3023720959005
471,733.316316684691
472,733.3312353437793
473,733.3471301496763
474,733.3640000588654
475,733.3818407891795
476,733.4006446986756
477,733.4204006634797
478,733.4410939563867
479,733.4627061285923
480,733.4852148977011
481,733.5085940458159
482,733.5328133320409
483,733.5578384241346
484,733.5836308542096
485,733.6101480030784
486,733.6373431172184
487,733.665165361809
488,733.6935599133722
489,733.7224680960537
490,733.7518275656279
491,733.7815725438938
492,733.8116341031324
493,733.841940496679
494,733.8724175286897
495,733.9029889543536
496,733.9335769009325
497,733.9641023000048
498,733.9944853223515
499,734.0246458087875
500,734.0545036920915
501,734.0839794063694
502,734.1129942808308
503,734.1414709155539
504,734.1693335376402
505,734.1965083371696
506,734.2229237833261
507,734.2485109218652
508,734.2732036557255
509,734.2969390109199
510,734.3196573896428
511,734.3413028118895
512,734.361823146335
513,734.3811703313597
514,734.399300588046
515,734.4161746279751
516,734.4317578585386
517,734.4460205866446
518,734.4589382188802
519,734.4704914536927
520,734.4806664595279
521,734.4894550318363
522,734.4968547213018
523,734.5028689258339
524,734.5075069398425
525,734.510783955492
526,734.5127210115127
527,734.5133448859671
528,734.5126879307385
529,734.5107878475354
530,734.5076874073526
531,734.5034341170108
532,734.4980798372573
533,734.4916803568498
534,734.4842949263735
535,734.4759857549358
536,734.4668174729019
537,734.4568565644206
538,734.4461707742053
539,734.4348284934674
540,734.4228981301734
541,734.4104474694889
542,734.3975430315824
543,734.384249435164
544,734.3706287754213
545,734.3567400244266
546,734.3426384613437
547,734.328375139452
548,734.3139963971471
549,734.2995434203398
550,734.2850518636151
551,734.2705515369455
552,734.2560661637762
553,734.24161321516
554,734.2272038235445
555,734.2128427788364
556,734.1985286083014
557,734.1842537405148
558,734.1700047518802
559,734.1557626920005
560,734.1415034813078
561,734.1271983714906
562,734.1128144573075
563,734.0983152277848
564,734.0836611452457
565,734.0688102415238
566,734.0537187215948
567,734.0383415656688
568,734.0226331218159
569,734.0065476829002
570,733.9900400440724
571,733.9730660398702
572,733.9555830623096
573,733.9375505627604
574,733.9189305407458
575,733.8996880220019
576,733.8797915261327
577,733.8592135214988
578,733.8379308624089
579,733.815925202036
580,733.7931833741337
581,733.7696977372824
582,733.7454664762794
583,733.7204938559784
584,733.694790423584
585,733.6683731563561
586,733.641265552498
587,733.613497663042
588,733.5851060618751
589,733.5561337504976
590,733.5266299943212
591,733.4966500883272
592,733.4662550515822
593,733.4355112522364
594,733.4044899668348
595,733.3732668796143
596,733.3419215289078
597,733.3105367090759
598,733.2791978376265
599,733.2479922980118
600,733.2170087688077
601,733.1863365498376
602,733.1560648954862
603,733.1262823648559
604,733.0970761974602
605,733.068531721852
606,733.0407318029291
607,733.0137563314912
608,732.987681757035
609,732.9625806622698
610,732.9385213761708
611,732.9155676220909
612,732.8937781984666
613,732.8732066913788
614,732.8539012196931
615,732.8359042138451
616,732.819252228455
617,732.8039757876928
618,732.790099261617
619,732.7776407719035
620,732.766612126377
621,732.7570187832823
622,732.7488598477646
623,732.7421281039167
624,732.7368100858931
625,732.7328861914438
626,732.730330841168
627,732.7291126867988
628,732.7291948715401
629,732.7305353445306
630,732.7330872298548
631,732.7367992484516
632,732.7416161890012
633,732.7474794214003
634,732.7543274438103
635,732.7620964522353
636,732.7707209212194
637,732.7801341859175
638,732.7902690183109
639,732.8010581921096
640,732.8124350313099
641,732.8243339373073
642,732.836690889956
643,732.8494439190945
644,732.862533543873
645,732.8759031769183
646,732.8894994893312
647,732.9032727317084
648,732.9171770063359
649,732.9311704862406
650,732.9452155776447
651,732.9592790236214
652,732.9733319484701
653,732.9873498442389
654,733.0013125025092
655,733.0152038958664
656,733.0290120143685
657,733.0427286626283
658,733.0563492228766
659,733.0698723890692
660,733.0832998773215
661,733.0966361186609
662,733.109887940573
663,733.1230642434301
664,733.1361756768273
665,733.1492343198593
666,733.1622533687776
667,733.1752468348809
668,733.1882292546961
669,733.2012154138785
670,733.2142200862918
671,733.2272577904665
672,733.2403425664935
673,733.2534877765436
674,733.2667059312798
675,733.2800085429185
676,733.2934060044017
677,733.3069074935481
678,733.3205209012307
679,733.3342527834197
680,733.3481083379074
681,733.3620914073546
682,733.3762045106799
683,733.3904489045368
684,733.4048246756623
685,733.4193308636659
686,733.433965612638
687,733.4487263486363
688,733.4636099783273
689,733.4786131020542
690,733.4937322332219
691,733.5089640158259
692,733.5243054329649
693,733.5397540002954
694,733.5553079389549
695,733.5709663224383
696,733.5867291914643
697,733.6025976304926
698,733.6185738000064
699,733.6346609206038
700,733.6508632081063
701,733.6671857619739
702,733.6836344109269
703,733.7002155198123
704,733.7169357615263
705,733.733801858042
706,733.75082029523
707,733.767997016936
708,733.785337104761
709,733.8028444511358
710,733.8205214341021
711,733.8383686021665
712,733.8563843768158
713,733.8745647795743
714,733.8929031903488
715,733.9113901439255
716,733.9300131713492
717,733.9487566925578
718,733.9676019662124
719,733.9865271017759
720,734.0055071368866
721,734.0245141799624
722,734.0435176146281
723,734.0624843599345
724,734.0813791786542
725,734.1001650250907
726,734.1188034238119
727,734.1372548713811
728,734.1554792538565
729,734.1734362729146
730,734.1910858731625
731,734.2083886632201
732,734.2253063237306
733,734.2418019963509
734,734.2578406488668
735,734.2733894128936
736,734.2884178920964
737,734.3028984403551
738,734.3168064105778
739,734.3301203756497
740,734.342822323057
741,734.3548978240015
742,734.3663361765653
743,734.3771305211656
744,734.3872779254198
745,734.3967794346025
746,734.4056400832704
747,734.4138688638216
748,734.4214786489322
749,734.4284860665413
750,734.4349113276521
751,734.4407780082807
752,734.4461127873687
753,734.4509451426463
754,734.4553070065982
755,734.4592323848942
756,734.4627569396729
757,734.4659175399682
758,734.4687517819591
759,734.4712974831369
760,734.4735921566388
761,734.4756724739497
762,734.4775737253204
763,734.4793292877755
764,734.4809701110797
765,734.4825242326817
766,734.4840163331174
767,734.4854673431438
768,734.4868941124839
769,734.4883091474155
770,734.489720421091
771,734.4911312572259
772,734.4925402852444
773,734.4939414635868
774,734.4953241676523
775,734.4966733390831
776,734.4979696929773
777,734.4991899789379
778,734.5003072910645
779,734.5012914215959
780,734.5021092528826
781,734.502725182321
782,734.5031015747398
783,734.5031992366962
784,734.5029779072075
785,734.5023967593157
786,734.5014149062599
787,734.4999919051285
788,734.4980882503
789,734.4956658491841
790,734.4926884736266
791,734.489122181664
792,734.4849357059081
793,734.4801008062319
794,734.4745925849583
795,734.4683897623623
796,734.4614749097152
797,734.4538346372724
798,734.4454597359884
799,734.436345273832
800,734.4264906493495
801,734.4158996057748
802,734.4045802086481
803,734.3925447893172
804,734.3798098562767
805,734.3663959758799
806,734.3523276233921
807,734.3376330049364
808,734.3223438509956
809,734.3064951827366
810,734.2901250532392
811,734.273274266522
812,734.2559860777639
813,734.2383058778291
814,734.2202808640748
815,734.2019596981847
816,734.18339215144
817,734.1646287387999
818,734.1457203449389
819,734.126717847086
820,734.1076717407354
821,734.0886317750258
822,734.0696466046506
823,734.0507634642939
824,734.032027869956
825,734.0134833496085
826,733.9951712035914
827,733.9771302933427
828,733.9593968559965
829,733.9420043424201
830,733.9249832770818
831,733.9083611390656
832,733.8921622639052
833,733.8764077655427
834,733.8611154772839
835,733.8462999108968
836,733.8319722340186
837,733.8181402671255
838,733.8048085017546
839,733.7919781412322
840,733.7796471643337
841,733.767810411748
842,733.7564596952662
843,733.7455839300269
844,733.7351692905924
845,733.7251993919796
846,733.7156554970489
847,733.7065167517021
848,733.6977604487885
849,733.6893623204675
850,733.6812968576774
851,733.6735376549651
852,733.66605777898
853,733.6588301585433
854,733.6518279927603
855,733.6450251713264
856,733.6383966987225
857,733.6319191121651
858,733.6255708824116
859,733.619332786779
860,733.6131882447612
861,733.6071236083588
862,733.6011284017111
863,733.5951955075745
864,733.5893213006505
865,733.5835057288009
866,733.5777523430108
867,733.5720682766981
868,733.5664641753594
869,733.5609540783165
870,733.5555552550868
871,733.5502879996185
872,733.5451753861918
873,733.5402429907411
874,733.5355185805691
875,733.5310317744818
876,733.5268136749908
877,733.5228964745994
878,733.5193130390201
879,733.5160964711205
880,733.5132796603045
881,733.5108948229529
882,733.5089730405804
883,733.5075438034551
884,733.5066345683313
885,733.5062703394209
886,733.5064732817361
887,733.5072623756229
888,733.5086531205557
889,733.5106572947784
890,733.5132827752986
891,733.5165334209354
892,733.5204090201776
893,733.5249053051348
894,733.5300140320134
895,733.5357231270498
896,733.5420168951475
897,733.5488762870855
898,733.5562792200283
899,733.5642009447799
900,733.5726144516987
901,733.5814909057651
902,733.5908001001909
903,733.6005109170516
904,733.6105917829518
905,733.6210111085252
906,733.6317377031498
907,733.6427411597838
908,733.6539922077773
909,733.6654630330803
910,733.6771275656026
911,733.6889617332603
912,733.7009436819274
913,733.7130539601179
914,733.7252756666843
915,733.7375945593483
916,733.7499991218658
917,733.762480588303
