frame_number,force
0,646.9834600000332
1,646.8211415359995
2,646.6651134251096
3,646.5211789380816
4,646.3942071693365
5,646.2877813202327
6,646.2040041941527
7,646.1434974612363
8,646.1055794651483
9,646.0885610764242
10,646.0900902207428
11,646.1074977898779
12,646.1381195073928
13,646.179574380431
14,646.2299813977103
15,646.2881009822812
16,646.3533899024517
17,646.4259530899706
18,646.5063745088372
19,646.5954289026763
20,646.6937153140967
21,646.8012873700814
22,646.9173620714856
23,647.0401678446854
24,647.1669612767055
25,647.2942185735611
26,647.4179933668045
27,647.5344076296471
28,647.6401960831985
29,647.7331816131737
30,647.8125596198596
31,647.8789231126839
32,647.9340405590863
33,647.9804660308032
34,648.0210884992571
35,648.0587103586984
36,648.0957062580683
37,648.1337828799499
38,648.1738503109729
39,648.2160097599232
40,648.2596400364847
41,648.3035325687489
42,648.3460116687158
43,648.3850015545133
44,648.4180503247705
45,648.4423639659581
46,648.4549179449117
47,648.4526895960438
48,648.4329988331534
49,648.3938907951051
50,648.3344785994619
51,648.2551896588534
52,648.157894720745
53,648.0459192237691
54,647.9239377424838
55,647.7977445189994
56,647.673894057524
57,647.5592278854472
58,647.4603388628591
59,647.3830511556827
60,647.3319963643448
61,647.3103431651368
62,647.3196998642153
63,647.3601710689086
64,647.4305237863464
65,647.5284133379814
66,647.6506335107823
67,647.7933716956991
68,647.952454256081
69,648.1235668402941
70,648.3024426652282
71,648.4850248432926
72,648.6676112637253
73,648.8469793375517
74,649.0204754134153
75,649.1860543303312
76,649.342271620466
77,649.4882505498545
78,649.6236495613947
79,649.7486371994132
80,649.8638532089241
81,649.9703156687116
82,650.0692369034828
83,650.1617345041533
84,650.2484614564409
85,650.3292204674817
86,650.4026525844591
87,650.4660835487349
88,650.515579273039
89,650.5462232575064
90,650.5525930634834
91,650.5293798701427
92,650.4720673643479
93,650.377569147242
94,650.2447220947497
95,650.0745538978402
96,649.8702890242084
97,649.6371131638475
98,649.3817557758751
99,649.111960024436
100,648.8358969503076
101,648.561565196849
102,648.2962145884225
103,648.0458414752316
104,647.8148100016721
105,647.6056422507078
106,647.4189947201476
107,647.2538105946737
108,647.1076133438312
109,646.9768884304021
110,646.8574880865353
111,646.7449956821341
112,646.6350091964002
113,646.5233437918165
114,646.406189758318
115,646.2802735218137
116,646.1430561449291
117,645.9929769120829
118,645.829715676861
119,645.6544169733056
120,645.4698082477206
121,645.2801562362419
122,645.0910286751339
123,644.9088660689978
124,644.7404258391153
125,644.5922109018846
126,644.4699941473802
127,644.3784993875644
128,644.3212400782685
129,644.3004799704161
130,644.3172644145837
131,644.3714721955506
132,644.4618585297846
133,644.5860957656356
134,644.7408488558382
135,644.9219276386463
136,645.1245363596296
137,645.3436063511529
138,645.5741624066782
139,645.8116485670054
140,646.0521440420503
141,646.2924442584201
142,646.5300395999991
143,646.7630507295885
144,646.9901578225011
145,647.2105191156561
146,647.4236521482741
147,647.629262072277
148,647.827026794937
149,648.016368928892
150,648.1962586070825
151,648.365100935082
152,648.520759636975
153,648.6607498469159
154,648.7825988185724
155,648.8843224407486
156,648.9649103394362
157,649.024687942903
158,649.0654534886255
159,649.0903526870727
160,649.1035161993242
161,649.1095301234216
162,649.1128423457377
163,649.1172225062492
164,649.1253737447079
165,649.1387425816581
166,649.1575185155524
167,649.1807836441633
168,649.206765451582
169,649.233149536725
170,649.2574153531556
171,649.2771635111342
172,649.2904027667754
173,649.2957579974757
174,649.2925609515922
175,649.2808095933901
176,649.2610207074276
177,649.23402526186
178,649.2007572854745
179,649.1620793268867
180,649.1186754577353
181,649.0710187664001
182,649.0193908092645
183,648.9639105680528
184,648.9045272207762
185,648.8409513804392
186,648.7725454364872
187,648.6982393834098
188,648.6165454499685
189,648.5257058061355
190,648.4239519978199
191,648.309815310595
192,648.1824184073503
193,648.0416944093353
194,647.8885007888675
195,647.724607129483
196,647.5525427666532
197,647.3753087197865
198,647.1959923376869
199,647.0173569713284
200,646.8414952593436
201,646.6696277786926
202,646.5020964497713
203,646.3385456774279
204,646.1782252651346
205,646.0203178298812
206,645.8642011392484
207,645.7095956894294
208,645.55660434011
209,645.405694355176
210,645.2576714855156
211,645.1136531487389
212,644.97500670442
213,644.843219807228
214,644.7197067931795
215,644.6055907856761
216,644.5015156857161
217,644.4075407110564
218,644.3231528992387
219,644.2473912382457
220,644.1790235873709
221,644.1166977231841
222,644.059027047589
223,644.0046366536881
224,643.952225462222
225,643.9006758465752
226,643.8491989363803
227,643.7974783360443
228,643.7457687228858
229,643.6949057462167
230,643.6461923096945
231,643.6011539422933
232,643.5611993343165
233,643.5272634265473
234,643.4995274708409
235,643.4772890284441
236,643.4590044952129
237,643.4424783788807
238,643.4251499762394
239,643.4044249273683
240,643.3780018685962
241,643.3441496495029
242,643.301902820154
243,643.2511644183957
244,643.1927296380414
245,643.128255605487
246,643.060190358558
247,642.9916524736517
248,642.926245606087
249,642.8678032160194
250,642.8200761716879
251,642.7863935812175
252,642.769343498966
253,642.7705281461888
254,642.7904390206413
255,642.828469990063
256,642.883051884534
257,642.951866518109
258,643.0320952650302
259,643.1206785322275
260,643.2145889663856
261,643.3111262589151
262,643.4082152749739
263,643.5046504891501
264,643.6002120344389
265,643.6956015510402
266,643.7921975841897
267,643.8916850702195
268,643.9956546679927
269,644.1052827897396
270,644.2211792597597
271,644.3434281872862
272,644.4717743192657
273,644.6058572834357
274,644.7453909911677
275,644.8902191719119
276,645.0402264560322
277,645.1951262674604
278,645.3541757820644
279,645.5158877463979
280,645.6778193500522
281,645.8365123338872
282,645.9876303027702
283,646.1262947829815
284,646.2475750627649
285,646.3470518580303
286,646.4213621926457
287,646.4686447905974
288,646.4888283757701
289,646.483722264691
290,646.4568783399438
291,646.4132095513921
292,646.3583822384015
293,646.2980450098718
294,646.2370042822463
295,646.1784889543289
296,646.1236462317107
297,646.0713680706898
298,646.018471298944
299,645.9601725190948
300,645.8907472610744
301,645.8042581319477
302,645.6952640753743
303,645.5594553500072
304,645.3941811691351
305,645.1988478855203
306,644.9751693834615
307,644.727251349538
308,644.4614889175281
309,644.1862580482946
310,643.9113938536373
311,643.6474773461047
312,643.404990702404
313,643.1934375261397
314,643.0205392602506
315,642.8916000697751
316,642.809094049471
317,642.7724999585784
318,642.7784043496065
319,642.8208977869523
320,642.8922709555745
321,642.9839657241121
322,643.0876679117112
323,643.1963750929897
324,643.3052595236356
325,643.412179716949
326,643.5177599938207
327,643.6250314538433
328,643.7386950662927
329,643.8641261063166
330,644.0062837560578
331,644.1687053267174
332,644.3527456472203
333,644.5571788442687
334,644.7782203951704
335,645.0099563208219
336,645.2450968601555
337,645.4759226401163
338,645.6952726718791
339,645.8974335376996
340,646.0788171279797
341,646.238347293965
342,646.3775099867225
343,646.5000636011614
344,646.6114559818946
345,646.7180371652572
346,646.8261814340267
347,646.9414409742143
348,647.0678495346006
349,647.2074735903765
350,647.3602642800269
351,647.5241996029458
352,647.6956457818699
353,647.8698387869376
354,648.041400215716
355,648.2048369585413
356,648.3550057656996
357,648.4875373740065
358,648.5992090408583
359,648.6882389850019
360,648.7544664378368
361,648.7993862395346
362,648.8260258964981
363,648.8386786911132
364,648.8425286867982
365,648.8432122875132
366,648.8463574756867
367,648.857137667795
368,648.8798781518076
369,648.9177534833458
370,648.9726048609376
371,649.0448827028748
372,649.1336887562223
373,649.236873646591
374,649.3511533017318
375,649.4722324194354
376,649.5949450237961
377,649.7134305258788
378,649.8213600475997
379,649.912217237419
380,649.9796262882397
381,650.01770994916
382,650.0214471038428
383,649.9869841535724
384,649.9118565283209
385,649.7951089707116
386,649.6373430251369
387,649.4407319353138
388,649.209021295304
389,648.9475012303956
390,648.6629126118144
391,648.3632418606716
392,648.0573688209807
393,647.7545617165047
394,647.4638541264494
395,647.193372068318
396,646.949690818242
397,646.7372966191477
398,646.558221789169
399,646.4119126358501
400,646.2953650833211
401,646.2035205963367
402,646.1298714168516
403,646.0671980006867
404,646.0083554292966
405,645.9470276114977
406,645.8783693441774
407,645.7994609689464
408,645.7095176522228
409,645.6098289332033
410,645.5034502411647
411,645.3947132183912
412,645.2886457880088
413,645.1903861238001
414,645.1046500249156
415,645.0352912096923
416,644.984986032612
417,644.9550649168834
418,644.9454892225131
419,644.9549410025929
420,644.9809741793712
421,645.020182718701
422,645.0683736983026
423,645.120773925017
424,645.1723168321445
425,645.2180319874192
426,645.2535121711813
427,645.2754007968625
428,645.2818365586031
429,645.2727956955322
430,645.2502740615539
431,645.2182577036625
432,645.1824536925261
433,645.1497956348157
434,645.1277864212191
435,645.1237717367517
436,645.1442407767037
437,645.1942319230698
438,645.2768928445214
439,645.393213414451
440,645.5419215938044
441,645.7195195660663
442,645.9204506817413
443,646.1374154324692
444,646.3618616914025
445,646.5846388028058
446,646.7967515754968
447,646.990123232203
448,647.1582832295476
449,647.2969092972521
450,647.4041615063876
451,647.4807640285277
452,647.529823166268
453,647.5564051103672
454,647.5669256931211
455,647.5684308026074
456,647.5678648146876
457,647.5714184108962
458,647.5840156384945
459,647.6089668521398
460,647.6477948720691
461,647.7002258539333
462,647.7643173099254
463,647.8366882357484
464,647.9128267944468
465,647.9874636754446
466,648.055003558311
467,648.1100041621473
468,648.1476786903588
469,648.164375313037
470,648.1579723429976
471,648.1281275160508
472,648.0763304876926
473,648.005733065738
474,647.9207762063104
475,647.8266817710853
476,647.7289046540038
477,647.632633433605
478,647.5423933616761
479,647.4617661316073
480,647.3932161638486
481,647.3380085087327
482,647.2962091612216
483,647.2667611991877
484,647.2476258481605
485,647.2359728530146
486,647.2284063735257
487,647.2212184836086
488,647.2106610294942
489,647.1932159983122
490,647.1658408593671
491,647.1261777339901
492,647.0727264213807
493,647.0049750678457
494,646.9234703610387
495,646.8298092547469
496,646.7265435584719
497,646.6169972542343
498,646.5050058156493
499,646.3946013554003
500,646.289679643347
501,646.1936826024645
502,646.1093137218309
503,646.0382890240745
504,645.9811236281155
505,645.9369636383648
506,645.9034939630899
507,645.8769775302761
508,645.8524863447233
509,645.824347797948
510,645.7867594360129
511,645.7344597785609
512,645.6633190915555
513,645.5707436838635
514,645.455853888044
515,645.3194693446222
516,645.1639820132291
517,644.9931925454091
518,644.8121363024331
519,644.6268738954224
520,644.4442081014172
521,644.2713142504801
522,644.1153028583562
523,643.9827472889182
524,643.879205849474
525,643.8087602755145
526,643.7735964735781
527,643.7736746644102
528,643.8065585802981
529,643.8674703037442
530,643.9496025664872
531,644.0446766892987
532,644.1437048718262
533,644.2378980522406
534,644.3196387815846
535,644.3834078979463
536,644.4265274738618
537,644.4495809878356
538,644.4564100755665
539,644.453663721379
540,644.4499670611532
541,644.4548492468043
542,644.4775984753765
543,644.5261953783928
544,644.6064335307804
545,644.7212952597572
546,644.8706258599333
547,645.051133078441
548,645.2567202377611
549,645.4791350310443
550,645.7088751750191
551,645.9362366578629
552,646.1523426217811
553,646.3499817721715
554,646.524127922878
555,646.6720966811481
556,646.7933881512204
557,646.8893202570512
558,646.9625530108136
559,647.0165615498253
560,647.055079856899
561,647.0815395902559
562,647.098566073922
563,647.1076291085476
564,647.1089388073376
565,647.101616285122
566,647.0840817836506
567,647.054528537853
568,647.0113250929032
569,646.9532320460651
570,646.8794145595443
571,646.7893227957983
572,646.6825474295161
573,646.5587344235431
574,646.4175968015858
575,646.2590212801446
576,646.0832403762076
577,645.8910213664523
578,645.6838170362673
579,645.4638386790994
580,645.2340446609348
581,644.998070117018
582,644.7601378891574
583,644.5249813174224
584,644.2977815503493
585,644.0840857917104
586,643.889640539384
587,643.720066394278
588,643.5803390848382
589,643.4741189578671
590,643.4030536561834
591,643.3662296356897
592,643.3599440677415
593,643.377900690169
594,643.4118218136995
595,643.4523645154463
596,643.4901739049159
597,643.5169036403812
598,643.5260643843682
599,643.5136052774056
600,643.4781757876221
601,643.4210493009163
602,643.3457249900373
603,643.2572692045178
604,643.1615016133898
605,643.0641547202122
606,642.9701285491764
607,642.8829319929888
608,642.804360939425
609,642.734418820248
610,642.6714456025577
611,642.6123971697698
612,642.5532122602423
613,642.4892153729629
614,642.4155273827944
615,642.3274785250949
616,642.2210231160014
617,642.0931426137734
618,641.9422104342234
619,641.7682848171071
620,641.5732896079513
621,641.3610372228378
622,641.1370514950399
623,640.9081695913828
624,640.6819429808736
625,640.4659018740036
626,640.2667739853279
627,640.0897566521551
628,639.9379471815614
629,639.8120335505886
630,639.7103086380712
631,639.6289969869277
632,639.5628172165888
633,639.5056797703465
634,639.4514248832211
635,639.3945112534922
636,639.3305764181287
637,639.2568229893673
638,639.1722275354231
639,639.0775930076073
640,638.9754679052905
641,638.8699489147649
642,638.7663738682126
643,638.6709028046868
644,638.5899905376205
645,638.5297825430972
646,638.4955035768527
647,638.4909318163184
648,638.5180483376931
649,638.576924744033
650,638.6658696761604
651,638.7818078732269
652,638.9208210407536
653,639.0787426583506
654,639.2516793282613
655,639.4363480711805
656,639.6301772652241
657,639.8311910706178
658,640.0377456049056
659,640.2482001963801
660,640.4606053541005
661,640.6724824160675
662,640.8807529906765
663,641.081841767418
664,641.2719308635038
665,641.4473081460343
666,641.6047408182338
667,641.741813255408
668,641.8571797291828
669,641.9506967211036
670,642.0234272488158
671,642.0775487933811
672,642.1162184302615
673,642.1434285202251
674,642.1638399093872
675,642.1825512171539
676,642.2047773252738
677,642.2354557638877
678,642.2788447231491
679,642.3381910635408
680,642.4155235546253
681,642.5115857040189
682,642.6258899591395
683,642.7568620569417
684,642.9020460315327
685,643.0583444881422
686,643.2222680930864
687,643.3901698428825
688,643.5584529104286
689,643.723757140847
690,643.883130295849
691,644.0341762328202
692,644.1751632255252
693,644.3050826067171
694,644.4236597127979
695,644.5313215305345
696,644.6291213885467
697,644.7186224638134
698,644.8017488421038
699,644.8806137861438
700,644.9573263980491
701,645.0337718856223
702,645.1113697407043
703,645.1908377169681
704,645.2720125901901
705,645.3537842301449
706,645.4341852087811
707,645.5106528665882
708,645.5804470329783
709,645.6411644968882
710,645.6912513191172
711,645.7303927347218
712,645.7596739660501
713,645.7814615376193
714,645.7990337626619
715,645.8160511980723
716,645.8359842116694
717,645.8616152368007
718,645.8947140438546
719,645.9359421381729
720,645.9849846101373
721,646.0408498026075
722,646.1022298656676
723,646.1677918127177
724,646.236288761316
725,646.3064520122404
726,646.3767216834894
727,646.4449493515441
728,646.5082251340942
729,646.5629424250749
730,646.6051377182599
731,646.6310547393609
732,646.6378060138978
733,646.6239710932845
734,646.5899949096422
735,646.5383096363767
736,646.4731604697674
737,646.4001599067742
738,646.3256410630968
739,646.2559272024569
740,646.1966547220967
741,646.1522596770894
742,646.1256789088936
743,646.1182645804558
744,646.1298868491892
745,646.1591917998047
746,646.2039701248361
747,646.261573426286
748,646.3293029588469
749,646.404703504789
750,646.4857235360494
751,646.5707399583187
752,646.6584778571537
753,646.7478758130574
754,646.8379535730646
755,646.9277288807095
756,647.0162016289497
757,647.1023844239195
758,647.1853345588653
759,647.2641541977142
760,647.3379617232202
761,647.4058639287105
762,647.4669558329518
763,647.520352321172
764,647.5652384845482
765,647.6009266186412
766,647.6269186308715
767,647.6429776365386
768,647.6492062853697
769,647.6461147160711
770,647.6346434666577
771,647.6160982102818
772,647.5919697767418
773,647.5636567897077
774,647.5321580602657
775,647.497825860433
776,647.4602521423434
777,647.4183094475699
778,647.3703169890997
779,647.3142756233933
780,647.2481171620643
781,647.1699264711555
782,647.0781040759424
783,646.9714506188824
784,646.8491827884071
785,646.7109155574277
786,646.5566415930692
787,646.3867124293962
788,646.2018123006827
789,646.0029308455021
790,645.7913621395937
791,645.5687526109796
792,645.3371855738017
793,645.0992511532007
794,644.8580376523427
795,644.617006859991
796,644.3797677830287
797,644.1498080913827
798,643.9302533408577
799,643.7237010410688
800,643.5321420775595
801,643.3569587560036
802,643.1989848716929
803,643.0586185366752
804,642.935973878115
805,642.8310369322925
806,642.74377509424
807,642.67416629361
808,642.6221620583049
809,642.5876428635428
810,642.5704299811945
811,642.5703796360776
812,642.5875243933968
813,642.6221778222769
814,642.6749141369451
815,642.7463843206931
816,642.8370071104943
817,642.9466311145349
818,643.0742747878372
819,643.2180203180618
820,643.3750901349733
821,643.542089913235
822,643.7153690004499
823,643.8914317625886
824,644.0673292088044
825,644.2409650857811
826,644.4112632724369
827,644.5781637074675
828,644.7424398881723
829,644.9053590233416
830,645.0682322523973
831,645.2319210201642
832,645.3963735594274
833,645.5602663221438
834,645.7208223398793
835,645.8738651583137
836,646.014133354451
837,646.1358288846492
838,646.2333203355626
839,646.3018918738074
840,646.3384297400639
841,646.3419578934099
842,646.3139519347817
843,646.2583699216652
844,646.1813545719426
845,646.0906018122283
846,645.9944576144053
847,645.9008762722843
848,645.8164155767837
849,645.7454408465288
850,645.6896672722987
851,645.648101865507
852,645.6173682855567
853,645.5923362623874
854,645.5669517942354
855,645.5351644763858
856,645.4918486837214
857,645.4336082859237
858,645.3593567137486
859,645.270591618118
860,645.1713274126948
861,645.0676867962849
862,644.9671824414887
863,644.8777642224517
864,644.8067676047444
865,644.7599387704369
866,644.7406965055274
867,644.7497279636403
868,644.7849476595969
869,644.8418051140177
870,644.9138932495878
871,644.993763328083
872,645.0738039059091
873,645.1470273187917
874,645.2076463269108
875,645.2513977581513
876,645.2756375239582
877,645.2792594925646
878,645.262483982544
879,645.2265500439042
880,645.1733482521884
881,645.1050423085438
882,645.023732022739
883,644.9311983429163
884,644.8287494238436
885,644.717165605047
886,644.5967250466808
887,644.4672863278538
888,644.32841291204
889,644.1795334926268
890,644.0201257943668
891,643.8498989514906
892,643.6689550488297
893,643.4779355616013
894,643.2781769822124
895,643.0718882855648
896,642.862324072016
897,642.6538840219378
898,642.4520481154025
899,642.2630782506935
900,642.0934794634953
901,641.9492874448476
902,641.8352995890053
903,641.7543890587297
904,641.7070460799632
905,641.6912686851344
906,641.7028551324162
907,641.7360466512504
908,641.7843869553402
909,641.8416409210794
910,641.9026336588598
911,641.9639000738958
912,642.0240600814101
913,642.083858813479
914,642.1458459832764
915,642.2137286965489
916,642.2915124562339
917,642.3826076217799
