frame_number,force
0,642.8438100000309
1,642.8614241840555
2,642.8801066627991
3,642.9008148715943
4,642.9243812047174
5,642.9516267782619
6,642.9835546774508
7,643.0215296871963
8,643.0673555286293
9,643.1231993251395
10,643.1913629140295
11,643.2739391913873
12,643.3724095169492
13,643.4872442598097
14,643.6175769503378
15,643.761033217092
16,643.9137904204774
17,644.0709056069304
18,644.2268857977106
19,644.3764108943493
20,644.5150725455
21,644.6399708874742
22,644.7500289109024
23,644.8459485518267
24,644.9298266915605
25,645.0045390376898
26,645.0730549742339
27,645.1378542112282
28,645.2005790507483
29,645.2619849428054
30,645.3221664228831
31,645.3809617180231
32,645.4383975717658
33,645.4950324535884
34,645.5520861824909
35,645.6113001894598
36,645.6745496510536
37,645.7433097241639
38,645.8181296160765
39,645.89826218431
40,645.9815374330772
41,646.0644921240563
42,646.1427140850633
43,646.2113426493243
44,646.2656726726061
45,646.3018123012332
46,646.3173241863301
47,646.3117449452734
48,646.286864126443
49,646.2466787772963
50,646.1970126633729
51,646.1448639820304
52,646.097590974135
53,646.0620529287045
54,646.04380696215
55,646.0464383464922
56,646.0710871784322
57,646.116226455203
58,646.177734801187
59,646.2492778587756
60,646.322964151765
61,646.3901935803631
62,646.4425950951666
63,646.4729535326983
64,646.4760276096088
65,646.4491543067169
66,646.3925464535922
67,646.3092371628329
68,646.2046860671788
69,646.0861123475753
70,645.9616558911309
71,645.839492887047
72,645.7270338733302
73,645.6303006594428
74,645.553526054386
75,645.4989758201142
76,645.466976401855
77,645.4561371014705
78,645.4637535937096
79,645.4863560551922
80,645.5203319844717
81,645.5625289364793
82,645.6107343489688
83,645.6639467980971
84,645.7224011296746
85,645.7873740242577
86,645.8608443477843
87,645.9450908205345
88,646.0422832742111
89,646.1540933010549
90,646.2813450863415
91,646.4237475866613
92,646.5797660825033
93,646.7466796415496
94,646.9208335086272
95,647.0980503531246
96,647.2741265754253
97,647.44531965224
98,647.6087368464632
99,647.7625590528113
100,647.9060632756272
101,648.0394433670966
102,648.1634774303656
103,648.27913659074
104,648.3872419703662
105,648.4882428062975
106,648.5821322351478
107,648.6684722263059
108,648.7464799183166
109,648.8151305892129
110,648.8732540713614
111,648.9196355372702
112,648.9531547316227
113,648.9729814622507
114,648.9787928554113
115,648.9709338842199
116,648.9504493300493
117,648.9189672667167
118,648.8784712813111
119,648.8310330272974
120,648.7785824240468
121,648.722767183876
122,648.664902994905
123,648.6059693046686
124,648.5465933610699
125,648.4869912588014
126,648.42687894583
127,648.3654028259145
128,648.3011529697907
129,648.2323078546962
130,648.1569208256423
131,648.0733072470262
132,647.9804501089225
133,647.8783300975595
134,647.768104380402
135,647.6520918124819
136,647.5335596630566
137,647.4163458959449
138,647.3043842722745
139,647.2012122248727
140,647.1095298642724
141,647.030858720427
142,646.965335688054
143,646.9116662916418
144,646.8672420627436
145,646.8284033818003
146,646.7908116852003
147,646.7498859722597
148,646.7012530830752
149,646.6411577417352
150,646.5667843805223
151,646.4764615723274
152,646.3697396776194
153,646.2473405215462
154,646.1109800088935
155,645.9630798952179
156,645.80641964113
157,645.6438072015162
158,645.4778363052559
159,645.31075304316
160,645.1444169680017
161,644.9803376169381
162,644.8197776883912
163,644.6639027941602
164,644.5139230505295
165,644.3711527462501
166,644.2369422374618
167,644.1124972360352
168,643.9986515520786
169,643.8956725402203
170,643.8031615269374
171,643.7200823388963
172,643.6449167615991
173,643.5759120697595
174,643.5113615804344
175,643.4498482823867
176,643.3903885678369
177,643.332445583693
178,643.2758313359418
179,643.2205540051937
180,643.1666680542004
181,643.1141557831297
182,643.0628408524859
183,643.0123304336614
184,642.961993566066
185,642.9109838664033
186,642.858300685354
187,642.8028704336069
188,642.74362965444
189,642.6796020024128
190,642.6099768537183
191,642.5342087009064
192,642.4521552041847
193,642.3642569921631
194,642.2717377131991
195,642.1767737407474
196,642.0825629333201
197,641.9932280911
198,641.9135246567291
199,641.8483660467273
200,641.8022164546534
201,641.7784281344201
202,641.7786240676335
203,641.8022430733045
204,641.8463548135811
205,641.9058046195883
206,641.9736746547085
207,642.0419809904573
208,642.1024951873853
209,642.1475883629344
210,642.1710230642217
211,642.1686336864949
212,642.1388278980636
213,642.0828279579202
214,642.0045847941865
215,641.9103532151878
216,641.8079910069075
217,641.70609731665
218,641.6131155466549
219,641.5365059798082
220,641.4820667940703
221,641.4534569001288
222,641.4519475505425
223,641.476403437539
224,641.5234730773128
225,641.5879561900466
226,641.6633133927173
227,641.7422846258703
228,641.8175754891571
229,641.8825537293048
230,641.9318855937955
231,641.9620429938176
232,641.9716230895189
233,641.9614399024716
234,641.9343767454295
235,641.8950244040756
236,641.84916148528
237,641.8031536356639
238,641.7633538007891
239,641.7355712847719
240,641.7246495197242
241,641.7341696575199
242,641.766283788211
243,641.8216661817086
244,641.8995578759507
245,641.9978882150422
246,642.1134811610747
247,642.242363257573
248,642.3801680844682
249,642.5225933583797
250,642.6658357723632
251,642.8069252024192
252,642.9439132434918
253,643.0759247124984
254,643.2031173272547
255,643.3265916038274
256,643.4482614283972
257,643.5706628880497
258,643.6966667139114
259,643.8290799489027
260,643.9701738358365
261,644.121233097224
262,644.2822448094593
263,644.4518085038687
264,644.6272736665396
265,644.8050447590942
266,644.9809721081976
267,645.1507683933115
268,645.3104256226505
269,645.4566243979133
270,645.5871137372155
271,645.701008253408
272,645.7989280620227
273,645.8829202825252
274,645.9561482966556
275,646.0223882365282
276,646.0854080212843
277,646.1483250214147
278,646.2130542938703
279,646.2799614587311
280,646.3478010260862
281,646.413950581406
282,646.4748756842107
283,646.5267174304923
284,646.5658937050798
285,646.589628522219
286,646.5963514053168
287,646.585931473565
288,646.5597300961359
289,646.5204772583489
290,646.4720002003129
291,646.4188485526294
292,646.365859659905
293,646.317698357828
294,646.2784041906701
295,646.2509910436561
296,646.2371547560006
297,646.2371347270101
298,646.2497445353076
299,646.2725550182136
300,646.3022008439127
301,646.3347808544972
302,646.3663119103312
303,646.3931769142785
304,646.412503027436
305,646.4224245530997
306,646.4222133419462
307,646.4122855114224
308,646.39411108785
309,646.3700573690874
310,646.3431885549395
311,646.317030821514
312,646.2952970841708
313,646.281557015702
314,646.2788513564698
315,646.2892848961868
316,646.3136643587761
317,646.351254126922
318,646.3997067712243
319,646.4552018023128
320,646.5128054868558
321,646.5670438505952
322,646.61264420334
323,646.6453427545488
324,646.662606826645
325,646.6641192405184
326,646.6519229182776
327,646.6301953347638
328,646.6046905464551
329,646.5819466134675
330,646.568403783039
331,646.5695951426693
332,646.589541713835
333,646.6304185750457
334,646.6924852706013
335,646.7742207382696
336,646.8725900598089
337,646.9833932789863
338,647.1016738880611
339,647.2221673275152
340,647.3397484313272
341,647.4498147897003
342,647.5485464305517
343,647.6330220845377
344,647.701229620042
345,647.7520397952793
346,647.7851937356218
347,647.8013104003855
348,647.8018917606985
349,647.7892998232664
350,647.7666849110971
351,647.7378467082609
352,647.7070062711069
353,647.6784665328237
354,647.6561605869234
355,647.6431406169179
356,647.6411193139339
357,647.6501924096323
358,647.6688217772188
359,647.6940695547501
360,647.7220004859398
361,647.7481510778866
362,647.7679949946896
363,647.7773772500578
364,647.7729113606033
365,647.7523251537988
366,647.7147158019554
367,647.6606576617153
368,647.5921197716642
369,647.5121934240025
370,647.4246816938183
371,647.3336358759087
372,647.242920829913
373,647.1558569895884
374,647.074952193319
375,647.0017253080082
376,646.9366265956369
377,646.8790600549579
378,646.8275101497215
379,646.7797698183049
380,646.7332511922078
381,646.6853383622299
382,646.6337276757849
383,646.5767022571313
384,646.5133022586571
385,646.443379325543
386,646.3675520621558
387,646.2870907036364
388,646.2037520552609
389,646.1195763418677
390,646.0366568070231
391,645.9568993288395
392,645.8817970482698
393,645.8122476042636
394,645.74843675596
395,645.6898064514122
396,645.635117441102
397,645.5826009624052
398,645.5301747176059
399,645.4756885298457
400,645.4171683883548
401,645.3530323993547
402,645.2822500932697
403,645.2044154567676
404,645.1197155041334
405,645.0288013389633
406,644.9326000011288
407,644.8321282339934
408,644.7283636472483
409,644.6221900924863
410,644.5143893155478
411,644.405634950712
412,644.2964648447064
413,644.1872408844838
414,644.0781246165092
415,643.969092551299
416,643.85999844812
417,643.750673759859
418,643.6410419617805
419,643.5312092372494
420,643.4214951302847
421,643.3123872907717
422,643.2044334660972
423,643.0981091571144
424,642.9937125382475
425,642.8913309656228
426,642.7908958408759
427,642.6923094724478
428,642.5956044705267
429,642.5010858353878
430,642.4094037532245
431,642.3215145862589
432,642.2385180349655
433,642.1614047081875
434,642.0907868855262
435,642.0266982651864
436,641.9685353543757
437,641.9151771421764
438,641.8652645607187
439,641.8175650490748
440,641.7713204057785
441,641.7264932849813
442,641.6838716034506
443,641.6450289930535
444,641.6121606395486
445,641.5878279170705
446,641.5746601592044
447,641.5750678540362
448,641.5910047741164
449,641.6237834145624
450,641.6739265603544
451,641.7410494408824
452,641.8238017417999
453,641.9199203831804
454,642.0264222044503
455,642.1399089363596
456,642.2569071941527
457,642.3741580722619
458,642.4888036333919
459,642.598466193143
460,642.7012541983158
461,642.7957409057589
462,642.8809497390341
463,642.9563556502877
464,643.0218901248514
465,643.0779282773614
466,643.1252434572546
467,643.1649352928983
468,643.1983561025897
469,643.2270575311048
470,643.2527543168021
471,643.2772814024146
472,643.3025233630474
473,643.3303118799731
474,643.362298998061
475,643.3998169960616
476,643.443738009148
477,643.4943536602748
478,643.551301642448
479,643.6135611802385
480,643.6795200029246
481,643.7470946539185
482,643.8138791443818
483,643.877307589537
484,643.9348350384157
485,643.9841525029412
486,644.0234470028028
487,644.051695769952
488,644.0689548101675
489,644.0765792666242
490,644.0773093453555
491,644.0751747408691
492,644.0752033597158
493,644.0829519333195
494,644.1038993903343
495,644.1427654455471
496,644.2028459276443
497,644.2854825778535
498,644.3897808079839
499,644.5126405752136
500,644.6490932561384
501,644.7928765822469
502,644.9371492896518
503,645.0752429444414
504,645.2013580428297
505,645.3111256818742
506,645.401972947458
507,645.4732539808566
508,645.5261397315791
509,645.5632905429068
510,645.5883649198425
511,645.6054487712341
512,645.6185131596899
513,645.6310044817234
514,645.6456324061984
515,645.6643647726601
516,645.6885870946567
517,645.7193487801449
518,645.7576040863601
519,645.8043672293804
520,645.8607311667339
521,645.9277332714895
522,646.006085583466
523,646.0958297166133
524,646.1960177811129
525,646.3045336610819
526,646.4181367323888
527,646.5327444442626
528,646.6439012109352
529,646.7473335539978
530,646.8394725526551
531,646.9178309478901
532,646.9811525820513
533,647.0293078577317
534,647.0629808627709
535,647.0832551530833
536,647.0912303600949
537,647.0877842049372
538,647.0735434914681
539,647.0490564310853
540,647.0150835886549
541,646.972876395397
542,646.9243252666656
543,646.8719316641663
544,646.818640126294
545,646.7676060419336
546,646.7219575310095
547,646.6845560968842
548,646.6577171907994
549,646.6428603178002
550,646.6401153107336
551,646.6479731716719
552,646.6630962016721
553,646.6803820090405
554,646.6933247532419
555,646.6946575371708
556,646.6772032457307
557,646.6348130312911
558,646.5632482190745
559,646.4608738544164
560,646.3290663606839
561,646.1722724477314
562,645.9976884670547
563,645.8145686920011
564,645.6332235096593
565,645.4638295526867
566,645.3152256479144
567,645.193886682816
568,645.1032385344322
569,645.0434081732996
570,645.0114149558101
571,645.0017269749069
572,645.0070527108693
573,645.0192255739693
574,645.0300628342882
575,645.0321210400595
576,645.0193037545523
577,644.9872937315953
578,644.933791869553
579,644.8585676443048
580,644.7633555879693
581,644.6516420660557
582,644.5283655500134
583,644.3995283087248
584,644.2717174677523
585,644.1515580164205
586,644.0451494112991
587,643.9575559296621
588,643.8924247628584
589,643.851793661824
590,643.8361179940557
591,643.8444950261281
592,643.8750056077995
593,643.9250609013177
594,643.991660864443
595,644.0715352624974
596,644.1612051608452
597,644.2570310553483
598,644.3552967971383
599,644.4523440830988
600,644.5447483144795
601,644.6295150207997
602,644.7042646219869
603,644.7673652626247
604,644.8179875593028
605,644.8560931175473
606,644.8824022049283
607,644.8983870298101
608,644.9063075845768
609,644.9092691123083
610,644.9112518526103
611,644.9170519416696
612,644.9320791057198
613,644.961981449021
614,645.0121052654059
615,645.0868380831304
616,645.1889171646989
617,645.3188117841555
618,645.4743009727098
619,645.6503559155411
620,645.8393950345745
621,646.0319246453801
622,646.2175209301339
623,646.3860503106105
624,646.5289672280305
625,646.640484198181
626,646.7184008106796
627,646.7644255277912
628,646.7839266827888
629,646.7851744834105
630,646.7782300057431
631,646.7736678568144
632,646.7813055255482
633,646.8090910586427
634,646.8622775948081
635,646.942971268839
636,647.0500724268757
637,647.1795579561601
638,647.3250085984181
639,647.478289056275
640,647.6303196946944
641,647.7718937765368
642,647.8944783532492
643,647.9909186630165
644,648.0559776544605
645,648.0866799018012
646,648.0824617548669
647,648.0451380976727
648,647.9786889292708
649,647.8888680402489
650,647.782659960266
651,647.6676580495609
652,647.5514715661405
653,647.4412537172581
654,647.3433820491521
655,647.2632648138892
656,647.2052274366819
657,647.1724467947063
658,647.1669225545907
659,647.189484169348
660,647.2398225174219
661,647.3165169841268
662,647.4170260278817
663,647.5376340719756
664,647.6733823334948
665,647.8180338920604
666,647.9641348649052
667,648.1032409406729
668,648.2263693988779
669,648.324690892523
670,648.3903974429137
671,648.417612455506
672,648.40318252604
673,648.3472067656797
674,648.2531934094065
675,648.1277845962063
676,647.9800729107036
677,647.8206305286848
678,647.6604315757994
679,647.5098372791858
680,647.3777526647543
681,647.271001598898
682,647.1939319246994
683,647.1482484408555
684,647.1330637993325
685,647.1451513750578
686,647.1793770322893
687,647.2292736076879
688,647.2877077031079
689,647.3475824455841
690,647.4025166525516
691,647.4474293481625
692,647.4789496809645
693,647.4955892587582
694,647.4976569842547
695,647.4869417544705
696,647.4662217427472
697,647.4386876726554
698,647.4073927901068
699,647.3748421523591
700,647.3427891388632
701,647.3122334302379
702,647.2835529349225
703,647.256680149922
704,647.2312481450566
705,647.20666441858
706,647.1821084033589
707,647.1564822623459
708,647.1283663271671
709,647.0960305550566
710,647.0575260163904
711,647.0108358509696
712,646.9540316905044
713,646.8853824370035
714,646.8033954473206
715,646.7068148131041
716,646.5946321134085
717,646.4661627954288
718,646.3212049591502
719,646.1602445806507
720,645.9846292775577
721,645.7966266093597
722,645.5993204743488
723,645.396359912279
724,645.1916226526106
725,644.9888699606405
726,644.7914541884412
727,644.6021092292582
728,644.4228202231781
729,644.2547533806188
730,644.0982450463267
731,643.952881284318
732,643.8177007139589
733,643.6915070637065
734,643.5732171893752
735,643.462141784642
736,643.3581174135586
737,643.2614636050278
738,643.1727964153405
739,643.0927656363649
740,643.0217904748727
741,642.9598553310956
742,642.906403686493
743,642.8603413736482
744,642.820134122572
745,642.783963399845
746,642.7498971801695
747,642.7160408693812
748,642.680652663032
749,642.642228827987
750,642.5995768518741
751,642.5518911967671
752,642.4988365282171
753,642.4406398130683
754,642.3781897403172
755,642.3131242924421
756,642.2478597459552
757,642.1855047386446
758,642.1296330862991
759,642.0839465663842
760,642.051901770586
761,642.0363688376251
762,642.0393468726894
763,642.061731704199
764,642.103143826113
765,642.1618498890725
766,642.2348124328751
767,642.3178843109458
768,642.406154349262
769,642.4944489472325
770,642.5779700130115
771,642.6529922737272
772,642.7174880654616
773,642.7715394880969
774,642.8174420977729
775,642.8594684157572
776,642.9033129384413
777,642.9552871356141
778,643.0213917975699
779,643.1064497369305
780,643.2134857659601
781,643.3434666561137
782,643.495393594856
783,643.6666430151209
784,643.8534248337374
785,644.0512525119583
786,644.2553516750212
787,644.4609620590384
788,644.6635269098529
789,644.8588093020624
790,645.0429961691893
791,645.2128302719823
792,645.3657651160737
793,645.5001049329527
794,645.6150932865785
795,645.7109418002826
796,645.7888198012445
797,645.8508317004595
798,645.8999840795138
799,645.9401080831713
800,645.975685889426
801,646.011547855197
802,646.0524496007696
803,646.1025822567493
804,646.1650943253436
805,646.2417070627845
806,646.3324971522886
807,646.4359054484623
808,646.5490017474483
809,646.6679889503703
810,646.7888755611464
811,646.9082001831255
812,647.0236692695563
813,647.1345766675345
814,647.2419111569135
815,647.3481209589763
816,647.4565779334735
817,647.57084761711
818,647.6939077590048
819,647.8274631722063
820,647.9714811780315
821,648.1240257076129
822,648.2814103888163
823,648.4386326256348
824,648.5899980666492
825,648.7298084850056
826,648.8529838422504
827,648.9555290291845
828,649.0348198280766
829,649.0897378661068
830,649.120707376698
831,649.1296771337236
832,649.1200647906014
833,649.0966565581533
834,649.0654441820298
835,649.033384996942
836,649.0080829927375
837,648.9973976344376
838,649.0089828626321
839,649.0497470943989
840,649.1252296421997
841,649.2389268433922
842,649.3916564734172
843,649.5810818288538
844,649.8015029785753
845,650.0439756597857
846,650.2967678860679
847,650.5461251510308
848,650.7772852429138
849,650.975659771932
850,651.1280800905487
851,651.2239879513786
852,651.2564376478135
853,651.2227773039277
854,651.1249054132232
855,650.9690567811368
856,650.7651462155934
857,650.5257680275345
858,650.2649969106907
859,649.9971469379747
860,649.7356165922687
861,649.4919012572778
862,649.2748248466902
863,649.0900379248982
864,648.9398287182319
865,648.8232711863624
866,648.7366859562769
867,648.6743380603336
868,648.6292718585164
869,648.5941897269482
870,648.5622869245493
871,648.5279472930047
872,648.4872071891549
873,648.4379329081107
874,648.3797214420772
875,648.3135899209707
876,648.2415345151924
877,648.166022855471
878,648.0894727339639
879,648.0137772729124
880,647.9399360933006
881,647.8678271315048
882,647.7961254457732
883,647.7223627660272
884,647.6431174062876
885,647.5543195504914
886,647.4516547021609
887,647.3310453278514
888,647.1891764032997
889,647.02400567012
890,646.8351817069444
891,646.6242983311964
892,646.3949403757218
893,646.1525065055996
894,645.9038145029106
895,645.6565071783403
896,645.4183030317175
897,645.1961834743865
898,644.9956511208864
899,644.8201911965461
900,644.6710120696683
901,644.5470629819722
902,644.4452682851966
903,644.3608983822844
904,644.2880073024619
905,644.2198805846881
906,644.1494472547101
907,644.0696273046274
908,643.9736164124444
909,643.8551422903686
910,643.7087429888657
911,643.5301012441192
912,643.3164270142535
913,643.0668397033943
914,642.7826795297699
915,642.4676696344039
916,642.1278545984359
917,641.7712702551426
918,641.4073597378904
