frame_number,force
0,642.5388800000434
1,642.7248639086815
2,642.904364974551
3,643.0712414911945
4,643.2200241732514
5,643.3462098503301
6,643.4464750722141
7,643.5187811763474
8,643.5623808096946
9,643.577760241725
10,643.5665396032529
11,643.5313282377045
12,643.4755288750068
13,643.4031066571044
14,643.3183648684558
15,643.2257735824343
16,643.1298721163251
17,643.0352253475661
18,642.9463826097249
19,642.8677840593372
20,642.8035817249286
21,642.7573711847998
22,642.7318473612484
23,642.7284122259865
24,642.7467951642501
25,642.7847931414112
26,642.8382575947601
27,642.9014143796036
28,642.9675085781711
29,643.0296588462604
30,643.0817335919547
31,643.1190511935613
32,643.1387599692828
33,643.1398496098295
34,643.1228487269284
35,643.0893397973588
36,643.041451247955
37,642.9814594124997
38,642.911570910958
39,642.8338958815284
40,642.7505779922794
41,642.6640069365397
42,642.5770081337115
43,642.4929083664496
44,642.4154238048756
45,642.3483849004496
46,642.2953663016693
47,642.259307765659
48,642.2421980855709
49,642.2448712855725
50,642.2669501293743
51,642.3069605882766
52,642.3626129781421
53,642.4311934793745
54,642.5099530950494
55,642.596358359922
56,642.6881100430076
57,642.7829346676838
58,642.8782587186896
59,642.9709305045294
60,643.0571351228862
61,643.1325694506609
62,643.1928508017193
63,643.2340721538312
64,643.2534035187792
65,643.2496487346849
66,643.2236737043405
67,643.1786257293536
68,643.1198768964667
69,643.0546581728619
70,642.9914089456835
71,642.9389359334632
72,642.9055248374782
73,642.8981500741041
74,642.921879998135
75,642.979505827103
76,643.071372195576
77,643.1953752722002
78,643.3471089690375
79,643.5201559036323
80,643.7065177147962
81,643.8971562714416
82,644.0825919042993
83,644.2535001368713
84,644.4012658913848
85,644.5184752849141
86,644.5993363218075
87,644.6400215530966
88,644.638922556786
89,644.5968014783653
90,644.5168224779624
91,644.4044455959904
92,644.2671642462963
93,644.1140678311272
94,643.9552222797972
95,643.800889952341
96,643.6606500131397
97,643.5425156333539
98,643.4521635601938
99,643.392391003716
100,643.3628920425672
101,643.3603991978515
102,643.379172788908
103,643.4117592861553
104,643.4498983817612
105,643.4854441544838
106,643.5111769879434
107,643.52141802655
108,643.5124098983904
109,643.4824737407345
110,643.431970406127
111,643.3630893854657
112,643.2794909284099
113,643.185845284926
114,643.0873292469399
115,642.9891378343071
116,642.896053533386
117,642.8121004548293
118,642.7403003004488
119,642.6825374490918
120,642.6395295163471
121,642.6108895664355
122,642.5952623322482
123,642.5905228961797
124,642.5940359982343
125,642.6029755488322
126,642.6146909414545
127,642.6270798198634
128,642.6388944983972
129,642.6498966522005
130,642.6608085228263
131,642.6730773633187
132,642.6885252796324
133,642.7089682440634
134,642.7358727910337
135,642.770105672005
136,642.8118198284086
137,642.8604916210355
138,642.9150788835534
139,642.9742283370433
140,643.0364473522197
141,643.1001774814116
142,643.1637554807002
143,643.2252989923397
144,643.2825855678767
145,643.3329951709125
146,643.3735641811817
147,643.4011657229096
148,643.4127973178392
149,643.4059334564432
150,643.3788957784741
151,643.3312021104812
152,643.2638620290475
153,643.1795805450671
154,643.0828207485802
155,642.9796808166174
156,642.8775690565514
157,642.7846993717898
158,642.709460588194
159,642.6597271828302
160,642.6421740676848
161,642.6616393984409
162,642.7205619989031
163,642.8185223684551
164,642.9519433089149
165,643.11403857702
166,643.2951043308377
167,643.48320885607
168,643.6652550587265
169,643.8282948431022
170,643.96090417448
171,644.0544088855653
172,644.1037828775023
173,644.1081052023087
174,644.0705404980934
175,643.9978748801898
176,643.8996804897756
177,643.78720554165
178,643.6721144854347
179,643.5652353458879
180,643.4754840471954
181,643.409107671912
182,643.3693231447006
183,643.3563488529834
184,643.3677639744809
185,643.3990995356584
186,643.444558103267
187,643.4977581774008
188,643.5524045599088
189,643.602811436852
190,643.6442500720829
191,643.6731358551614
192,643.6870920851242
193,643.6849325952592
194,643.6666017344263
195,643.6330978436526
196,643.5863817302612
197,643.5292466410604
198,643.4651191547746
199,643.397772512712
200,643.3309561229338
201,643.2679759422057
202,643.21129426164
203,643.162230886034
204,643.1208248262373
205,643.0858720700109
206,643.0551209742807
207,643.0255935090491
208,642.9939930525561
209,642.957144840087
210,642.9124089246918
211,642.8580288509365
212,642.7934161808791
213,642.7193796420264
214,642.6382752909328
215,642.5540137462608
216,642.471853601982
217,642.3979524869496
218,642.3387209627717
219,642.3000840541393
220,642.2867630047452
221,642.3016584801477
222,642.345390835703
223,642.4160499078947
224,642.5092016326179
225,642.6181688255112
226,642.7345564077394
227,642.8489525808168
228,642.9517239657989
229,643.0338320333741
230,643.0876137677833
231,643.1074749809876
232,643.0904384916067
233,643.0364859736748
234,642.948645039015
235,642.8328009831821
236,642.6972445997284
237,642.551992529081
238,642.407930301744
239,642.2758371659597
240,642.1653691377151
241,642.0841064844018
242,642.0367993070436
243,642.024945584393
244,642.0467920953341
245,642.097760967125
246,642.1712020795266
247,642.2593042360401
248,642.3539995937981
249,642.4477495232123
250,642.5341580052133
251,642.608391290649
252,642.667394745549
253,642.70990792163
254,642.736296337549
255,642.7482381901265
256,642.748317117159
257,642.7395768496816
258,642.7250939163129
259,642.7076202445594
260,642.6893356650739
261,642.6717321373319
262,642.655630838956
263,642.641312734573
264,642.6287269974569
265,642.6177356971135
266,642.6083566950607
267,642.6009714984943
268,642.5964685925431
269,642.5963010836145
270,642.602449265759
271,642.6172857419433
272,642.6433459660386
273,642.6830243413177
274,642.7382437689465
275,642.8101631080813
276,642.8989792611197
277,643.0038555542924
278,643.1229757569604
279,643.2536923432378
280,643.3927233036269
281,643.5363612985916
282,643.6806775340116
283,643.8217094110448
284,643.9556130786791
285,644.0787568298183
286,644.1877453636321
287,644.279393442134
288,644.3506904879632
289,644.3988065070237
290,644.4211886418711
291,644.415780099867
292,644.3813459701803
293,644.3178272201679
294,644.2266085135191
295,644.1106092476409
296,643.9741756035099
297,643.8228166499873
298,643.6628537381132
299,643.5010419851868
300,643.3442017402298
301,643.1988832841685
302,643.0710737939183
303,642.9659350092188
304,642.8875481280804
305,642.8386589214782
306,642.8204523122314
307,642.8324101827209
308,642.8722986668287
309,642.9362989305448
310,643.0192618086276
311,643.115047065091
312,643.2168984191159
313,643.3178019752689
314,643.4107911750232
315,643.4892004147936
316,643.5469052416288
317,643.5785894693485
318,643.580052298064
319,643.5485394671086
320,643.483070059618
321,643.3847299460061
322,643.2568953412305
323,643.1053243487256
324,642.9380281333725
325,642.7648439448819
326,642.5966933497141
327,642.4445905040732
328,642.3185290224421
329,642.2264107997728
330,642.1731894202809
331,642.1603804213024
332,642.1860350528124
333,642.245190709515
334,642.3307175053997
335,642.4343957352278
336,642.5480078209516
337,642.6642372418023
338,642.7772385487916
339,642.8828435119649
340,642.9784538192137
341,643.0627153258521
342,643.1350765956826
343,643.1953250660582
344,643.2431838036042
345,643.2780451975597
346,643.2989055969703
347,643.3045283102505
348,643.2938005869903
349,643.2661928918403
350,643.2222049826887
351,643.1636947732304
352,643.0940200317148
353,643.0179661240651
354,642.9414693198058
355,642.8711635097562
356,642.8137819053148
357,642.7754480065518
358,642.7609064265664
359,642.7727805308645
360,642.8109871264569
361,642.8724562476414
362,642.9512685093289
363,643.0392354645253
364,643.1268431812126
365,643.2043984557507
366,643.2631846397
367,643.2964474402837
368,643.300077897852
369,643.272926311927
370,643.2167469331216
371,643.1358209179192
372,643.0363331163733
373,642.9255963800376
374,642.8112299517531
375,642.7004000546405
376,642.5992124173381
377,642.512310006043
378,642.4426875951518
379,642.3916995285431
380,642.3592135421075
381,642.3438561879043
382,642.3433038844245
383,642.3545867770724
384,642.374378343757
385,642.3992427950622
386,642.4258155700212
387,642.4509068213896
388,642.4715403362584
389,642.4849631881827
390,642.4886802313332
391,642.4805725998865
392,642.4591297236951
393,642.4237579073363
394,642.3750685235635
395,642.3150435677424
396,642.2470200292166
397,642.175484138373
398,642.1057001570981
399,642.0432225111723
400,641.9933588117273
401,641.960660396777
402,641.9485138437369
403,641.9588893413577
404,641.9922666421005
405,642.0477097733288
406,642.1230180689821
407,642.2148748676831
408,642.3189560981986
409,642.4300196209431
410,642.5420343790925
411,642.6484104956768
412,642.742362392574
413,642.8173922086246
414,642.867841353723
415,642.8894391558106
416,642.8797765554297
417,642.8386354913612
418,642.7681075324199
419,642.6724541782372
420,642.5577073564839
421,642.4310662880675
422,642.3001901745298
423,642.1725058518091
424,642.0546466160145
425,641.9521079734333
426,641.8691470009135
427,641.8088804642373
428,641.7734786318779
429,641.7643293971428
430,641.7820726757719
431,641.8264704140366
432,641.8961544309401
433,641.9883497239413
434,642.0986880613018
435,642.2212107205213
436,642.3486250656825
437,642.4728354892657
438,642.5857119214595
439,642.6799904842696
440,642.750144432734
441,642.7930518928979
442,642.8083328055969
443,642.7983108880724
444,642.7676361916183
445,642.7226491527142
446,642.670583763768
447,642.6187204614644
448,642.5736101484196
449,642.5404762821973
450,642.5228536723664
451,642.5224635603513
452,642.5392831190289
453,642.5717512763139
454,642.6170542755967
455,642.6714485127075
456,642.7306013921744
457,642.7899511806487
458,642.8450889155105
459,642.8921482195901
460,642.928168160345
461,642.9513848144583
462,642.9614104517478
463,642.959271834685
464,642.947300090348
465,642.92888863636
466,642.9081509132254
467,642.8895116979595
468,642.8772658050774
469,642.8751468598206
470,642.8859584237975
471,642.9113134797701
472,642.951505493647
473,643.0055104158965
474,643.0711036174375
475,643.1450656596344
476,643.2234469752686
477,643.3018721647561
478,643.3758809936735
479,643.4412985973177
480,643.4945964567489
481,643.5331803157341
482,643.5555530385595
483,643.561344254648
484,643.551239937273
485,643.5268553897913
486,643.4905757916591
487,643.4453630197067
488,643.3945186788709
489,643.3414057638535
490,643.2891496421614
491,643.2403460407083
492,643.1968025477549
493,643.159347690352
494,643.1277581749015
495,643.1008546553808
496,643.0767800344086
497,643.0534181308269
498,643.0288698137047
499,643.0018974025687
500,642.9722684734162
501,642.9409553763319
502,642.9101615879467
503,642.883155214959
504,642.8639081705712
505,642.8565713869499
506,642.8648538377391
507,642.8914057222923
508,642.9373230417684
509,643.0018774541165
510,643.0825241563451
511,643.1751684690922
512,643.2746155506844
513,643.375111942403
514,643.4709022371936
515,643.556742737453
516,643.6283267349723
517,643.6825896300678
518,643.7178793927031
519,643.7339941074118
520,643.7320987454805
521,643.7145366791457
522,643.6845521726506
523,643.6459453656743
524,643.6026910095495
525,643.5585576000842
526,643.5167605156191
527,643.479678129536
528,643.4486605281342
529,643.4239648349638
530,643.404849201487
531,643.3898345079417
532,643.3770950748685
533,643.3648913237946
534,643.3519433957455
535,643.3376724870528
536,643.3222782218261
537,643.3066474162723
538,643.2921043393819
539,643.280037904641
540,643.2714822988455
541,643.2667564593036
542,643.2652567578427
543,643.2654521781549
544,643.2650796428304
545,643.2614991220391
546,643.2521474966236
547,643.2350191785144
548,643.2090924633186
549,643.1746165819035
550,643.1331874146706
551,643.0875782818129
552,643.0413473099035
553,642.9982869015499
554,642.9617946643999
555,642.9342477352891
556,642.9164840281161
557,642.9075194099079
558,642.9046086522761
559,642.9036744500211
560,642.9000252946348
561,642.889212251949
562,642.8678555758112
563,642.8342922212679
564,642.7889363647657
565,642.7342970607692
566,642.6746553920588
567,642.6154627050909
568,642.5625745951991
569,642.5214681347666
570,642.4965843428397
571,642.490893478523
572,642.5057214333601
573,642.5408226116948
574,642.5946403474411
575,642.6646635755494
576,642.7477836045824
577,642.8405807149477
578,642.9395060990339
579,643.0409531801048
580,643.1412403102858
581,643.2365604615052
582,643.3229743498879
583,643.3965103801183
584,643.4533939784852
585,643.4903828525089
586,643.5051484322659
587,643.4966253982686
588,643.4652558830711
589,643.4130774467997
590,643.343635630205
591,643.2617395815606
592,643.1731136775539
593,643.0840115810586
594,643.000845194763
595,642.9298517438053
596,642.8767959586548
597,642.846691767012
598,642.8435299602675
599,642.8700110408753
600,642.9272979249563
601,643.0148108514286
602,643.1300879998805
603,643.2687434946722
604,643.4245658143451
605,643.5897894164715
606,643.7555379426565
607,643.9124086806473
608,644.0511615720108
609,644.1634730136935
610,644.2426946093854
611,644.2845279164264
612,644.2875120758206
613,644.2532354183704
614,644.1862216122844
615,644.093493989064
616,643.983871488698
617,643.8670817179884
618,643.752792314935
619,643.6496723283519
620,643.5645993628017
621,643.5021111403321
622,643.4641565084138
623,643.450145598279
624,643.4572546717303
625,643.4809210470934
626,643.51545959478
627,643.5547269059483
628,643.5927555954863
629,643.6243041469747
630,643.6453123292707
631,643.6532677592592
632,643.6474509442785
633,643.6289843119687
634,643.600626406066
635,643.5663194135844
636,643.5305633442371
637,643.4977208715527
638,643.4713591445117
639,643.4537255520246
640,643.445437405264
641,643.4454326876406
642,643.4511781427669
643,643.4590783421911
644,643.4649997258156
645,643.4648284866938
646,643.4550079837984
647,643.4330225688831
648,643.3977923039753
649,643.3499260977275
650,643.2917758334556
651,643.2272583030843
652,643.1614567354695
653,643.1000543046673
654,643.0486724138926
655,643.012195580753
656,642.9941779618546
657,642.9964354885866
658,643.0189040246871
659,643.0597801329875
660,643.1158886281179
661,643.1831794304969
662,643.25725288436
663,643.3338283906884
664,643.4090933787835
665,643.4799000934422
666,643.5438121731953
667,643.599028099244
668,643.6442226688105
669,643.6783638660372
670,643.700580927427
671,643.7101554676749
672,643.7066630789237
673,643.6902227657854
674,643.6617498888984
675,643.6230839216064
676,643.576891882909
677,643.5263287481012
678,643.4745339397036
679,643.4241068743212
680,643.3767044375985
681,643.3328519909733
682,643.2919911680234
683,643.2527299065958
684,643.2132274621185
685,643.1716363348901
686,643.1265170891053
687,643.0771376635773
688,643.0235855141518
689,642.966671061305
690,642.9076690047181
691,642.8479991580384
692,642.7889619795063
693,642.7316053123951
694,642.6767287039902
695,642.6249712972697
696,642.5769086244346
697,642.5331027134121
698,642.4940872680703
699,642.4603036481177
700,642.4320240059187
701,642.409301932968
702,642.391978922993
703,642.3797550390741
704,642.3723118205229
705,642.3694538020463
706,642.3712162077582
707,642.3778872096324
708,642.3899236701676
709,642.407785415722
710,642.4317450576426
711,642.461728222491
712,642.4972127669246
713,642.537195437661
714,642.5802344303797
715,642.6245761744257
716,642.6683504556459
717,642.7097810607012
718,642.7473471683234
719,642.7798622112756
720,642.8064900937228
721,642.8267535911299
722,642.8405815009783
723,642.8483973151476
724,642.851205174152
725,642.8506070934023
726,642.8486968166915
727,642.8478155383457
728,642.8502106408044
729,642.8576835792696
730,642.8713165415085
731,642.8913275887841
732,642.9170563855132
733,642.9470614923874
734,642.9793115464322
735,643.0114508294529
736,643.0411052671121
737,643.0661811870566
738,643.0851097610538
739,643.0970037741346
740,643.1017137643973
741,643.09979578438
742,643.0924264420798
743,643.0813055261252
744,643.0685631329922
745,643.0566537051475
746,643.0482041534344
747,643.0457985470615
748,643.0517113057107
749,643.0676247057138
750,643.0943809158256
751,643.1318271274489
752,643.1788078259335
753,643.2333281483603
754,643.2928632213789
755,643.3547492623394
756,643.4165822315881
757,643.4765608620498
758,643.5337267029315
759,643.5880683748568
760,643.6404708494942
761,643.6925029436796
762,643.7460520911665
763,643.8028478901921
764,643.863967676195
765,643.9294599323075
766,643.9982119693241
767,644.0681173388016
768,644.136505501387
769,644.2007270619403
770,644.2587530580207
771,644.3096384764676
772,644.3537238461629
773,644.392516133648
774,644.428290560107
775,644.4635442825925
776,644.5004599327112
777,644.5404927007686
778,644.5841254169258
779,644.6307937274416
780,644.6789740577409
781,644.7264209962884
782,644.77051838365
783,644.8086790715333
784,644.8387116372423
785,644.8590786403823
786,644.8689997950434
787,644.8683975896804
788,644.8577306957271
789,644.8377930188851
790,644.8095487597917
791,644.7740240344472
792,644.7322269018221
793,644.6850659828195
794,644.6332714840048
795,644.5773439786705
796,644.5175474974408
797,644.453943612055
798,644.3864524890507
799,644.3149269120094
800,644.2392266661176
801,644.1592791682932
802,644.0751141681044
803,643.9868708980798
804,643.8947868981934
805,643.7991751587349
806,643.7003837226702
807,643.5987330845792
808,643.4944539797762
809,643.3876804796696
810,643.2785569167112
811,643.1674752841851
812,643.055384347369
813,642.9440445914508
814,642.8360927301794
815,642.7348376841038
816,642.6438047057885
817,642.5661336467521
818,642.5039898306342
819,642.4581435158224
820,642.4278214324631
821,642.4108588121617
822,642.4041103911263
823,642.4040261809549
824,642.4072653247722
825,642.411217980989
826,642.4143455595325
827,642.4163254909053
828,642.4180482412513
829,642.4215133569559
830,642.4296217264747
831,642.445825664915
832,642.4736194206872
833,642.5159190698322
834,642.5744493443135
835,642.6492836842423
836,642.738655201031
837,642.8390862344427
838,642.9458055011008
839,643.0533582356218
840,643.1562769194658
841,643.2496768376927
842,643.3296769713104
843,643.3936107006076
844,643.4400534864662
845,643.4687307218896
846,643.4803723045748
847,643.4765606917372
848,643.4595929013674
849,643.4323592824093
850,643.3982321149158
851,643.3609421402091
852,643.3244050300402
853,643.2924683292662
854,643.2685919206266
855,643.2555250364804
856,643.2550657721663
857,643.2679726804372
858,643.2940546040994
859,643.3324145253041
860,643.3817750251534
861,643.4407707900932
862,643.508082623821
863,643.582342717474
864,643.661851937462
865,643.7442504658103
866,643.8263131886829
867,643.9039919650696
868,643.9727305181556
869,644.0279831504973
870,644.0658168380952
871,644.0834752111634
872,644.0798103186492
873,644.0555227641266
874,644.0131853323369
875,643.9570532267653
876,643.8926811608037
877,643.8263850508397
878,643.7646176830715
879,643.7133601179246
880,643.6776304137051
881,643.6611668821471
882,643.6662795816999
883,643.6938155579646
884,643.7431729481609
885,643.8123324708913
886,643.8979298203948
887,643.9954242330227
888,644.0994004747869
889,644.2039910761338
890,644.3033614713418
891,644.3921858016412
892,644.4660511221674
893,644.5217473485253
894,644.5574204589866
895,644.5725837376104
896,644.567995488809
897,644.5454266018065
898,644.5073599400054
899,644.4566769397469
900,644.3963887172936
901,644.3294636571835
902,644.2587870678778
903,644.1872487375086
904,644.117901071062
905,644.0540985138462
906,643.9995381135999
907,643.9581569668526
908,643.9338799289039
909,643.930239428447
910,643.9499112932577
911,643.9942346870048
912,644.0628155264012
913,644.1533334986049
914,644.2616452329081
915,644.3821903571246
916,644.5086114841121
917,644.6344537760018
918,644.7538244414596
