frame_number,force
0,881.9651500082791
1,881.9610789850856
2,881.9570249874605
3,881.9530048589365
4,881.9490350795289
5,881.9451315851977
6,881.9413095890283
7,881.9375834060164
8,881.9339662846922
9,881.9304702496581
10,881.927105959112
11,881.9238825806128
12,881.9208076870306
13,881.9178871734483
14,881.9151251954918
15,881.9125241303398
16,881.910084562822
17,881.9078052996758
18,881.9056834149228
19,881.9037143287433
20,881.9018919214517
21,881.9002086832088
22,881.8986558988977
23,881.8972238663309
24,881.8959021450715
25,881.89467983293
26,881.8935458674941
27,881.8924893500931
28,881.891499888556
29,881.8905679528345
30,881.8896852349357
31,881.8888450030003
32,881.8880424394431
33,881.8872749544756
34,881.8865424680154
35,881.8858476542235
36,881.8851961439693
37,881.8845966821461
38,881.8840612390704
39,881.8836050774049
40,881.8832467774753
41,881.8830082245017
42,881.8829145616593
43,881.8829941134692
44,881.8832782847924
45,881.883801441276
46,881.8846007773348
47,881.885716177555
48,881.8871900764531
49,881.889067319634
50,881.8913950272846
51,881.8942224595448
52,881.8976008826967
53,881.9015834346828
54,881.9062249878995
55,881.911582006754
56,881.9177123974885
57,881.9246753483147
58,881.9325311587223
59,881.9413410573551
60,881.9511670074978
61,881.9620714979139
62,881.9741173153768
63,881.9873672949117
64,882.0018840448189
65,882.0177296451602
66,882.0349653197513
67,882.0536510828853
68,882.0738453633406
69,882.095604609455
70,882.1189828797848
71,882.1440314243544
72,882.1707982620742
73,882.1993277603108
74,882.2296602221296
75,882.2618314854121
76,882.2958725365943
77,882.3318091408287
78,882.3696614901182
79,882.4094438712735
80,882.4511643561029
81,882.4948245169044
82,882.5404191712456
83,882.587936161023
84,882.637356171085
85,882.6886525919258
86,882.7417914298138
87,882.796731267131
88,882.8534232757225
89,882.9118112860835
90,882.9718319146351
91,883.0334147498116
92,883.0964825954135
93,883.160951767514
94,883.2267324399007
95,883.2937290326474
96,883.3618406384511
97,883.4309614813734
98,883.5009814027055
99,883.5717863694408
100,883.6432590026402
101,883.7152791253476
102,883.7877243316444
103,883.8604705793016
104,883.9333928085266
105,884.0063655889074
106,884.0792637956738
107,884.151963314417
108,884.2243417705797
109,884.2962792770641
110,884.3676591910427
111,884.4383688698679
112,884.5083004155309
113,884.5773513967683
114,884.6454255373736
115,884.7124333587913
116,884.7782927649806
117,884.8429295580114
118,884.9062778740337
119,884.9682805312572
120,885.028889284
121,885.0880649788807
122,885.1457776103523
123,885.2020062735614
124,885.256739014053
125,885.3099725764413
126,885.3617120570034
127,885.4119704672454
128,885.4607682166262
129,885.5081325231299
130,885.5540967605211
131,885.598699751068
132,885.6419850124057
133,885.6839999671328
134,885.7247951238168
135,885.7644232385092
136,885.8029384666177
137,885.8403955156228
138,885.8768488089488
139,885.9123516700005
140,885.9469555334726
141,885.980709189776
142,886.013658068862
143,886.0458435716389
144,886.077302459037
145,886.108066309312
146,886.1381610533961
147,886.1676065969459
148,886.1964165369858
149,886.2245979805698
150,886.2521514717354
151,886.27907103039
152,886.3053443030337
153,886.330952821305
154,886.3558723609185
155,886.3800733908453
156,886.4035216005855
157,886.42617849213
158,886.4480020227381
159,886.4689472848115
160,886.4889672096945
161,886.5080132831623
162,886.526036261829
163,886.5429868815015
164,886.5588165501708
165,886.5734780195262
166,886.5869260296182
167,886.5991179217305
168,886.6100142149016
169,886.6195791418762
170,886.6277811402899
171,886.6345932945984
172,886.6399937239241
173,886.643965910848
174,886.6464989664759
175,886.6475878282571
176,886.647233389125
177,886.6454425592973
178,886.6422282651026
179,886.6376093918095
180,886.6316106788184
181,886.6242625753537
182,886.6156010633418
183,886.6056674522922
184,886.5945081495282
185,886.5821744085475
186,886.5687220585272
187,886.5542112184598
188,886.5387059996532
189,886.5222742003893
190,886.5049869967014
191,886.486918633474
192,886.4681461200291
193,886.4487489336223
194,886.4288087327861
195,886.4084090805101
196,886.3876351752533
197,886.3665735862259
198,886.3453119885598
199,886.3239388940084
200,886.3025433735671
201,886.2812147697874
202,886.2600423982129
203,886.2391152388778
204,886.2185216198428
205,886.1983488952287
206,886.1786831201522
207,886.1596087242909
208,886.1412081844063
209,886.1235616943959
210,886.1067468301945
211,886.0908382065727
212,886.0759071233016
213,886.0620211989212
214,886.0492439915929
215,886.0376346084536
216,886.027247307162
217,886.0181310952748
218,886.0103293342223
219,886.0038793546724
220,885.9988120890183
221,885.9951517253722
222,885.9929153868844
223,885.9921128405828
224,885.9927462403857
225,885.9948099088828
226,885.9982901621626
227,886.0031651817741
228,886.0094049378489
229,886.0169711672652
230,886.025817410174
231,886.0358891071616
232,886.0471237580392
233,886.0594511419814
234,886.0727935974302
235,886.0870663588981
236,886.1021779466922
237,886.1180306048653
238,886.1345207825766
239,886.1515396544693
240,886.1689736761408
241,886.1867051706982
242,886.2046129417381
243,886.2225729074344
244,886.2404587501651
245,886.2581425761573
246,886.275495579764
247,886.2923887072363
248,886.3086933154219
249,886.3242818217561
250,886.339028342998
251,886.3528093210551
252,886.3655041346175
253,886.3769956949889
254,886.3871710236104
255,886.3959218078724
256,886.4031449315107
257,886.4087429762907
258,886.4126246924149
259,886.4147054358589
260,886.4149075717391
261,886.4131608440186
262,886.4094027130017
263,886.4035786625105
264,886.3956424780416
265,886.3855564957136
266,886.3732918198768
267,886.3588285054318
268,886.342155699691
269,886.3232717382562
270,886.3021841897647
271,886.2789098453945
272,886.2534746506022
273,886.2259135782784
274,886.1962704436472
275,886.164597661482
276,886.1309559456238
277,886.0954139497619
278,886.0580478476752
279,886.0189408513364
280,885.9781826665612
281,885.9358688877693
282,885.8921003355305
283,885.8469823427037
284,885.8006239971049
285,885.7531373508549
286,885.7046366087859
287,885.6552373100419
288,885.6050555177034
289,885.5542070308147
290,885.5028066318832
291,885.4509673811069
292,885.3987999665113
293,885.3464121169529
294,885.2939080827905
295,885.241388187342
296,885.1889484512863
297,885.1366802913547
298,885.0846702928627
299,885.0330000524773
300,884.9817460839083
301,884.930979776165
302,884.8807673925301
303,884.831170098773
304,884.7822440107307
305,884.73404025312
306,884.6866050226793
307,884.639979649825
308,884.5942006546585
309,884.5492997953784
310,884.5053041094692
311,884.4622359500196
312,884.4201130209331
313,884.3789484155191
314,884.3387506632706
315,884.2995237900233
316,884.2612673971759
317,884.223976765623
318,884.1876429889463
319,884.1522531382424
320,884.1177904583928
321,884.084234593573
322,884.0515618389124
323,884.0197454151536
324,883.9887557630258
325,883.9585608533872
326,883.9291265083156
327,883.900416727883
328,883.8723940174689
329,883.8450197108713
330,883.8182542850977
331,883.7920576638683
332,883.7663895085852
333,883.7412094973109
334,883.716477593495
335,883.6921543064327
336,883.6682009448034
337,883.6445798636862
338,883.6212547047501
339,883.5981906288455
340,883.5753545396834
341,883.552715296748
342,883.5302439153612
343,883.5079137519687
344,883.485700673135
345,883.463583207364
346,883.4415426796172
347,883.4195633291017
348,883.3976324112211
349,883.3757402843574
350,883.3538804815489
351,883.3320497665732
352,883.3102481736297
353,883.2884790296831
354,883.2667489583882
355,883.2450678641086
356,883.223448893614
357,883.2019083718227
358,883.1804657071762
359,883.1591432625255
360,883.1379661888813
361,883.1169622216219
362,883.0961614410763
363,883.0755960009824
364,883.0552998289141
365,883.035308302727
366,883.0156579069285
367,882.9963858729974
368,882.9775298080311
369,882.9591273165116
370,882.9412156204432
371,882.9238311838748
372,882.907009348738
373,882.8907839893172
374,882.8751871921479
375,882.8602489674558
376,882.8459969981657
377,882.832456432795
378,882.8196497281174
379,882.8075965455724
380,882.7963137022634
381,882.7858151740791
382,882.776112146024
383,882.7672131034442
384,882.7591239571664
385,882.7518481955823
386,882.7453870576296
387,882.7397397222682
388,882.7349035115027
389,882.7308741042802
390,882.7276457576138
391,882.7252115299533
392,882.7235635011475
393,882.7226929836295
394,882.7225907201287
395,882.7232470635261
396,882.7246521345525
397,882.7267959538459
398,882.7296685468865
399,882.7332600227618
400,882.7375606295142
401,882.7425607894933
402,882.7482511179023
403,882.7546224270652
404,882.7616657183427
405,882.7693721635684
406,882.7777330786776
407,882.7867398935422
408,882.7963841230156
409,882.8066573440394
410,882.8175511823325
411,882.8290573102987
412,882.8411674561796
413,882.8538734237229
414,882.8671671216551
415,882.8810406023943
416,882.8954861090477
417,882.9104961289288
418,882.9260634513047
419,882.9421812272909
420,882.9588430303853
421,882.9760429164886
422,882.9937754822145
423,883.0120359200256
424,883.0308200681774
425,883.0501244523001
426,883.0699463138318
427,883.0902836192947
428,883.1111350446399
429,883.1324999308761
430,883.1543782100696
431,883.1767703029113
432,883.1996769892705
433,883.2230992519962
434,883.2470380935424
435,883.2714943263343
436,883.2964683410373
437,883.3219598604634
438,883.3479676890381
439,883.374489467676
440,883.401521441723
441,883.429058246283
442,883.4570927100958
443,883.4856156773598
444,883.5146158467171
445,883.5440796273546
446,883.5739910126766
447,883.6043314714422
448,883.6350798547708
449,883.6662123162546
450,883.6977022427782
451,883.7295201956995
452,883.7616338648354
453,883.7940080401675
454,883.8266046078494
455,883.8593825778521
456,883.8922981501768
457,883.9253048247416
458,883.9583535572983
459,883.9913929612557
460,884.0243695539962
461,884.0572280459593
462,884.0899116706024
463,884.1223625527273
464,884.1545221115559
465,884.186331493767
466,884.2177320308936
467,884.248665715129
468,884.2790756872832
469,884.3089067298453
470,884.3381057568569
471,884.3666222911065
472,884.3944089186513
473,884.4214217112633
474,884.4476206090545
475,884.4729697577683
476,884.4974377973232
477,884.5209980995613
478,884.5436289537103
479,884.5653136982725
480,884.5860407984605
481,884.6058038692934
482,884.6246016464098
483,884.6424379094143
484,884.6593213652168
485,884.6752655001809
486,884.6902884094873
487,884.7044126105733
488,884.7176648458259
489,884.7300758784712
490,884.7416802845763
491,884.752516242549
492,884.7626253191274
493,884.7720522482765
494,884.7808446979014
495,884.7890530195588
496,884.7967299779014
497,884.8039304584507
498,884.8107111537963
499,884.817130229458
500,884.8232469716928
501,884.8291214204797
502,884.8348139913962
503,884.8403850898371
504,884.8458947203655
505,884.8514020935289
506,884.8569652326289
507,884.862640583725
508,884.8684826332607
509,884.8745435384373
510,884.8808727753345
511,884.8875168088942
512,884.8945187877225
513,884.9019182656424
514,884.9097509513596
515,884.9180484874975
516,884.926838260149
517,884.9361432394586
518,884.9459818507809
519,884.9563678754018
520,884.9673103801466
521,884.9788136761962
522,884.990877308525
523,885.0034960781709
524,885.0166600999668
525,885.0303548982894
526,885.0445615427491
527,885.0592568246724
528,885.0744134742312
529,885.0900004176502
530,885.1059830740747
531,885.1223236918082
532,885.1389817232096
533,885.1559142363352
534,885.1730763597238
535,885.1904217552072
536,885.2079031128652
537,885.2254726621001
538,885.2430826925571
539,885.2606860779006
540,885.2782367947257
541,885.2956904288316
542,885.3130046617398
543,885.3301397310744
544,885.3470588583989
545,885.3637286370231
546,885.3801193709598
547,885.3962053561115
548,885.4119650966061
549,885.4273814522167
550,885.4424417156514
551,885.4571376202811
552,885.4714652794094
553,885.4854250579696
554,885.4990213774481
555,885.5122624554891
556,885.5251599827617
557,885.5377287406774
558,885.5499861642058
559,885.5619518545487
560,885.5736470470042
561,885.5850940401996
562,885.5963155943114
563,885.6073343080341
564,885.6181719863447
565,885.6288490125619
566,885.6393837381859
567,885.6497919026696
568,885.6600860933697
569,885.6702752542661
570,885.6803642512666
571,885.6903535021522
572,885.7002386798844
573,885.7100104979737
574,885.7196545851143
575,885.7291514535294
576,885.7384765626
577,885.7476004773531
578,885.7564891200876
579,885.7651041116495
580,885.7734031960956
581,885.7813407396121
582,885.788868292884
583,885.7959352058384
584,885.8024892839167
585,885.8084774747499
586,885.8138465732533
587,885.8185439323731
588,885.8225181665248
589,885.8257198350816
590,885.8281020940146
591,885.8296213049045
592,885.8302375917032
593,885.8299153364976
594,885.8286236065613
595,885.8263365068417
596,885.8230334546334
597,885.8186993757073
598,885.8133248229964
599,885.8069060200389
600,885.7994448318984
601,885.7909486661536
602,885.781430305619
603,885.770907673089
604,885.7594035275797
605,885.746945091989
606,885.733563613556
607,885.7192938603968
608,885.704173559496
609,885.6882427839506
610,885.6715432999391
611,885.6541178864
612,885.6360096419481
613,885.6172612935816
614,885.5979145204757
615,885.5780093046027
616,885.5575833186533
617,885.5366713606027
618,885.515304842828
619,885.493511342053
620,885.4713142149538
621,885.4487322832804
622,885.4257795915404
623,885.4024652390634
624,885.3787932864211
625,885.3547627343003
626,885.330367571714
627,885.3055968900495
628,885.2804350596161
629,885.254861965819
630,885.2288533025066
631,885.2023809200455
632,885.1754132253899
633,885.1479156312256
634,885.1198510511065
635,885.0911804368667
636,885.0618633533254
637,885.0318585839832
638,885.001124760572
639,884.9696210089143
640,884.937307603061
641,884.9041466190517
642,884.8701025792516
643,884.8351430785044
644,884.7992393843695
645,884.7623670053315
646,884.7245062226997
647,884.6856425833834
648,884.6457673514334
649,884.6048779161667
650,884.562978154164
651,884.5200787419973
652,884.47619741667
653,884.4313591812787
654,884.3855964535215
655,884.3389491537386
656,884.2914647276443
657,884.2431980978799
658,884.1942115384788
659,884.1445744671661
660,884.0943631520355
661,884.0436603316996
662,883.9925547510493
663,883.9411406173956
664,883.8895169834656
665,883.8377870647037
666,883.7860574989796
667,883.7344375572854
668,883.6830383146457
669,883.6319717915037
670,883.5813500768902
671,883.5312844451022
672,883.4818844772869
673,883.433257198595
674,883.3855062407808
675,883.3387310398057
676,883.2930260783492
677,883.2484801836929
678,883.2051758914666
679,883.163188885004
680,883.1225875188022
681,883.0834324329851
682,883.0457762636787
683,883.0096634516583
684,882.9751301486094
685,882.9422042174933
686,882.9109053214676
687,882.8812450948036
688,882.8532273889889
689,882.8268485872495
690,882.8020979805767
691,882.7789581978369
692,882.75740568209
693,882.7374112052948
694,882.7189404141665
695,882.7019544007533
696,882.6864102919102
697,882.6722618517703
698,882.6594600904544
699,882.6479538713775
700,882.6376905096546
701,882.6286163554569
702,882.6206773578681
703,882.6138196059758
704,882.6079898441633
705,882.6031359580054
706,882.5992074264404
707,882.5961557357381
708,882.5939347512959
709,882.5925010440418
710,882.5918141688574
711,882.5918368931762
712,882.5925353750907
713,882.5938792919588
714,882.5958419221344
715,882.5984001836144
716,882.6015346341426
717,882.6052294378453
718,882.6094723034511
719,882.6142543980404
720,882.6195702384424
721,882.6254175609843
722,882.6317971700308
723,882.6387127662296
724,882.6461707556502
725,882.6541800406497
726,882.6627517925283
727,882.6718992053206
728,882.6816372295615
729,882.6919822845397
730,882.7029519473871
731,882.714564617808
732,882.7268391590534
733,882.7397945189055
734,882.7534493378868
735,882.7678215543954
736,882.7829280173696
737,882.7987841162836
738,882.8154034362494
739,882.8327974440725
740,882.8509752105257
741,882.8699431746921
742,882.8897049566606
743,882.9102612242075
744,882.9316096177467
745,882.9537447365501
746,882.9766581878541
747,883.000338698083
748,883.0247722820138
749,883.0499424624757
750,883.075830531012
751,883.1024158386101
752,883.12967610463
753,883.157587731563
754,883.1861261136635
755,883.2152659289367
756,883.2449814061981
757,883.2752465615088
758,883.3060354007348
759,883.3373220867963
760,883.3690810711499
761,883.4012871894088
762,883.4339157212281
763,883.4669424150713
764,883.5003434793102
765,883.5340955419697
766,883.5681755820035
767,883.6025608351813
768,883.6372286774887
769,883.672156488496
770,883.7073214969084
771,883.7427006108028
772,883.7782702356185
773,883.8140060833412
774,883.849882976349
775,883.8858746492542
776,883.9219535519342
777,883.9580906567777
778,883.9942552727852
779,884.030414868605
780,884.0665349062149
781,884.1025786870312
782,884.1385072125472
783,884.1742790618345
784,884.2098502883123
785,884.24517433819
786,884.2802019928771
787,884.3148813373116
788,884.3491577556528
789,884.3829739553269
790,884.4162700199518
791,884.4489834909675
792,884.4810494770898
793,884.5124007907184
794,884.5429681113869
795,884.5726801773562
796,884.6014640066397
797,884.6292451481336
798,884.6559479628725
799,884.6814959353395
800,884.705812015279
801,884.7288189911842
802,884.7504398968053
803,884.7705984509491
804,884.7892195285663
805,884.8062296584856
806,884.8215575411672
807,884.8351345790937
808,884.8468954130166
809,884.8567784588148
810,884.864726441105
811,884.8706869196782
812,884.8746128031288
813,884.8764628419268
814,884.8762020921589
815,884.8738023413672
816,884.8692424883936
817,884.8625088692309
818,884.8535955211329
819,884.84250437864
820,884.8292453979051
821,884.8138366088168
822,884.7963040965614
823,884.7766819148629
824,884.7550119328534
825,884.7313436175518
826,884.7057337549268
827,884.6782461142024
828,884.6489510616857
829,884.6179251313595
830,884.5852505598622
831,884.5510147936726
832,884.5153099766326
833,884.4782324262411
834,884.4398821070733
835,884.4003621088453
836,884.359778135037
837,884.3182380060312
838,884.2758511789738
839,884.2327282853676
840,884.1889806867932
841,884.1447200487029
842,884.1000579313883
843,884.0551053958313
844,884.0099726206677
845,883.9647685256294
846,883.9196003968722
847,883.8745735102551
848,883.8297907495513
849,883.7853522176632
850,883.7413548404734
851,883.6978919649517
852,883.655052955079
853,883.612922790384
854,883.5715816721328
855,883.5311046417642
856,883.4915612155382
857,883.4530150387885
858,883.4155235626669
859,883.3791377458987
860,883.3439017838379
861,883.3098528670005
862,883.2770209713619
863,883.2454286831603
864,883.2150910617736
865,883.1860155450181
866,883.1582019014139
867,883.1316422335813
868,883.1063210365038
869,883.0822153141982
870,883.0592947578992
871,883.0375219878083
872,883.0168528590909
873,882.9972368319171
874,882.9786174051653
875,882.960932613379
876,882.9441155858057
877,882.9280951647094
878,882.9127965782174
879,882.8981421612167
880,882.884052116289
881,882.8704453054497
882,882.8572400630021
883,882.8443550204088
884,882.8317099351445
885,882.8192265158682
886,882.806829235384
887,882.794446121393
888,882.7820095140244
889,882.7694567790212
890,882.7567309659557
891,882.7437814016769
892,882.7305642104077
893,882.7170427536408
894,882.7031879850182
895,882.688978717179
896,882.674401798946
897,882.6594522027212
898,882.644133024006
899,882.6284553971313
900,882.6124383328576
901,882.5961084842834
902,882.5794998478184
903,882.562653406043
904,882.5456167191645
905,882.5284434717332
906,882.5111929814439
907,882.4939296769727
908,882.4767225513673
909,882.4596445963039
910,882.4427722208127
911,882.4261846564397
912,882.409963349784
913,882.3941913430926
914,882.3789526439999
915,882.3643315864693
916,882.3504121863277
917,882.3372774960231
