frame_number,force
0,652.8333100000588
1,652.7434393246227
2,652.6489649685291
3,652.5458727512673
4,652.431231954115
5,652.3035333649522
6,652.1628569504687
7,652.0108839863889
8,651.850773800211
9,651.6869226550937
10,651.5246269522179
11,651.3696784841064
12,651.2279136801775
13,651.1047279221103
14,651.0045674881711
15,650.9304323594037
16,650.8834544712598
17,650.8626395935661
18,650.8648558395535
19,650.8851108155244
20,650.9170987759351
21,650.9539418140333
22,650.9890096797644
23,651.0166907479007
24,651.0330050207964
25,651.0359886323961
26,651.0258212369367
27,651.004702316003
28,650.9765093754185
29,650.9462915159638
30,650.9196601283384
31,650.9021305826648
32,650.8984571405484
33,650.9120060604552
34,650.9442299711693
35,650.99432489778
36,651.0591550211744
37,651.1335073391332
38,651.210681947686
39,651.2833481939011
40,651.3445358748921
41,651.3886054240222
42,651.4120477143281
43,651.4139916996568
44,651.3963420633753
45,651.3635273461678
46,651.3219054560115
47,651.2789309971358
48,651.2422135957979
49,651.2185841098413
50,651.2132652015721
51,651.2292407962348
52,651.2669215123389
53,651.3241768400609
54,651.3967454376452
55,651.4789692481219
56,651.5647419358855
57,651.6485129810965
58,651.72615505112
59,651.7955170056514
60,651.8565623940656
61,651.9111004343775
62,651.962199865483
63,652.0134099304089
64,652.0679148795651
65,652.1277504882543
66,652.193219457512
67,652.2626328715561
68,652.3324517696481
69,652.3978128772785
70,652.4533348866702
71,652.4940516882807
72,652.5163112376041
73,652.5185002223411
74,652.5014916901467
75,652.4687530984779
76,652.4260913058143
77,652.3810543748768
78,652.3420601718698
79,652.3173693327121
80,652.314050783552
81,652.3370901647417
82,652.3887606776328
83,652.4683205712198
84,652.5720445767388
85,652.6935594670147
86,652.8244377627869
87,652.9549930648116
88,653.0752022114161
89,653.175653381474
90,653.2484019668107
91,653.287631051839
92,653.2900626439286
93,653.2551199192592
94,653.1848697033445
95,653.0837755771403
96,652.958284061895
97,652.8162682272659
98,652.6663688238718
99,652.5172926963837
100,652.3771401143678
101,652.2528298128505
102,652.1496723816342
103,652.0711165406492
104,652.0186673448028
105,651.9919543964384
106,651.9889154978022
107,652.0060595291694
108,652.0387771409352
109,652.0816741539977
110,652.1289133963006
111,652.1745675926063
112,652.2129987179899
113,652.2392763676329
114,652.249628635315
115,652.2418872568563
116,652.2158471247344
117,652.1734273341036
118,652.1185335214658
119,652.0565950817709
120,651.9938497764574
121,651.9365141572342
122,651.8899849541035
123,651.858184225331
124,651.8431261412424
125,651.8447622336387
126,651.8611404964868
127,651.8888694667024
128,651.923811733502
129,651.9618695067235
130,651.9996987504569
131,652.0352103168823
132,652.0677760213803
133,652.0981296022336
134,652.1280124463542
135,652.1596535277545
136,652.1951971030713
137,652.2361972795093
138,652.2832746151223
139,652.3359831682588
140,652.3928909733138
141,652.4518427344909
142,652.5103427030126
143,652.5659721907675
144,652.6167571298128
145,652.6614254394955
146,652.6995213158915
147,652.7313669369563
148,652.7578931956949
149,652.780399567615
150,652.8003232954355
151,652.8190758392196
152,652.8379503001537
153,652.8580566002861
154,652.8802312847941
155,652.9048920376788
156,652.9318425094065
157,652.960065740374
158,652.9875653166197
159,653.0113177121384
160,653.027389384256
161,653.0312489102515
162,653.0182644797165
163,652.984328031036
164,652.9265099787872
165,652.8436373931294
166,652.736701364517
167,652.6090264343114
168,652.4661709006424
169,652.3155684602505
170,652.1659600259171
171,652.0266860120536
172,651.9069086565386
173,651.8148233509598
174,651.7569160851882
175,651.7373335958245
176,651.7574386039172
177,651.8156134541382
178,651.9073526616888
179,652.0256493207586
180,652.1616351366588
181,652.3053987264292
182,652.4468990016709
183,652.576892009702
184,652.6877718736154
185,652.7742032817278
186,652.833438351976
187,652.8652775336265
188,652.871719527467
189,652.8564071112606
190,652.8239919892999
191,652.7795161169371
192,652.727864428261
193,652.6733128450833
194,652.6191865308239
195,652.5676452691439
196,652.5196087361735
197,652.4748217033236
198,652.4320490908689
199,652.3893900939396
200,652.3446997570301
201,652.2960867579861
202,652.2424136887864
203,652.1836872357404
204,652.1212266182948
205,652.0575478705198
206,651.995973803026
207,651.9400430278353
208,651.8928310864723
209,651.8563137765422
210,651.8308988797381
211,651.8152214224315
212,651.8062419189267
213,651.7996302691716
214,651.7903790846171
215,651.7735599385747
216,651.7451026435017
217,651.702460129679
218,651.6450472327064
219,651.5744012715717
220,651.4940681527515
221,651.4092520491199
222,651.326289474516
223,651.2520258600977
224,651.1931776096907
225,651.1557511749556
226,651.1445682539851
227,651.1629231018387
228,651.2123815573234
229,651.2927196354193
230,651.4019885039095
231,651.5366847236585
232,651.6919997932234
233,651.8621166168753
234,652.0405167522632
235,652.2202725742306
236,652.394323344376
237,652.555761417838
238,652.6981686941732
239,652.8160286698053
240,652.9051948400809
241,652.9633455488541
242,652.9903252078835
243,652.9882685032027
244,652.9614305166733
245,652.9157099302435
246,652.8579383800635
247,652.7950701760774
248,652.7334116219498
249,652.6779907365004
250,652.6321240248251
251,652.5972130572212
252,652.5727917539317
253,652.5568205386512
254,652.5461830016187
255,652.5373051643761
256,652.5268000640654
257,652.5120381671921
258,652.4915540027677
259,652.4652230863924
260,652.4341815995743
261,652.4005140782748
262,652.3667933110826
263,652.3355953420823
264,652.3091035113032
265,652.2888638511345
266,652.2756952221912
267,652.2697200823968
268,652.2704694214494
269,652.2770205855437
270,652.2881431655455
271,652.3024476618726
272,652.3185411745828
273,652.335184712909
274,652.3514267794756
275,652.3666809162479
276,652.380730366975
277,652.3936643293913
278,652.4057614539122
279,652.4173419716632
280,652.4286189797564
281,652.4395874705835
282,652.4499860765135
283,652.4593490575556
284,652.4671432849034
285,652.4729669363884
286,652.4767752452444
287,652.4790868804989
288,652.4811104826447
289,652.4847311887613
290,652.4923292884189
291,652.5064548798042
292,652.5294180088309
293,652.5628550188115
294,652.6073162947429
295,652.6619179028916
296,652.7241161294274
297,652.7896760935074
298,652.8528883352639
299,652.9070412904596
300,652.945105117663
301,652.9605432695696
302,652.9481474426694
303,652.9047846046384
304,652.8299476542899
305,652.7260162546708
306,652.5981680937708
307,652.453935363912
308,652.3024652922775
309,652.1535916954906
310,652.0168378940544
311,651.9004612796156
312,651.8106410671895
313,651.7509056646899
314,651.7218787763745
315,651.7213858046968
316,651.7449089867669
317,651.7863216397595
318,651.8387819289682
319,651.8956376718269
320,651.9511978748144
321,652.0012653393416
322,652.0433779506891
323,652.0767539056314
324,652.1019828192665
325,652.1205575582178
326,652.1343787044825
327,652.1453532222164
328,652.155150160534
329,652.1651040495796
330,652.1762131240205
331,652.1891798939421
332,652.2044660368846
333,652.2223521338693
334,652.2429917825889
335,652.2664339056835
336,652.292573000418
337,652.3209998438226
338,652.3507797505528
339,652.3802554626985
340,652.4069999247516
341,652.4280006763677
342,652.4400693169234
343,652.4403878219694
344,652.4270649282374
345,652.3995905357748
346,652.3591271421826
347,652.3086287796311
348,652.252799881737
349,652.1978963348189
350,652.1513503637499
351,652.12119769585
352,652.1153152796471
353,652.1405309978102
354,652.2017134350185
355,652.3009681092602
356,652.437058936379
357,652.6051495076077
358,652.796920890218
359,653.001075783092
360,653.2041946342337
361,653.3918775401766
362,653.5500838904879
363,653.6665567077364
364,653.7321852408152
365,653.7421344463053
366,653.6965787015489
367,653.6009258823545
368,653.4654868233622
369,653.3046076680193
370,653.1353318755921
371,652.9757085109201
372,652.8429203167301
373,652.7514505810759
374,652.7115190938476
375,652.7279914037352
376,652.7999115894536
377,652.9207315844438
378,653.0792123283976
379,653.2608686358171
380,653.4497489448612
381,653.6303033952702
382,653.7890953829933
383,653.9161411919656
384,654.005720200462
385,654.0565846396888
386,654.0715930831861
387,654.0568707290553
388,654.0206543481512
389,653.9720124252933
390,653.9196370705821
391,653.8708749738219
392,653.8310974344693
393,653.8034182836573
394,653.7886884235367
395,653.7856654903928
396,653.7912870648306
397,653.8010344624154
398,653.8094090011585
399,653.8105221504834
400,653.7987446586353
401,653.769319390907
402,653.7188486383341
403,653.6456048923748
404,653.5496523705474
405,653.4327889025502
406,653.2983321499167
407,653.1507923039321
408,652.9954873889067
409,652.8381503622892
410,652.684555687134
411,652.5401796311481
412,652.4099057366171
413,652.2977782572095
414,652.2067912090923
415,652.1386995828314
416,652.0938630708137
417,652.0711644905967
418,652.0680570066338
419,652.0807725120528
420,652.1046788528758
421,652.1347342633549
422,652.16597541652
423,652.193985048859
424,652.2152929116004
425,652.227659949397
426,652.2301953338731
427,652.2232792831442
428,652.2083087516365
429,652.1873222036622
430,652.1625733316865
431,652.1361157750559
432,652.109447689488
433,652.0832548679643
434,652.0572819530119
435,652.0303479199689
436,652.000502031274
437,651.9652952013764
438,651.9221326532077
439,651.8686830759654
440,651.8033297946819
441,651.725633754406
442,651.6367349599195
443,651.5395844813477
444,651.4389144368729
445,651.3409189782706
446,651.2526927478083
447,651.1815162688126
448,651.1340872225969
449,651.1157854789358
450,651.1300364188486
451,651.1778163678505
452,651.2573487963397
453,651.3640677465158
454,651.4909325551005
455,651.6291266628884
456,651.7690771427832
457,651.9016413595738
458,652.0192589414413
459,652.1168644322905
460,652.1923920803977
461,652.2467794123864
462,652.28348751883
463,652.3076781192012
464,652.3252692004999
465,652.3420866692644
466,652.3632443867268
467,652.3927742694225
468,652.4334484701078
469,652.4867107092056
470,652.5526555201668
471,652.6300381284468
472,652.716337433573
473,652.8079113903171
474,652.9002740786091
475,652.9884979990967
476,653.0677185476221
477,653.1336965695936
478,653.1833761322019
479,653.2153556569094
480,653.23018040376
481,653.2303801360542
482,653.2202249629985
483,653.2052408182475
484,653.1915856420505
485,653.1854114321983
486,653.1923139739276
487,653.2169146865161
488,653.2625629179195
489,653.3311227933425
490,653.4228202424371
491,653.5361566525404
492,653.6679259429541
493,653.8133870511258
494,653.966635400493
495,654.1211797679839
496,654.2706674113432
497,654.409633515318
498,654.5341202371615
499,654.6420396757517
500,654.7332302862002
501,654.8092369491552
502,654.8728929007202
503,654.9277900725705
504,654.9777182970239
505,655.0261525579558
506,655.0758579464675
507,655.1286474782623
508,655.1852819064171
509,655.245472135676
510,655.3079464444606
511,655.370564337294
512,655.4304727590592
513,655.4842972091236
514,655.5283539340616
515,655.5588783518654
516,655.5722829490599
517,655.5654595396287
518,655.5361154113176
519,655.4831028852925
520,655.4066961369018
521,655.3087848469037
522,655.1929620033117
523,655.0644684422106
524,654.9299398969791
525,654.7969174814464
526,654.6731408208416
527,654.5657175475496
528,654.4803124457657
529,654.4205024813486
530,654.3874046726683
531,654.3796215879855
532,654.3934875570119
533,654.4235528281065
534,654.4632171325471
535,654.5054186521072
536,654.5432959411005
537,654.5707604911976
538,654.5829381151287
539,654.5764551621373
540,654.5495645290678
541,654.5021304177704
542,654.4355099639467
543,654.3523655322466
544,654.2564152997155
545,654.1521135097319
546,654.0442727989838
547,653.9376845382144
548,653.8368141537153
549,653.7456224619424
550,653.6675135318497
551,653.605372894209
552,653.5616472919745
553,653.5384121897131
554,653.5373705171136
555,653.5597414678257
556,653.606038092323
557,653.6757795331423
558,653.7672167559356
559,653.8771577676066
560,654.0009573070695
561,654.1326975199252
562,654.2655485032666
563,654.3922714896861
564,654.5058127329711
565,654.5999296929625
566,654.669787966811
567,654.7124607928922
568,654.7272543401874
569,654.7157865536707
570,654.6817781382103
571,654.6305648249541
572,654.5683909790462
573,654.5015831813871
574,654.4357259013407
575,654.374964583503
576,654.3215356279044
577,654.2755712069481
578,654.2351719294421
579,654.1967044121358
580,654.1552657681523
581,654.1052529858353
582,654.0409779172644
583,653.9572742958159
584,653.8500438562844
585,653.7166869200705
586,653.556372905696
587,653.37013050623
588,653.1607602859194
589,652.9325854982322
590,652.691070901979
591,652.4423633970612
592,652.1928311044969
593,651.9486785083571
594,651.7156851642127
595,651.4990651717886
596,651.3033986895272
597,651.1325658064679
598,650.9896224975124
599,650.8765906776129
600,650.7941754688416
601,650.7414599919903
602,650.7156541202809
603,650.7119828279552
604,650.7237859216243
605,650.7428643226583
606,650.7600595766776
607,650.7660072693858
608,650.7519706351787
609,650.7106470169425
610,650.6368580830034
611,650.5280770551143
612,650.3847794687832
613,650.2106045778806
614,650.0122947787274
615,649.79936751759
616,649.5834814491509
617,649.377488789297
618,649.1942213349339
619,649.0451289086064
620,648.9389444834283
621,648.880561642291
622,648.870282139231
623,648.90354846586
624,648.9712269756569
625,649.060441993877
626,649.155880873072
627,649.2414155404969
628,649.301842576946
629,649.3245372314157
630,649.3008311968387
631,649.2269450971694
632,649.1043429921144
633,648.9394453831541
634,648.7427369695071
635,648.5274110049737
636,648.3077744905944
637,648.0976744911826
638,647.909180185936
639,647.7516706088021
640,647.6313661326649
641,647.5512482446284
642,647.5112649402416
643,647.5087169529716
644,647.5387457390277
645,647.5948781670304
646,647.6696114879073
647,647.7550392132666
648,647.8435180817196
649,647.928352318102
650,648.0044334114355
651,648.0687490205385
652,648.1206821538956
653,648.162052912805
654,648.1968897605441
655,648.230945571479
656,648.2709956889324
657,648.3239757101863
658,648.396044687663
659,648.4916956965363
660,648.6130597773118
661,648.759532626596
662,648.9277889884016
663,649.112163776482
664,649.3053121746505
665,649.499035630249
666,649.6851670189837
667,649.8564209136797
668,650.0071184703335
669,650.1336976516848
670,650.2349364833788
671,650.311857552466
672,650.3673362637278
673,650.4054872009025
674,650.4309404310898
675,650.4481371396612
676,650.4607673807208
677,650.4714391024273
678,650.4816143841805
679,650.4917938558516
680,650.5018888128827
681,650.5116970343015
682,650.5213880496215
683,650.531899246379
684,650.545146322745
685,650.5639734918661
686,650.5918219243505
687,650.6321681431374
688,650.6878474292025
689,650.760404891218
690,650.8496032327193
691,650.9531764864814
692,651.0668747437065
693,651.1848064270815
694,651.3000477330756
695,651.4054487051659
696,651.4945278679548
697,651.562323804749
698,651.6060683071344
699,651.6255644329004
700,651.6231993042696
701,651.6035921332542
702,651.5729509810283
703,651.5382642591736
704,651.5064774439369
705,651.4837994294542
706,651.4752397302439
707,651.4844036926532
708,651.5134996796479
709,651.5634746314272
710,651.6342013207382
711,651.7246732603351
712,651.8331950829842
713,651.95757271089
714,652.0953081304584
715,652.2437901302086
716,652.40045040302
717,652.5628418799593
718,652.7286114042392
719,652.89537723846
720,653.0605585748572
721,653.221221364074
722,653.3740039633145
723,653.5151731074027
724,653.6408335983622
725,653.7472730420052
726,653.8313764041726
727,653.8910130975482
728,653.9252980737504
729,653.9346605497245
730,653.920707084503
731,653.885921058971
732,653.8332807659102
733,653.7658915169045
734,653.6867131213316
735,653.5984337028103
736,653.503504573253
737,653.4043129159221
738,653.3034363031807
739,653.2039064867181
740,653.1094122195642
741,653.0243867435591
742,652.9539474587435
743,652.9036721297672
744,652.8792050450082
745,652.8857059837417
746,652.927200241753
747,653.0059432148981
748,653.1219425857429
749,653.2727618934276
750,653.4536655257631
751,653.6580829006772
752,653.8782978751611
753,654.106226865042
754,654.3341445363883
755,654.5552478208174
756,654.7640036212715
757,654.9562851171694
758,655.1293508002445
759,655.2817424730439
760,655.4131608512637
761,655.5243299373606
762,655.6168175480091
763,655.6927726404691
764,655.7545767807759
765,655.8044594821031
766,655.8441574995451
767,655.874695851599
768,655.8963508813976
769,655.9088299111951
770,655.911650914135
771,655.9046294026259
772,655.8883212423261
773,655.8642715672522
774,655.8349782062367
775,655.8035622420258
776,655.7732216386286
777,655.7466028773039
778,655.7252414069662
779,655.7091958528317
780,655.6969507168077
781,655.6856000519077
782,655.6712596343511
783,655.6496107256812
784,655.6164772520094
785,655.5683699387827
786,655.5029604264433
787,655.4194565813656
788,655.3188468705049
789,655.2039798849829
790,655.0794473863804
791,654.9512498655448
792,654.8262507660546
793,654.711466248775
794,654.61327546118
795,654.536657086606
796,654.4845573000733
797,654.457476033542
798,654.4533298886471
799,654.467617196221
800,654.4938742330971
801,654.5243693536986
802,654.5509396176058
803,654.5658486138877
804,654.5625477633936
805,654.5362546838741
806,654.4843073848225
807,654.4062966162725
808,654.304010468506
809,654.1812403952244
810,654.043494350496
811,653.8976434354591
812,653.7515037262008
813,653.6133397709149
814,653.4912803990874
815,653.3926604654338
816,653.323337231686
817,653.2870670688067
818,653.2850539899196
819,653.3157848145348
820,653.375235978321
821,653.4574640077361
822,653.555488321953
823,653.6622913800652
824,653.7717413608533
825,653.8792786435744
826,653.9822670146486
827,654.0799802677959
828,654.1732665676324
829,654.263986525829
830,654.3543433754651
831,654.446217050464
832,654.5405865332629
833,654.6370944593289
834,654.7337950147721
835,654.8271267712549
836,654.9121423642467
837,654.9829973774406
838,655.0336636747995
839,655.0587974277752
840,655.0546542264956
841,655.0198991636901
842,654.9561285121879
843,654.8679390323226
844,654.7624689437702
845,654.6484659051525
846,654.5350579755726
847,654.4304641233219
848,654.3408680842878
849,654.2696206303841
850,654.216864258967
851,654.1796041160266
852,654.1521872717063
853,654.1271114402832
854,654.0960615121771
855,654.0510522620771
856,653.9855376816674
857,653.8953476670528
858,653.7793370663012
859,653.6396673638287
860,653.481676195101
861,653.3133310051554
862,653.1443215050128
863,652.9849100994038
864,652.8447026259386
865,652.7315132729191
866,652.6504858055719
867,652.6035959614721
868,652.589590397797
869,652.6043362971377
870,652.6414967281975
871,652.6934163792104
872,652.7520840232111
873,652.8100319803868
874,652.8610551686497
875,652.9006817625298
876,652.9263796687894
877,652.9375184389971
878,652.9351260309544
879,652.921494006163
880,652.8996960901848
881,652.8730897346696
882,652.8448659216879
883,652.8176959815939
884,652.793493054272
885,652.7732719480565
886,652.7570813802972
887,652.7440079648215
888,652.7322833119247
889,652.7195222537141
890,652.7030755309706
891,652.6804300383221
892,652.6495699853094
893,652.6092313736892
894,652.5590270987417
895,652.4994678195181
896,652.4319280708011
897,652.3585927044098
898,652.2823785705004
899,652.206797563565
900,652.1357373993753
901,652.0731718172854
902,652.0228337957919
903,651.9878819852404
904,651.9705870988616
905,651.9720778363715
906,651.9921980519368
907,652.0295173569524
908,652.0815054443756
909,652.1448380863734
910,652.2157667171772
911,652.2904699139989
912,652.3653152576818
913,652.4369816097937
914,652.5024222441697
915,652.5586986878661
916,652.6027781230346
917,652.6314317062971
