frame_number,force
0,583.7006800000515
1,583.793294309806
2,583.8887393714344
3,583.9893731150823
4,584.0966659376304
5,584.2108797060548
6,584.3308545589243
7,584.4539170155308
8,584.575937591877
9,584.6915723858559
10,584.7947048674815
11,584.8790657600255
12,584.9389655858927
13,584.9700390024054
14,584.9698822529065
15,584.9384741113779
16,584.8783078797675
17,584.7942143263367
18,584.6929057217047
19,584.5823118287258
20,584.4708074283409
21,584.3664386101682
22,584.2762347520911
23,584.2056571868969
24,584.1582073628232
25,584.1352073270023
26,584.1357664362698
27,584.1569499112348
28,584.1941584251883
29,584.2417014664991
30,584.2934971655973
31,584.3437824492062
32,584.3877114330572
33,584.4217693693275
34,584.4439961600401
35,584.4540506615168
36,584.4531479321864
37,584.4438890013402
38,584.4299923459201
39,584.4159325008911
40,584.4065003455042
41,584.406322857123
42,584.4194009656534
43,584.4487207354833
44,584.4959658187765
45,584.5613320966876
46,584.6434366806827
47,584.7393188696253
48,584.8445409481153
49,584.9534087274183
50,585.0593361613168
51,585.1553591830668
52,585.2347613857551
53,585.2917307029702
54,585.321944007691
55,585.3229855499327
56,585.294545332764
57,585.238397789058
58,585.1582001728351
59,585.0591612068114
60,584.9476255197882
61,584.8306090030991
62,584.7153057389282
63,584.6085780568429
64,584.516450289982
65,584.4436463648294
66,584.393222049198
67,584.3663405824168
68,584.3622329370189
69,584.378370288505
70,584.4108506908557
71,584.4549649134422
72,584.5058637743988
73,584.5592118190738
74,584.6116976679534
75,584.661295013069
76,584.7072247849143
77,584.7496358317516
78,584.7890821109567
79,584.8259217472374
80,584.8597838737802
81,584.8892298375434
82,584.9116832416299
83,584.9236425780385
84,584.9211428973069
85,584.9004040357933
86,584.8585784617986
87,584.7944799881662
88,584.7091486803744
89,584.6061141566782
90,584.491269628013
91,584.3723489304658
92,584.2580839992664
93,584.1571851179323
94,584.0773122101508
95,584.0241931165881
96,584.0010106701866
97,584.0081350714689
98,584.0432220090717
99,584.1016365136018
100,584.1771120628322
101,584.2625261867092
102,584.3506748134491
103,584.4349540529863
104,584.5098925326462
105,584.5715057364631
106,584.6174654875963
107,584.6470939585272
108,584.6612027810517
109,584.6618087273591
110,584.6517682415177
111,584.6343761649439
112,584.6129692260997
113,584.5905725536326
114,584.569628792323
115,584.5518408389205
116,584.538133469691
117,584.5287079031368
118,584.5231462399219
119,584.5205317094355
120,584.5195784013266
121,584.5187844953228
122,584.5166182490312
123,584.5117288511468
124,584.5031648806448
125,584.4905807783691
126,584.4744049402302
127,584.4559294909094
128,584.4372711043725
129,584.42116117015
130,584.4105643011119
131,584.4081875186234
132,584.4159957723422
133,584.4348578744264
134,584.4644038191708
135,584.5031089674299
136,584.548567942527
137,584.5978902216947
138,584.6481303256503
139,584.6966618527848
140,584.7414338202433
141,584.7811034401655
142,584.8150812134796
143,584.84352008665
144,584.8672431602852
145,584.887576609314
146,584.9060665216648
147,584.9241051552632
148,584.9425408548827
149,584.961362770116
150,584.9795294294772
151,584.9949727146409
152,585.0047821238755
153,585.0055607480427
154,584.9939285507653
155,584.9671190963585
156,584.9235759176271
157,584.8634212324218
158,584.7886682067598
159,584.7030957351152
160,584.6117934251141
161,584.5204822393993
162,584.434784444813
163,584.3596258132768
164,584.2988953281347
165,584.2553831526249
166,584.2309121648279
167,584.2265240591195
168,584.2425994188926
169,584.2788537003829
170,584.3342131631397
171,584.4066213276236
172,584.4928621426986
173,584.5885014073274
174,584.6880278140579
175,584.7852240947873
176,584.8737370689751
177,584.9477599305585
178,585.0027046572501
179,585.0357406409963
180,585.0461120908808
181,585.0352081888424
182,585.0064178293605
183,584.9648259637224
184,584.9167946876661
185,584.8694449919385
186,584.8300470321759
187,584.8053435046421
188,584.8008550622287
189,584.8202369256479
190,584.864768883513
191,584.9330591080428
192,585.0210209008067
193,585.1221464496207
194,585.2280565392259
195,585.3292541292933
196,585.4159745481909
197,585.4790290415193
198,585.5105756723016
199,585.5047918221888
200,585.458439894982
201,585.3713077089761
202,585.2464826796839
203,585.0904052070373
204,584.912650645981
205,584.7254055426664
206,584.5426304568646
207,584.3789451526941
208,584.2483269368207
209,584.1627566103052
210,584.1309632931212
211,584.157415682927
212,584.2416955003846
213,584.3783661739441
214,584.5573988535378
215,584.7651316638012
216,584.9856397143659
217,585.2023204139891
218,585.3994733569758
219,585.5636741630482
220,585.684792332772
221,585.7565695717163
222,585.7767434681542
223,585.7467589218171
224,585.6711512013361
225,585.5567140242947
226,585.411585026182
227,585.2443829620227
228,585.0635114228617
229,584.8767043133462
230,584.6908311524396
231,584.5119151362653
232,584.3452699548532
233,584.1956552333654
234,584.0673774756241
235,583.9642964020688
236,583.8897196679567
237,583.846185877497
238,583.8351589607165
239,583.8566917926929
240,583.9091487736965
241,583.9890801471885
242,584.0913075929145
243,584.209231507046
244,584.3353295389694
245,584.461788694321
246,584.5811916638198
247,584.6871610996043
248,584.7748642485278
249,584.8413012537127
250,584.8853378055761
251,584.9074895794485
252,584.9095171811932
253,584.8939329072115
254,584.8635345597311
255,584.8210584075973
256,584.7689933814686
257,584.7095394139857
258,584.6446435647626
259,584.5760296684685
260,584.5051612346234
261,584.4331278430567
262,584.3604945005235
263,584.2871853913225
264,584.2124828643451
265,584.1352025578755
266,584.0540560517148
267,583.9681516118332
268,583.8775379702281
269,583.7836809572177
270,583.6897749834512
271,583.6008169469977
272,583.5233984674578
273,583.4652019060782
274,583.4342190866308
275,583.4377534198686
276,583.4813219214901
277,583.5676358854205
278,583.6958727293548
279,583.8614176408933
280,584.05615253664
281,584.269243395593
282,584.4882723742287
283,584.7005083244284
284,584.8941162612824
285,585.0591562317054
286,585.1882851693665
287,585.27713049875
288,585.3243492825296
289,585.3314275424852
290,585.3023046300199
291,585.2429099238823
292,585.1606707244322
293,585.0640097332241
294,584.9618200616492
295,584.8628978887257
296,584.7753298165077
297,584.7058666314801
298,584.6593528110151
299,584.6383011519416
300,584.6426892119187
301,584.6700153492683
302,584.7156105914376
303,584.7731752011506
304,584.8354933285765
305,584.895262061213
306,584.945944636353
307,584.98253356697
308,585.0021128070717
309,585.0041461870319
310,584.990469276611
311,584.96499823101
312,584.9331919759175
313,584.9013290552822
314,584.875691699342
315,584.8617703853502
316,584.8635928105115
317,584.8832436079439
318,584.9205999070618
319,584.9732853126116
320,585.0368383276285
321,585.1050817025996
322,585.1706615878705
323,585.2257139382251
324,585.2626146193817
325,585.2747614935178
326,585.2573111357854
327,585.2077681233511
328,585.1263267412323
329,585.0158992844425
330,584.8818230616578
331,584.7313065222185
332,584.5727274393561
333,584.4149035070735
334,584.2664199002082
335,584.1350528409024
336,584.0272994554527
337,583.9480133575701
338,583.9001451599338
339,583.8845927791268
340,583.9001708086746
341,583.9437062935996
342,584.0102662422116
343,584.0935263108925
344,584.1862894355734
345,584.2811407334158
346,584.3711817820202
347,584.4507437972338
348,584.5159577299714
349,584.565075090037
350,584.598489023492
351,584.6184780350515
352,584.6287437349849
353,584.6338212139271
354,584.6384309110048
355,584.6468428671095
356,584.6623333688628
357,584.6868072127818
358,584.7206268397823
359,584.7626472359972
360,584.8104291935512
361,584.860600161832
362,584.9093254111084
363,584.9528225674273
364,584.9878232649394
365,585.0118955082327
366,585.0235928648331
367,585.0224569669514
368,585.0089307631825
369,584.9842314783875
370,584.9502034948946
371,584.9091510788751
372,584.8636534084527
373,584.8163797405211
374,584.7699307054263
375,584.726726791528
376,584.6889570113442
377,584.658592723819
378,584.6374532280391
379,584.62728023493
380,584.6297592595927
381,584.6464381188653
382,584.6785329728048
383,584.7266615066812
384,584.7905810224626
385,584.8690202970351
386,584.9596710300973
387,585.0593563524089
388,585.1643411808558
389,585.2707137483318
390,585.3747610763768
391,585.4732788083496
392,585.5637803103666
393,585.6445869284258
394,585.714791159627
395,585.7740981530983
396,585.8225757616044
397,585.8603706327475
398,585.8874564765435
399,585.9034617835473
400,585.9075973478332
401,585.8986938319782
402,585.8753614403624
403,585.836270380284
404,585.7805148606951
405,585.7079900593108
406,585.6197055189599
407,585.5179784877541
408,585.4064795725606
409,585.2901263911472
410,585.1748328835109
411,585.0671229451619
412,584.9736123718889
413,584.9003674681101
414,584.8521821181799
415,584.8318757915207
416,584.8397632017154
417,584.8734376992813
418,584.9279405716568
419,584.9962953758408
420,585.0703166332856
421,585.1415740320365
422,585.2023872121202
423,585.2467165143303
424,585.2708094628729
425,585.2734939319848
426,585.2560866549488
427,585.2219756886685
428,585.1759913408208
429,585.1236850412741
430,585.0706077484174
431,585.0216470149581
432,584.9804629220839
433,584.94906207284
434,584.9275579165741
435,584.9141697687252
436,584.9054986034932
437,584.8970773189519
438,584.8841300465881
439,584.862413775162
440,584.8289883293179
441,584.7827744891566
442,584.7247985212238
443,584.658077068302
444,584.5871684661805
445,584.5174877373479
446,584.4545288808439
447,584.4031500592604
448,584.3670531109354
449,584.3485295782538
450,584.3484688479713
451,584.3665613919529
452,584.4015996324549
453,584.451776423802
454,584.5148982572584
455,584.5884644752502
456,584.6696100685213
457,584.754956499496
458,584.8404475931484
459,584.9212536650858
460,584.991807418076
461,585.046004512686
462,585.0775719010054
463,585.080576256437
464,585.0500117488406
465,584.9823823451655
466,584.8761915926666
467,584.7322729207339
468,584.5539273136727
469,584.3468714536618
470,584.1190233685701
471,583.8801531119391
472,583.6414094437552
473,583.4147206822677
474,583.2120726504508
475,583.0446834812619
476,582.9221124621228
477,582.8513604035783
478,582.8360522829096
479,582.8758308958312
480,582.9661032753697
481,583.0982463724619
482,583.2602988709394
483,583.4380692022413
484,583.6165107813925
485,583.7811782604524
486,583.9195820648107
487,584.0222861524992
488,584.0836387924992
489,584.1020882812815
490,584.0800987277245
491,584.0237196599991
492,583.9418706340689
493,583.8453949357486
494,583.7459394187803
495,583.6547464261824
496,583.5814906908604
497,583.5333291423582
498,583.5143218810333
499,583.5253129280784
500,583.5642502045571
501,583.6268286464857
502,583.7073023566196
503,583.799326773496
504,583.8967211804069
505,583.9940624781929
506,584.0870467432358
507,584.1726017927062
508,584.2487875029825
509,584.3145559659348
510,584.3694552321036
511,584.413355123282
512,584.4462543379561
513,584.4681973157025
514,584.4792944095051
515,584.4798105437866
516,584.4702764575852
517,584.4515854654925
518,584.4250557026319
519,584.3924471752964
520,584.3559230139708
521,584.3179479205586
522,584.2811305012755
523,584.2480309937637
524,584.2209629853384
525,584.2018192404511
526,584.1919485892893
527,584.1920951338715
528,584.202383807475
529,584.2223191085055
530,584.2507748595624
531,584.2859796243602
532,584.325517182179
533,584.3663575879374
534,584.4049283316078
535,584.4372387970285
536,584.459078819646
537,584.4663106189621
538,584.4552562402832
539,584.4231543791127
540,584.3686309034249
541,584.2921065813955
542,584.1960623403677
543,584.085099073076
544,583.9657607281322
545,583.8461317565011
546,583.7352631334492
547,583.642501424031
548,583.5767776368804
549,583.5458797228349
550,583.5557284043294
551,583.6097167103082
552,583.7082265560018
553,583.8484473768254
554,584.0245659175782
555,584.228301335426
556,584.4496851188403
557,584.6779622831517
558,584.9024993924162
559,585.1135985649206
560,585.3031377251004
561,585.4649980846392
562,585.5952890006188
563,585.6924139954334
564,585.7570262389619
565,585.7918970522796
566,585.8016816017986
567,585.7925435759118
568,585.7716225279221
569,585.7463838835732
570,585.7239388883368
571,585.7104281075398
572,585.7105361956845
573,585.727174221415
574,585.7613410806932
575,585.8121562745478
576,585.8770434919635
577,585.9520405545036
578,586.0322113222904
579,586.1121273313528
580,586.186366692862
581,586.2499612579915
582,586.2987358558306
583,586.3295288964786
584,586.3403323713331
585,586.330405276381
586,586.3003837734453
587,586.2523497359166
588,586.1897663610177
589,586.1171878185417
590,586.0397103664203
591,585.9622244269985
592,585.8886089716425
593,585.8210530089531
594,585.7596777751702
595,585.7025660359385
596,585.6462041519162
597,585.5862438180135
598,585.5184219741486
599,585.4394531211395
600,585.3477307326659
601,585.24373259717
602,585.1300905529615
603,585.0113321827616
604,584.8933326434892
605,584.7825468263045
606,584.6851277350614
607,584.6060621814806
608,584.5484603360194
609,584.5131234838926
610,584.4984833884354
611,584.5009439253314
612,584.515561209418
613,584.5369116166946
614,584.5599662553864
615,584.5808190270254
616,584.5971662421169
617,584.6084837783699
618,584.6158996979976
619,584.6218190460539
620,584.629397455287
621,584.6419571251488
622,584.6624081085961
623,584.6927178748788
624,584.7334781602741
625,584.7836317758519
626,584.840418667609
627,584.8995720461179
628,584.9557498304085
629,585.0031386872897
630,585.0361353631071
631,585.0500084349594
632,585.0414685908349
633,585.00909853213
634,584.9535964681548
635,584.8777876602296
636,584.786382383397
637,584.6855045870767
638,584.58206005105
639,584.4830373715847
640,584.3948405179419
641,584.3227461076497
642,584.270556019559
643,584.2404660992848
644,584.2331105632879
645,584.247707991699
646,584.282248739465
647,584.3337046994285
648,584.398273738274
649,584.4716753470343
650,584.5494954216838
651,584.6275442065286
652,584.7021571587572
653,584.7703653160714
654,584.8299074496887
655,584.8791216436249
656,584.9167907130604
657,584.9420105296707
658,584.9541253443197
659,584.9527478807271
660,584.9378549161287
661,584.9099244474243
662,584.8700701012111
663,584.8201367415793
664,584.7627376674047
665,584.701219307168
666,584.6395260700591
667,584.5819282041781
668,584.5326023172455
669,584.4951172747407
670,584.471935530048
671,584.4640473905638
672,584.4708073417779
673,584.4899726914592
674,584.5178981139904
675,584.5498319417331
676,584.5802815782317
677,584.6034448441791
678,584.6137158547145
679,584.6062519905648
680,584.5775428015039
681,584.525880432098
682,584.4516205292397
683,584.3571599047452
684,584.2466369109719
685,584.125440706948
686,583.9996506036716
687,583.8755120642164
688,583.7590191622027
689,583.655634365316
690,583.5701386783261
691,583.5065708340994
692,583.4681920844007
693,583.4574124888483
694,583.4756388872916
695,583.523048629714
696,583.598340990889
697,583.6985475314493
698,583.8189790204518
699,583.9533586673914
700,584.0941611622055
701,584.233150604939
702,584.3620742325594
703,584.4734201400905
704,584.5611137159968
705,584.6210417836307
706,584.6513506428188
707,584.6525216618068
708,584.6272517868448
709,584.5801631377359
710,584.5173616705416
711,584.4458684357903
712,584.37295004434
713,584.3053787284573
714,584.2486721530331
715,584.2064024053076
716,584.1796990668201
717,584.1670718989749
718,584.1646324523074
719,584.1667155394874
720,584.1668211791052
721,584.1587395722664
722,584.1376881984244
723,584.1012731224296
724,584.0500937551229
725,583.9878598621135
726,583.9209796981744
727,583.8576820750504
728,583.8068222101487
729,583.7765687490668
730,583.7731705132195
731,583.7999728315667
732,583.8568191885017
733,583.9399356260309
734,584.0423325498433
735,584.1546663171868
736,584.2664082714585
737,584.3671096398137
738,584.447552091296
739,584.500637448499
740,584.5219663662805
741,584.5101286372787
742,584.46673542953
743,584.3961868297811
744,584.3051536036268
745,584.2017985971457
746,584.0948408959142
747,583.9926170599105
748,583.9022921373738
749,583.829330891359
750,583.7772749961823
751,583.747797949908
752,583.7409494029163
753,583.75548017326
754,583.7891574387976
755,583.8390141133513
756,583.9015155931461
757,583.9726713894685
758,584.048155851875
759,584.1235036808638
760,584.1944013454478
761,584.2570326812223
762,584.3084022272459
763,584.3465767473658
764,584.3708348862274
765,584.38175232408
766,584.3812431079233
767,584.3725373750295
768,584.3600437280704
769,584.3490518945994
770,584.3452701869614
771,584.3542353772866
772,584.3806663510394
773,584.4278564939372
774,584.4972038281215
775,584.5879511863932
776,584.6971609973391
777,584.8199067728617
778,584.9496456145363
779,585.0787406348074
780,585.1991039237951
781,585.3029062787358
782,585.3832611693339
783,585.4347751677914
784,585.4538857402276
785,585.4389645246264
786,585.390218646839
787,585.3094538915029
788,585.1997748281781
789,585.0653003531786
790,584.910960370147
791,584.7423902577784
792,584.5658695985088
793,584.388215175779
794,584.2165655997622
795,584.0580531121046
796,583.9193970301502
797,583.8064638345658
798,583.7238424994559
799,583.6744870034862
800,583.6594698565658
801,583.6778717333876
802,583.7268179573434
803,583.8016663798055
804,583.8963408508944
805,584.0037839806877
806,584.1164844766781
807,584.2270332940323
808,584.3286755259267
809,584.4158307580456
810,584.484543175493
811,584.5328080084674
812,584.5607238327024
813,584.5704460902742
814,584.565948555492
815,584.552613487155
816,584.5366704848528
817,584.5245140575072
818,584.5219598445999
819,584.5335294093755
820,584.5618614590353
821,584.6073301174388
822,584.6679219136072
823,584.7393966164838
824,584.8157323742763
825,584.8898213563168
826,584.9543368153951
827,585.0026538114182
828,585.0296928719413
829,585.0325687618111
830,585.0109538095944
831,584.9671041296608
832,584.9055508270316
833,584.8325190143137
834,584.7551851578971
835,584.6809004388747
836,584.6164918113628
837,584.5677134286339
838,584.5388720739616
839,584.5326045825531
840,584.5497583147693
841,584.5893284146779
842,584.6484368715422
843,584.7223845027004
844,584.8048435674337
845,584.8882605185119
846,584.964496844489
847,585.0256676153001
848,585.0650720846191
849,585.0780719297735
850,585.0627678698288
851,585.0203508996133
852,584.9550528360804
853,584.8736826417885
854,584.7848007267892
855,584.697646809764
856,584.6209876295779
857,584.5620706805396
858,584.5258470558189
859,584.5145654971816
860,584.5277577283883
861,584.5625555903205
862,584.6142294076716
863,584.6768281572973
864,584.7438270293246
865,584.8087265600202
866,584.865580586532
867,584.9094431376018
868,584.9367144322329
869,584.9453536085883
870,584.9349373369395
871,584.9065768454337
872,584.8627285344586
873,584.8069239343916
874,584.7434212559291
875,584.6767789858814
876,584.6113838912796
877,584.5510063563404
878,584.4984694924023
879,584.4554926675584
880,584.4227227431993
881,584.3999230303592
882,584.3862624643446
883,584.3806355541393
884,584.3819488029044
885,584.3893327236427
886,584.4022693086671
887,584.4206429019217
888,584.4447184098328
889,584.4750385855384
890,584.5122361369401
891,584.5567836319657
892,584.6087365172435
893,584.6675396003607
894,584.7319557136512
895,584.8001409313367
896,584.8698482163479
897,584.9387081425306
898,585.0045177471842
899,585.0654642475464
900,585.1202218870294
901,585.1678918918902
902,585.2078022556326
903,585.2392312065319
904,585.2611469276837
905,585.2720538372502
906,585.2700064472592
907,585.2528074733439
908,585.2183574048571
909,585.1650828970585
910,585.0923571178404
911,585.0008360898497
912,584.892656553087
913,584.7714642060914
914,584.6422690232674
915,584.5111559462125
916,584.3848995864936
917,584.270527069483
