frame_number,force
0,592.5381400000456
1,592.8319610051282
2,593.1175707758298
3,593.3876439250968
4,593.6364428269118
5,593.8602199673297
6,594.0573015377889
7,594.227906639266
8,594.3737859419588
9,594.4977638586003
10,594.6032575191064
11,594.6938272214178
12,594.772787798447
13,594.8428882810646
14,594.9060595350546
15,594.9632388410156
16,595.0142976319111
17,595.0581074619732
18,595.0927665096111
19,595.115974969066
20,595.1255080579458
21,595.1197090890205
22,595.0979214085639
23,595.0607936503343
24,595.0104172187446
25,594.950278647187
26,594.8850306627764
27,594.8201088352628
28,594.7612464656836
29,594.7139592724154
30,594.6830675893469
31,594.6722933938657
32,594.6839381452053
33,594.7186492181879
34,594.7753125580282
35,594.8511236798323
36,594.9418630467796
37,595.042354724696
38,595.1470501665508
39,595.2506607871088
40,595.3487561575389
41,595.4382463710631
42,595.5176799039464
43,595.5873118085437
44,595.6489307472131
45,595.7054744868459
46,595.760499755488
47,595.8175898065978
48,595.8797807428738
49,595.9490797246826
50,596.0261474837525
51,596.1102124062023
52,596.199246233603
53,596.2903627272938
54,596.3803387036446
55,596.4661333605696
56,596.5452975227349
57,596.6162082537737
58,596.6781230640069
59,596.7310972863179
60,596.7758231115417
61,596.8134299543844
62,596.8452612689815
63,596.8726403185511
64,596.8966579244126
65,596.9180329814924
66,596.937084436123
67,596.9538114484358
68,596.9680357102945
69,596.979548783109
70,596.9882318465772
71,596.9941448454551
72,596.9975861022649
73,596.9991066815915
74,596.9994535241151
75,596.9994245849265
76,596.999638148093
77,597.0002373942418
78,597.000576173894
79,596.9989685023189
80,596.9926119206812
81,596.9777767586897
82,596.9502786680155
83,596.9061539743916
84,596.8423883490088
85,596.7575407221301
86,596.652147981615
87,596.5288592736151
88,596.3923069239568
89,596.2487645063012
90,596.1056630635576
91,595.9710288028217
92,595.8528840868111
93,595.7586487996942
94,595.6946047903525
95,595.6655115550373
96,595.6744385157785
97,595.7228060035388
98,595.8105583506169
99,595.936374183873
100,596.0978419730501
101,596.2915622642361
102,596.5131722029266
103,596.7573267514827
104,597.0177044693098
105,597.2871117977334
106,597.5577310471758
107,597.8215105267606
108,598.0706522727208
109,598.2981274986539
110,598.49814981324
111,598.6665572199765
112,598.8010792562844
113,598.901480148772
114,598.9695667415301
115,599.0090371057762
116,599.0251403962495
117,599.0241375171394
118,599.0125969006623
119,598.9966164095597
120,598.9811046247352
121,598.969255352352
122,598.9623066415164
123,598.959618724982
124,598.9590593064349
125,598.9576435489171
126,598.952322033462
127,598.940753986093
128,598.92188534606
129,598.8961961499474
130,598.8655733701316
131,598.8328660928773
132,598.801252633481
133,598.7735690043586
134,598.7517175305585
135,598.7362277806608
136,598.726014668523
137,598.7183697817798
138,598.7092077990608
139,598.6935625291785
140,598.6662947930639
141,598.6229361177928
142,598.5605434312939
143,598.4783981270047
144,598.3783837094703
145,598.2649380148026
146,598.1445795625897
147,598.0251110257184
148,597.914665758993
149,597.8207668717804
150,597.7495258735729
151,597.7050526895415
152,597.6891055475754
153,597.7009813238675
154,597.7376282469444
155,597.7939515460093
156,597.8632797516332
157,597.9379602480433
158,598.0100479348995
159,598.072036581531
160,598.1175649271
161,598.142020131235
162,598.1429685090513
163,598.1203680742923
164,598.0765512128474
165,598.0159959432916
166,597.9449188069653
167,597.8707221436468
168,597.8013307252857
169,597.7444702076016
170,597.7069606399407
171,597.6941034037527
172,597.7092311871634
173,597.7534802538088
174,597.8258286422897
175,597.9234062612304
176,598.042018258442
177,598.1767556583204
178,598.3225413469011
179,598.474500226724
180,598.6281236097925
181,598.779266885188
182,598.9240525549222
183,599.0587621945207
184,599.1798005378092
185,599.2837914208213
186,599.3678178618803
187,599.4297704002358
188,599.4687388132733
189,599.4853709682391
190,599.4821188870377
191,599.463294098946
192,599.4348709939532
193,599.4040171334975
194,599.3783877268353
195,599.365279368772
196,599.3707791595734
197,599.399058244705
198,599.4519319109455
199,599.5287407390015
200,599.6265283575763
201,599.74044405068
202,599.8642933821046
203,599.9911675762286
204,600.1140757808398
205,600.2264904324803
206,600.3227234753606
207,600.3980981268156
208,600.4489517226465
209,600.4725602798278
210,600.4670834864369
211,600.4315878990049
212,600.366141441142
213,600.2719211756619
214,600.1512659923624
215,600.0076355023598
216,599.8454795371282
217,599.6700485483768
218,599.4871700746755
219,599.3029891305698
220,599.1236455968583
221,598.9548651303132
222,598.8014791307577
223,598.666943566387
224,598.5529604156865
225,598.459294386497
226,598.3838259420301
227,598.3228192797576
228,598.2713438570196
229,598.2237847247927
230,598.1743971345923
231,598.1178758985524
232,598.0499035247935
233,597.9676234278999
234,597.8699762354922
235,597.7578493162838
236,597.6340203169121
237,597.5029134423977
238,597.3702140692476
239,597.2423897931345
240,597.1261509113582
241,597.0278708025979
242,596.9529892837414
243,596.9054372587404
244,596.8871393119919
245,596.8976634228302
246,596.9340872581629
247,596.9911347126389
248,597.061603134003
249,597.1370521266591
250,597.2086664170147
251,597.2681569745911
252,597.3085505561105
253,597.324749792317
254,597.3138136801415
255,597.2749833809822
256,597.2095253783679
257,597.1204648526713
258,597.0122526086049
259,596.8903827325931
260,596.7609728284607
261,596.6303270103153
262,596.5045093331822
263,596.3889542495541
264,596.2881344790057
265,596.2053056154847
266,596.1423489903382
267,596.0997225078742
268,596.0765018443503
269,596.0704776503836
270,596.0782867017667
271,596.0955819675595
272,596.1172632521805
273,596.1377900595
274,596.1515877083267
275,596.1535343480399
276,596.1394772594465
277,596.1066884876291
278,596.0541612107069
279,595.9826797666007
280,595.894649450541
281,595.793720422618
282,595.6842704900005
283,595.5708240680386
284,595.4574827168815
285,595.347433941998
286,595.2425993521508
287,595.1434798121306
288,595.0492380218891
289,594.9580158501949
290,594.8674275329445
291,594.7751309108236
292,594.6793739110743
293,594.579432003066
294,594.4758753553728
295,594.3706234704999
296,594.266763945216
297,594.1681405551534
298,594.0787621508434
299,594.0021426804757
300,593.9407261171008
301,593.895540527178
302,593.8661544436056
303,593.8509136446153
304,593.8473643796489
305,593.8527375165298
306,593.8643716187356
307,593.8799850433255
308,593.8977615088143
309,593.9162750612505
310,593.9343243629596
311,593.9507561464712
312,593.9643428771916
313,593.9737602719417
314,593.9776878773423
315,593.9750199372041
316,593.9651296421266
317,593.948099511411
318,593.9248311322434
319,593.8969789216592
320,593.8667004161869
321,593.8362619182412
322,593.8075756735516
323,593.7817723903523
324,593.7589202222882
325,593.7379736584378
326,593.7169794803334
327,593.6935070176993
328,593.6652198077459
329,593.6304660395532
330,593.5887509895073
331,593.540985819633
332,593.4894692679028
333,593.437614113236
334,593.3894651282681
335,593.3490830263042
336,593.3198953654519
337,593.304130093866
338,593.3024428147818
339,593.3138251738753
340,593.3358373137312
341,593.3651391194637
342,593.3982126008239
343,593.432102478371
344,593.4649917689146
345,593.4964826918854
346,593.5275377148596
347,593.5601110747914
348,593.5965530535063
349,593.6389001236548
350,593.6881757940254
351,593.7438212703726
352,593.8033559379955
353,593.8623371841378
354,593.9146463474726
355,593.9530741415891
356,593.9701217083708
357,593.9588859264559
358,593.9138796989606
359,593.8316614535547
360,593.7111987414498
361,593.5539438973252
362,593.3636453784771
363,593.1459519480567
364,592.9078799676352
365,592.657214011053
366,592.4019160515348
367,592.1496252835349
368,591.9073154144234
369,591.6811306532253
370,591.4763700208669
371,591.2975633087434
372,591.1485834997701
373,591.0327504680967
374,590.9528907284395
375,590.9113278332552
376,590.9097809422644
377,590.949151418333
378,591.029207039874
379,591.1482364479967
380,591.3027996543054
381,591.4876944330041
382,591.6961888011324
383,591.92047590711
384,592.15223886175
385,592.3832013118877
386,592.6055853378455
387,592.8124667748514
388,592.9980582220147
389,593.1579370699294
390,593.2891966999977
391,593.3904826704114
392,593.4619011645675
393,593.5048293708205
394,593.5216808072495
395,593.5156724800156
396,593.4906225463947
397,593.4507913640866
398,593.4007593991357
399,593.3453068845337
400,593.2892391299114
401,593.237114812417
402,593.1928882470235
403,593.1595400159647
404,593.1387993364536
405,593.1310392504187
406,593.1353729703447
407,593.149928249398
408,593.1722433038617
409,593.1997137515082
410,593.2300218350296
411,593.261493051583
412,593.2933455542595
413,593.3258162010318
414,593.3601540344542
415,593.3984643536355
416,593.4433808745403
417,593.4975665935821
418,593.5630993872004
419,593.640851776608
420,593.7299878945712
421,593.8276739462343
422,593.9290596832352
423,594.027555759776
424,594.1153988703876
425,594.1844533875453
426,594.2271532251211
427,594.2374606470581
428,594.2117161839473
429,594.1492632712465
430,594.0527456514237
431,593.9280077013079
432,593.7835860783609
433,593.6298480739571
434,593.4778844372629
435,593.3382978672511
436,593.2200497114106
437,593.1295344412642
438,593.0700292456157
439,593.0416015076
440,593.0414585976315
441,593.0646287727145
442,593.1048127707884
443,593.1552566358605
444,593.2095392732974
445,593.2622091078442
446,593.3092332342261
447,593.3482407741058
448,593.3785503746101
449,593.4009808987462
450,593.4174703980661
451,593.4305706515405
452,593.4429228273596
453,593.4568314696251
454,593.4740266142292
455,593.4956428501334
456,593.5223765418154
457,593.5547405522217
458,593.5933292711918
459,593.6390220163563
460,593.6930786042188
461,593.7571132296097
462,593.8329619467763
463,593.9224752734734
464,594.0272744524852
465,594.1485153697491
466,594.2867035197964
467,594.4415847734256
468,594.6121016190108
469,594.796377301609
470,594.9916962173579
471,595.1944846828217
472,595.4003336210869
473,595.6041208675226
474,595.8002790866478
475,595.9832171831389
476,596.1478500353619
477,596.2901465398529
478,596.4075907395079
479,596.4994708621934
480,596.5669515843626
481,596.6129218127999
482,596.6416344456752
483,596.6581752075213
484,596.6678226782072
485,596.6753868507179
486,596.6846273206612
487,596.697844279035
488,596.715705229492
489,596.7373249511342
490,596.7605641778246
491,596.7824659082785
492,596.7997243494945
493,596.8090944548359
494,596.8076993150173
495,596.7932528345996
496,596.7642456604582
497,596.7201238769593
498,596.6614455245186
499,596.5899699630941
500,596.5086382081118
501,596.4214256376479
502,596.3330705746178
503,596.2486983216
504,596.173376963585
505,596.1116575508337
506,596.06715866511
507,596.042249277377
508,596.0378637735746
509,596.053453595571
510,596.087055481966
511,596.1354490685975
512,596.1943817793561
513,596.2588463349733
514,596.3234054560987
515,596.3825686763533
516,596.4312273627736
517,596.4651385211803
518,596.4814218901827
519,596.4790111038061
520,596.4589841293529
521,596.4246903042801
522,596.3816013968953
523,596.3368616847198
524,596.2985925178338
525,596.2750762005554
526,596.2739553978985
527,596.3015354180246
528,596.3622125852439
529,596.458021934859
530,596.5883153404747
531,596.7496216374062
532,596.935763630986
533,597.1382884503109
534,597.3472127300631
535,597.5520160880249
536,597.7427574358254
537,597.9111546570967
538,598.0514685036728
539,598.1610633839747
540,598.2405696352739
541,598.2936364382422
542,598.3263357069904
543,598.3463370623798
544,598.3619992912757
545,598.3815087304105
546,598.4121548261613
547,598.4597879641397
548,598.5284702379428
549,598.620313902666
550,598.735500210833
551,598.8724695128075
552,599.028260078975
553,599.1989467561922
554,599.3801052454676
555,599.567225025172
556,599.7560215257578
557,599.9426390579343
558,600.1237628741236
559,600.2966593531143
560,600.4591516503011
561,600.6095378428348
562,600.7464738314416
563,600.8688541330195
564,600.9757161277201
565,601.0661811798262
566,601.1394470111333
567,601.1948493203441
568,601.2319959990131
569,601.2509491538647
570,601.2524113053425
571,601.237871548001
572,601.209676309149
573,601.1709996872175
574,601.1257008126304
575,601.0780715607207
576,601.0324939581471
577,600.9930412365146
578,600.9630745305399
579,600.9449069634394
580,600.9396082467498
581,600.9469884648463
582,600.9657447573829
583,600.9937160284694
584,601.0281880184547
585,601.0662123766681
586,601.1049231158627
587,601.1418320576688
588,601.1750602224729
589,601.2034374209541
590,601.2264108017905
591,601.2437592475559
592,601.2551963851233
593,601.2600199064354
594,601.2569797222158
595,601.2444619749442
596,601.2209474817546
597,601.18558137751
598,601.1386526134024
599,601.0818298252956
600,601.0180869810966
601,600.9513354027077
602,600.8858473493806
603,600.8256115868766
604,600.7737887391064
605,600.7324097271099
606,600.7023818509841
607,600.6837672571789
608,600.6762232170063
609,600.6794664722568
610,600.693639430546
611,600.7194981826808
612,600.7583975276447
613,600.8121029214522
614,600.8824987262889
615,600.9712760749474
616,601.0796691779414
617,601.2082699546702
618,601.3569049973175
619,601.5245362188783
620,601.7091628079268
621,601.9077391384913
622,602.1161516663983
623,602.3293069607207
624,602.5413759010182
625,602.746213222665
626,602.9379234885017
627,603.1114875162937
628,603.263323951436
629,603.3916572259849
630,603.4965983129522
631,603.5799137913798
632,603.6445472336786
633,603.6940333513337
634,603.7319716588429
635,603.7616820852404
636,603.7860674377363
637,603.8076118670939
638,603.8284074910196
639,603.8501339517379
640,603.8739771952038
641,603.9005190456884
642,603.9296464147299
643,603.9605272612889
644,603.9916841689148
645,604.0211683958514
646,604.046810702421
647,604.0665151941884
648,604.0785692030545
649,604.081950761251
650,604.0766084528972
651,604.0636644508095
652,604.0454720640956
653,604.0254738981843
654,604.0078612842685
655,603.9970994418449
656,603.9974164340582
657,604.0123432014701
658,604.0443543333889
659,604.0946259037939
660,604.1629163772552
661,604.2475804448917
662,604.3457240448045
663,604.453497354949
664,604.5665063510785
665,604.6803014290373
666,604.7908772200642
667,604.8951097262759
668,604.9910764249685
669,605.0782349074501
670,605.1574514183814
671,605.2308721315535
672,605.3016343859842
673,605.3734303721993
674,605.4499581551258
675,605.5343220460734
676,605.628473400668
677,605.7328003262365
678,605.8459614837
679,605.9650105271968
680,606.0857903015893
681,606.2035115094021
682,606.3133855814474
683,606.4111743295176
684,606.4935639642006
685,606.5583514814203
686,606.6044957334533
687,606.6320908234089
688,606.6422787859008
689,606.6370872110276
690,606.619187547353
691,606.591599758736
692,606.5573842390934
693,606.5193571357245
694,606.47985499029
695,606.4405653136342
696,606.4024309612493
697,606.365632283684
698,606.32964915704
699,606.2933918986786
700,606.2553696332972
701,606.2138610810019
702,606.167075050107
703,606.1133185305621
704,606.0512044655179
705,605.9799105486712
706,605.8994487896267
707,605.8108605993109
708,605.7162509951966
709,605.6186136113918
710,605.5214443996708
711,605.428181287677
712,605.3415467407605
713,605.2629122296875
714,605.1918303799359
715,605.1258694240856
716,605.0608281960873
717,604.9913214748468
718,604.9116340792348
719,604.8166802818149
720,604.7028884061873
721,604.5688514946763
722,604.4156314866674
723,604.2466737746889
724,604.0673778512322
725,603.8844536805683
726,603.7052290492843
727,603.537035090962
728,603.3867129567415
729,603.2602156057111
730,603.1622634956972
731,603.0960419981317
732,603.0629693780221
733,603.0625906271649
734,603.0926474525013
735,603.1493347167288
736,603.2277000416275
737,603.3221130546015
738,603.4267406920757
739,603.5359926179774
740,603.6449115457791
741,603.7494721571053
742,603.846746327189
743,603.9349121974802
744,604.0131213588525
745,604.0812697505506
746,604.1397294417737
747,604.1890870072261
748,604.2299077867885
749,604.2625224271026
750,604.2868283213259
751,604.3021116899395
752,604.3069117027298
753,604.2989603323003
754,604.275243663311
755,604.2322317105584
756,604.1662934074965
757,604.0742540324322
758,603.9539977674206
759,603.8049981806981
760,603.6286743638184
761,603.4285063624432
762,603.209894675284
763,602.9798064241422
764,602.7462895119306
765,602.5179362589446
766,602.303350991485
767,602.1106452611227
768,601.9469613874343
769,601.8180154372739
770,601.72766185175
771,601.6775142608439
772,601.666694838261
773,601.6917987635766
774,601.7471295303407
775,601.8251950598062
776,601.9173923730341
777,602.0147827744868
778,602.1088680812779
779,602.1922962277765
780,602.2594380938672
781,602.3067918539459
782,602.333187671336
783,602.3397753411424
784,602.3297820994368
785,602.3080433823146
786,602.28034296739
787,602.2526383199263
788,602.2302736230356
789,602.2172839718137
790,602.2158719765007
791,602.2261132447436
792,602.245932069806
793,602.271363864057
794,602.297067366981
795,602.3169911475945
796,602.3250797696752
797,602.3159331205433
798,602.2853741944213
799,602.2309045123169
800,602.1520254503089
801,602.0503864295822
802,601.9297047075128
803,601.7954118088321
804,601.6540357913809
805,601.5124103038654
806,601.3768613014245
807,601.2525201570405
808,601.1428550500414
809,601.0494434940905
810,600.9719647374583
811,600.9083777092769
812,600.8552500205676
813,600.808199863229
814,600.7624049690622
815,600.7131286416453
816,600.6562181229665
817,600.5885432479392
818,600.5083523031916
819,600.4155196740872
820,600.3116526325108
821,600.2000243005218
822,600.0853133793207
823,599.973158853187
824,599.8695739028515
825,599.7803001018768
826,599.7102121496508
827,599.6628907750935
828,599.6404500245965
829,599.643632945829
830,599.6721056279221
831,599.7248272140771
832,599.8003707616512
833,599.897100760361
834,600.013159963278
835,600.1462747928799
836,600.2934447740561
837,600.4506207071988
838,600.6124874633249
839,600.7724466446244
840,600.922845448126
841,601.0554357673476
842,601.1619938102234
843,601.2350035881298
844,601.2683158095276
845,601.2577279402386
846,601.2014615115054
847,601.1005096757247
848,600.9587952694361
849,600.7830557332067
850,600.5823938378508
851,600.3675041215952
852,600.1496703165991
853,599.9396909377855
854,599.7469103256931
855,599.5785062606506
856,599.4391159224582
857,599.3307909805729
858,599.2532002279598
859,599.2039766528645
860,599.1791310746933
861,599.173492966906
862,599.1811643284706
863,599.1959804777202
864,599.2119643020959
865,599.2237412984271
866,599.2268696619445
867,599.2180525068663
868,599.195230704888
869,599.1575758201388
870,599.1053973237117
871,599.039959765505
872,598.9631991328946
873,598.8773455178845
874,598.7844916611226
875,598.6861745238962
876,598.5830463537056
877,598.4746987318015
878,598.3596729346303
879,598.2356561621943
880,598.0998371322673
881,597.9493757931444
882,597.7819257569716
883,597.5961377512115
884,597.3920761997769
885,597.1714969725847
886,596.937948437707
887,596.696665631517
888,596.4542416535813
889,596.218090546486
890,595.9957561922165
891,595.7941610979485
892,595.6189121056531
893,595.4737699262198
894,595.3603468975809
895,595.2780488569192
896,595.224250839553
897,595.1946931381382
898,595.1840752339523
899,595.186790134885
900,595.1977000361125
901,595.2128347023422
902,595.2298978045022
903,595.2484890402692
904,595.2700017482706
905,595.297233213972
906,595.3338120012164
907,595.383563792171
908,595.4498968901663
909,595.5352267507943
910,595.6404314267874
911,595.7643623067183
912,595.9034945075122
913,596.0518312957454
914,596.2011531789956
915,596.3416441071521
916,596.462856386747
917,596.5548999256202
918,596.6096757111054
