frame_number,force
0,645.1661900000431
1,644.6683057200785
2,644.1907507630152
3,643.7523408193023
4,643.3690606755584
5,643.0530811123248
6,642.8121679773571
7,642.6494924305074
8,642.5638408711877
9,642.5502012873401
10,642.600639915688
11,642.7053157079077
12,642.8534584544202
13,643.0341647895252
14,643.2369270619228
15,643.451889659626
16,643.6699065851803
17,643.8825215881371
18,644.0819867911024
19,644.2613870571569
20,644.4148742525199
21,644.537961974342
22,644.6278018532093
23,644.6833660185478
24,644.7054932823288
25,644.6968023150644
26,644.6615105985084
27,644.605201646048
28,644.5345514820466
29,644.4569853536692
30,644.3802245651299
31,644.3117156103077
32,644.2579889854144
33,644.224038768188
34,644.2128287384086
35,644.2250195532014
36,644.2589791220097
37,644.311089544172
38,644.3763120375601
39,644.448930142056
40,644.5233670102305
41,644.5949643242261
42,644.6606114567711
43,644.719117869946
44,644.7712398242287
45,644.8193254304514
46,644.8666312517228
47,644.9164559024294
48,644.9712885628104
49,645.0321631137328
50,645.0983477780964
51,645.1674062785381
52,645.2355746651019
53,645.2983467810203
54,645.3511575641469
55,645.3900646521861
56,645.4123301661216
57,645.4168103576504
58,645.4040936966738
59,645.3763807335569
60,645.3371443517282
61,645.2906330737115
62,645.2412938772977
63,645.1932078577448
64,645.1496396042425
65,645.1127704161942
66,645.0836169062748
67,645.0620767118824
68,645.047035709894
69,645.0365070123815
70,645.0278079574639
71,645.0177933936596
72,645.003158725049
73,644.9808126001641
74,644.9482914524522
75,644.9041496141316
76,644.848238882757
77,644.781817586745
78,644.7074865969073
79,644.6289923741747
80,644.5509370717732
81,644.4784080517943
82,644.4165240608185
83,644.3699197254284
84,644.3422387949769
85,644.335735197725
86,644.3510641850734
87,644.3872980701249
88,644.4421465094703
89,644.5123105651151
90,644.5938655486913
91,644.6825762265203
92,644.7741107639398
93,644.8642006016346
94,644.9488310170676
95,645.0245174705844
96,645.0886606067496
97,645.1399241083361
98,645.1785555256068
99,645.2065592325702
100,645.2276343343806
101,645.2468219502156
102,645.2698657244304
103,645.3023609085383
104,645.3488340830212
105,645.4119391524782
106,645.4919521039835
107,645.5866855581942
108,645.6918411144933
109,645.801708760704
110,645.9100433276686
111,646.010921865137
112,646.0994188992678
113,646.1720098116165
114,646.2266898368811
115,646.26285068455
116,646.280984853877
117,646.2822959354487
118,646.2682884427212
119,646.2404021031311
120,646.1997479288832
121,646.1469884439066
122,646.0823751075122
123,646.0059244682012
124,645.9176942083268
125,645.8181032311896
126,645.708219880953
127,645.5899379338624
128,645.4659894809149
129,645.3397957878362
130,645.2152037701196
131,645.0961765459442
132,644.9864953932511
133,644.8895005592365
134,644.8078785779312
135,644.7435084598878
136,644.69739074949
137,644.6696773185126
138,644.6597928060071
139,644.6666074393903
140,644.6886048726143
141,644.7239983500089
142,644.770780587935
143,644.8267283973461
144,644.8894005406191
145,644.9561639560703
146,645.0242739447378
147,645.091022504123
148,645.1539432585566
149,645.2110217565432
150,645.2608344864694
151,645.3025548517035
152,645.335813771158
153,645.3604608573625
154,645.3763164620876
155,645.3830176748252
156,645.3800326789507
157,645.3668578123053
158,645.3433476799194
159,645.3100840411012
160,645.268671696265
161,645.2218593533449
162,645.1734191415949
163,645.127774435993
164,645.0894307580319
165,645.0623214729515
166,645.0492064196822
167,645.0512435965345
168,645.0678014654852
169,645.0965176377116
170,645.1335578029617
171,645.1739959249811
172,645.2122310138443
173,645.2423795075779
174,645.258620459207
175,645.2555011046676
176,645.2282268649599
177,645.1729667658295
178,645.0871923291231
179,644.9700252157273
180,644.8225229212945
181,644.6478252690405
182,644.4511213199996
183,644.2394412295927
184,644.0213018496695
185,643.8062382412254
186,643.6042470739293
187,643.4251585582095
188,643.2779471977933
189,643.17000184771
190,643.1064114750292
191,643.0893697419134
192,643.1178236984387
193,643.1874648115295
194,643.2910957351158
195,643.4193377727015
196,643.5615947568748
197,643.7071617732115
198,643.8463568572323
199,643.9715526705713
200,644.0779857031368
201,644.1642261380514
202,644.2322174631322
203,644.286852743447
204,644.3351355940931
205,644.3850503958893
206,644.4443119387216
207,644.5191755232822
208,644.6134751973113
209,644.7280215404639
210,644.8604267931469
211,645.0053485746346
212,645.1550843911201
213,645.3004255097886
214,645.4316808176649
215,645.5397793249465
216,645.6173331764693
217,645.659512031978
218,645.664591535997
219,645.63410906371
220,645.5726532032814
221,645.4873790006451
222,645.3873512779597
223,645.282783571721
224,645.1842024379735
225,645.1015629944162
226,645.0433667966529
227,645.0158572581958
228,645.0223785911435
229,645.0629888907498
230,645.1344119889584
231,645.2303771247258
232,645.342325977001
233,645.460386806332
234,645.57446000202
235,645.6752511884349
236,645.7551270795632
237,645.8087345548914
238,645.833383897104
239,645.8292234062095
240,645.7992156403661
241,645.7488918380261
242,645.6858525953159
243,645.6190176781053
244,645.55768969958
245,645.5105528242182
246,645.4847509602171
247,645.4851711579811
248,645.5140086300677
249,645.5706335293472
250,645.6517396049697
251,645.7517396239591
252,645.863371664887
253,645.978476584057
254,646.0888893963164
255,646.1873581966614
256,646.2683764511164
257,646.3288036196685
258,646.368166401045
259,646.3885800865048
260,646.3942956126987
261,646.39094557194
262,646.3846171336974
263,646.3809086973224
264,646.3841195473293
265,646.3966816897903
266,646.4188903976332
267,646.4489421785127
268,646.4832479303362
269,646.5169523118311
270,646.5445660268523
271,646.5606184695213
272,646.5602595150816
273,646.539760517767
274,646.4968783751947
275,646.4310668852233
276,646.343550750335
277,646.2372961816826
278,646.1168946623446
279,645.9883339435288
280,645.8586049211725
281,645.7351165003118
282,645.6249523001786
283,645.5340671234402
284,645.4665596441419
285,645.4241578714617
286,645.4060146230536
287,645.4088447676069
288,645.4273653689793
289,645.4549428294935
290,645.4843245827224
291,645.508349223981
292,645.5205784524644
293,645.5158375836222
294,645.4906520915825
295,645.4435352102333
296,645.3750642355735
297,645.2877121692466
298,645.1854615151652
299,645.0732817004734
300,644.956576217743
301,644.8406961896983
302,644.7305816266625
303,644.6305429178974
304,644.5441521720093
305,644.4741971630659
306,644.4226609183872
307,644.3907078995876
308,644.3786735653712
309,644.386073384218
310,644.4116589665431
311,644.4535325984745
312,644.5093021492657
313,644.5762517932675
314,644.6515186976759
315,644.7322701646455
316,644.8158642742482
317,644.8999719606177
318,644.9826450583807
319,645.0623208335855
320,645.1377616754999
321,645.2079517570163
322,645.2720019544454
323,645.329121813315
324,645.3786871130219
325,645.4203786241177
326,645.4543253643051
327,645.4811813066768
328,645.5020985653855
329,645.518602967657
330,645.5323995098283
331,645.5451380458588
332,645.558174873986
333,645.5723762875787
334,645.5880093760627
335,645.6047456391265
336,645.6217742486443
337,645.6379977880107
338,645.6522681631034
339,645.6636102542003
340,645.6713778833588
341,645.6753047354309
342,645.6754558267263
343,645.6721252766878
344,645.6657325622187
345,645.6567517124261
346,645.6456967156493
347,645.6331820279975
348,645.6200566209186
349,645.6075731185156
350,645.5975257738519
351,645.5922913311158
352,645.5947321705145
353,645.6079540113461
354,645.6349360484584
355,645.6780713070079
356,645.738678014795
357,645.8165661822661
358,645.9097534802971
359,646.014407406458
360,646.1250433366014
361,646.2349470010522
362,646.3367457791416
363,646.4230433632747
364,646.4870464942895
365,646.523130694309
366,646.5273069742092
367,646.4975662674766
368,646.4340905887004
369,646.3393222728556
370,646.2178771202283
371,646.0762871355447
372,645.9225729151794
373,645.7656713819587
374,645.6147708706644
375,645.4786207564977
376,645.3648844364329
377,645.2796024859531
378,645.2268281927388
379,645.2084726194992
380,645.2243457364985
381,645.2723337287746
382,645.3486454822946
383,645.4480934272727
384,645.5644122395033
385,645.6906339410007
386,645.8195269787676
387,645.944085022039
388,646.0580332576013
389,646.1563103223954
390,646.2354783876675
391,646.2940103607766
392,646.3324090045223
393,646.3531359628832
394,646.360364533826
395,646.3596012431473
396,646.3572327821634
397,646.360045857708
398,646.374746299124
399,646.4074781072643
400,646.4633251911728
401,646.545788900866
402,646.6562804458201
403,646.7937232046262
404,646.9543862792922
405,647.1320461958221
406,647.3185037055727
407,647.5043933111062
408,647.6801506306653
409,647.8369721877232
410,647.9676153596635
411,648.0669321903331
412,648.1320952696185
413,648.1625338323631
414,648.1596313491925
415,648.1262454888606
416,648.0661210078964
417,647.9832862407595
418,647.8815405936435
419,647.76413223354
420,647.63368031068
421,647.4923262727392
422,647.3420345118315
423,647.184926565626
424,647.023533465936
425,646.8608921400515
426,646.7004824985613
427,646.546063380723
428,646.4014822813294
429,646.2705049782965
430,646.1566640874308
431,646.0630906795328
432,645.9922893509341
433,645.945848008464
434,645.9241228921084
435,645.925973960684
436,645.9486224995254
437,645.9876727619592
438,646.037311184099
439,646.0906810335262
440,646.1404141889354
441,646.1792719064615
442,646.2008090187496
443,646.1999520365221
444,646.1733924100157
445,646.119748321297
446,646.0395184013531
447,645.9348967805257
448,645.8095214377939
449,645.6682038907437
450,645.5166600505951
451,645.3612349210518
452,645.2085900873155
453,645.0653158084185
454,644.9374503690965
455,644.8299307978278
456,644.7460414598074
457,644.6869548705022
458,644.6514643836106
459,644.6359885503742
460,644.6348837556166
461,644.6410400146896
462,644.6466702758058
463,644.6441666070087
464,644.6269046648544
465,644.5899100045687
466,644.530324318948
467,644.4476268924728
468,644.3435982960367
469,644.2220581742699
470,644.0884362281031
471,643.9492267395108
472,643.8113548095102
473,643.6814869511079
474,643.5653595995715
475,643.4672414830989
476,643.3896422116583
477,643.3333138833143
478,643.2974984443293
479,643.2803086130046
480,643.2791275431464
481,643.2909575046004
482,643.3126991205023
483,643.3413680843729
484,643.374252843453
485,643.4090039830726
486,643.4436447777182
487,643.476506891369
488,643.5061144153207
489,643.5310544131103
490,643.5498826347193
491,643.5611145166662
492,643.5633330070979
493,643.5554053002767
494,643.5367560477066
495,643.5076160084176
496,643.469166276704
497,643.4235292569822
498,643.3736040940921
499,643.3227864612368
500,643.2746357523744
501,643.2325500633511
502,643.1994844889407
503,643.1777185571948
504,643.168663691896
505,643.1727057525356
506,643.1890934551645
507,643.2159051231505
508,643.2501453663068
509,643.288020048741
510,643.325396480829
511,643.358389959568
512,643.3839657159756
513,643.40043298028
514,643.4077304598532
515,643.4074456522884
516,643.402567508459
517,643.3970309732915
518,643.3951507601564
519,643.4010494897086
520,643.4181687037355
521,643.4489202438366
522,643.4945000722771
523,643.5548572757165
524,643.6287915777431
525,643.7141413703025
526,643.8080205974964
527,643.9070681384707
528,644.007687303218
529,644.106271577883
530,644.19942780642
531,644.2842082939436
532,644.3583434895722
533,644.4204421072434
534,644.4701182456722
535,644.5080141371235
536,644.5356980356839
537,644.5554315700284
538,644.5698271722489
539,644.5814469991126
540,644.5924201913924
541,644.6041691831936
542,644.6173257522757
543,644.6318737632213
544,644.6474899784822
545,644.663992677003
546,644.6817674745585
547,644.7020321142354
548,644.7268417698332
549,644.7588202863375
550,644.8006930683456
551,644.8547504021994
552,644.9223705992765
553,645.0036939496504
554,645.097486923509
555,645.201194532987
556,645.3111548749847
557,645.4229351594098
558,645.531733290867
559,645.6327734467703
560,645.7216194533798
561,645.7943554047721
562,645.8476443542919
563,645.8787406889173
564,645.8855524069072
565,645.8668118507929
566,645.822345536053
567,645.7533739459988
568,645.662741054838
569,645.55497132165
570,645.4360763523962
571,645.3130863923385
572,645.1933549088711
573,645.0837507216683
574,644.9898855162132
575,644.9155197559382
576,644.862254795766
577,644.8295615302459
578,644.8151275739015
579,644.8154421583728
580,644.8264941725413
581,644.8444426235924
582,644.8661356360542
583,644.8894023487533
584,644.9131078163423
585,644.9370186883879
586,644.9615553775939
587,644.9875060676692
588,645.0157655534049
589,645.0471445650467
590,645.0822701888142
591,645.1215682741013
592,645.1652942546627
593,645.2135678463773
594,645.26637318135
595,645.3235089798617
596,645.3845061466991
597,645.448554392118
598,645.5144778017706
599,645.5807752043037
600,645.6457150691803
601,645.7074620216862
602,645.7642135576529
603,645.8143315093773
604,645.8564559184882
605,645.8895947260922
606,645.9131981083243
607,645.9272400680002
608,645.9323210078662
609,645.9297714152998
610,645.9217009322886
611,645.9109251365703
612,645.9007286039342
613,645.8944803943593
614,645.8951740086296
615,645.9049827602981
616,645.9249006546615
617,645.9545056465593
618,645.9918624334987
619,646.0335808560664
620,646.0750508466207
621,646.1108661055018
622,646.1354132094667
623,646.1435508924319
624,646.1312691871843
625,646.096222837102
626,646.0380648163814
627,645.9585398318377
628,645.8613285143357
629,645.751661521626
630,645.6357454641809
631,645.520063653407
632,645.4106422392297
633,645.3123980702785
634,645.2286842411212
635,645.1611062132314
636,645.1096065737813
637,645.0727444719845
638,645.0480640914118
639,645.0324719389416
640,645.022602545259
641,645.0151934190479
642,645.0074735243967
643,644.9975087419406
644,644.9844022171258
645,644.9682697149844
646,644.9499938855383
647,644.9308469086772
648,644.912101927762
649,644.894723868972
650,644.8791780199073
651,644.8653589206517
652,644.8526294507642
653,644.8399551752456
654,644.8261114848568
655,644.8099308170574
656,644.7905473836992
657,644.7675907428403
658,644.7412791235403
659,644.7123722287483
660,644.681972615886
661,644.6512195530379
662,644.6209744554806
663,644.5916109092622
664,644.5629798837015
665,644.5345490800212
666,644.5056560994408
667,644.4757932052172
668,644.4448554078266
669,644.4133135563039
670,644.3822987711642
671,644.3535947224955
672,644.3295332115016
673,644.312786239851
674,644.3060570321442
675,644.3117003493576
676,644.3313391655967
677,644.3655662350807
678,644.4138044864553
679,644.4743494089403
680,644.544553762256
681,644.6210761296122
682,644.7001228550822
683,644.7776576326835
684,644.8496015426246
685,644.9120693018965
686,644.9616721597097
687,644.9958719325015
688,645.0133210451851
689,645.0141003073497
690,644.9997833349772
691,644.9733033437586
692,644.9386470016073
693,644.9004304814456
694,644.863426391123
695,644.8321149198844
696,644.8103247858892
697,644.8010046957634
698,644.8061310447174
699,644.826723664094
700,644.8629179704897
701,644.9140400053539
702,644.9786548147259
703,645.0545923873724
704,645.1389752178789
705,645.2282738552656
706,645.3184168812562
707,645.4049833036278
708,645.4834913175249
709,645.5497601576739
710,645.6002842730262
711,645.632551833495
712,645.6452640064596
713,645.6384390014397
714,645.6133946210723
715,645.5726061364994
716,645.5194530838954
717,645.4578943662962
718,645.3921241203709
719,645.3262573556807
720,645.2640880190943
721,645.2089500979574
722,645.1636787029954
723,645.1306243017813
724,645.1116557040908
725,645.1081088021715
726,645.1206760599968
727,645.149263746875
728,645.1928641072412
729,645.249495394488
730,645.3162509824945
731,645.3894756238449
732,645.4650602634322
733,645.5388167281515
734,645.6068669767335
735,645.665978074662
736,645.7137995537987
737,645.7489935344882
738,645.7712663855201
739,645.781310911821
740,645.7806655768298
741,645.771506057797
742,645.7564001647352
743,645.738062687761
744,645.7191358377286
745,645.7020073163578
746,645.6886741064504
747,645.6806612853829
748,645.679003168492
749,645.6842881553933
750,645.6967597857716
751,645.7164528481838
752,645.7433257372305
753,645.7773394522876
754,645.8184447941652
755,645.8664728586598
756,645.9209600326651
757,645.9809588592499
758,646.0448908232644
759,646.1104924070676
760,646.1748873898466
761,646.2347833105543
762,646.2867511381708
763,646.3275256901445
764,646.3542724562383
765,646.3647961568041
766,646.3576936381428
767,646.3324589632247
768,646.2895331168097
769,646.2302742496003
770,646.1568266593531
771,646.0718912437974
772,645.9784351578888
773,645.8794071676903
774,645.7775300839661
775,645.6752123763328
776,645.5745715360722
777,645.4775240765841
778,645.3858882370756
779,645.301454663954
780,645.2259930597837
781,645.1611802812362
782,645.108463282871
783,645.0688987154335
784,645.0430177011128
785,645.0307391407897
786,645.0313162682909
787,645.0432872666986
788,645.064434746283
789,645.0918127240102
790,645.1219108803388
791,645.1509695573866
792,645.175385360799
793,645.1921226916693
794,645.199075715532
795,645.1953587631383
796,645.1815052659474
797,645.1595342214948
798,645.1328292383131
799,645.1057950522135
800,645.0833126304934
801,645.0700747701483
802,645.0699110038535
803,645.0852009835804
804,645.1164550538695
805,645.1621208199402
806,645.2186455505961
807,645.2807841859126
808,645.3421057575423
809,645.3956305746768
810,645.4345289683749
811,645.4528238599036
812,645.4460516625065
813,645.4118367534521
814,645.3503256086782
815,645.2644205339494
816,645.1597545299627
817,645.044356275769
818,644.927977637769
819,644.8211102267138
820,644.733795008987
821,644.6743991008846
822,644.6485638128071
823,644.6584998072209
824,644.7027276378952
825,644.7762709262107
826,644.8712425744867
827,644.9777320093136
828,645.0848875022684
829,645.1820734426866
830,645.2599688445174
831,645.3114817278492
832,645.3323961725507
833,645.3217208422769
834,645.2817349265747
835,645.2177301537149
836,645.1374572449332
837,645.0503206546452
838,644.9664124249241
839,644.8955046748356
840,644.8461163566221
841,644.8247480601574
842,644.8353578890421
843,644.879129661898
844,644.9545521050998
845,645.0577876060512
846,645.1832714119164
847,645.3244510338619
848,645.4745546636352
849,645.6272769527633
850,645.7772956785649
851,645.9205718012108
852,646.0544238800712
853,646.1774047925932
854,646.2890442040581
855,646.3895393641258
856,646.4794629110476
857,646.5595172500127
858,646.6303312799768
859,646.6922879018998
860,646.7453834276099
861,646.7891351821355
862,646.8225614068193
863,646.8442553516439
864,646.8525604827921
865,646.8458231780314
866,646.8226620985012
867,646.7821781986366
868,646.7240602258781
869,646.648601785206
870,646.5566901846139
871,646.4498238841331
872,646.3301763250763
873,646.2006809648663
874,646.0650876281045
875,645.9279420882311
876,645.7944686565706
877,645.6703741789705
878,645.5616114654805
879,645.4741249430559
880,645.4135716945096
881,645.3849987003416
882,645.3924677227903
883,645.4386373453297
884,645.5243277860985
885,645.6481112996266
886,645.8059928655497
887,645.9912682611869
888,646.1946565513529
889,646.4047826134046
890,646.6090197786468
891,646.7946065538691
892,646.9498689561337
893,647.0653558933266
894,647.1347362325594
895,647.1553800906636
896,647.128611059865
897,647.0596436938379
898,646.9572118237196
899,646.8328774413463
900,646.7000251136172
901,646.5726035500403
902,646.4637445191918
903,646.3844312078804
904,646.3423909630418
905,646.3413598230645
906,646.3808121178075
907,646.4561722868364
908,646.5594524506524
909,646.6802123141939
910,646.8067140430132
911,646.927131709582
912,647.0306786504208
913,647.1085457422926
914,647.1545879564864
915,647.1657313113616
916,647.1420872503553
917,647.0867735180944
918,647.0054731440144
