frame_number,force
0,575.2287600000324
1,575.1550441458838
2,575.0788496982464
3,574.9976768201783
4,574.9090160872197
5,574.810408866409
6,574.6995573787113
7,574.5744797362036
8,574.4336978290241
9,574.2764304018044
10,574.1027505331903
11,573.9136732236796
12,573.7111648265567
13,573.4980874128363
14,573.2780899779852
15,573.0554465689877
16,572.8348390564751
17,572.6210913113516
18,572.4188722200831
19,572.2323925197431
20,572.065125424094
21,571.9195820922729
22,571.7971676190712
23,571.6981324276056
24,571.6216226363497
25,571.5658281085543
26,571.528230046839
27,571.5059472651448
28,571.4961541994766
29,571.4965023151492
30,571.5054546643423
31,571.5224649534931
32,571.5479789276783
33,571.5832666594337
34,571.6301012629251
35,571.6903140802102
36,571.7652937451685
37,571.8555268726459
38,571.9602692501979
39,572.0773967651766
40,572.2034480882121
41,572.3338529609259
42,572.463329215141
43,572.5864116484609
44,572.6980466175545
45,572.7941611488897
46,572.8721087204314
47,572.9309165936487
48,572.9713108514466
49,572.9955507237119
50,573.0071306143393
51,573.0104002766341
52,573.0101372905306
53,573.0111050006668
54,573.0176364770728
55,573.0332832399312
56,573.0605568237695
57,573.1007825578871
58,573.154081882797
59,573.2194956620551
60,573.295241861111
61,573.379061072643
62,573.4685663947301
63,573.5615152133497
64,573.655964373769
65,573.7503227432397
66,573.8433390455754
67,573.9340565415595
68,574.0217558933003
69,574.1059069818872
70,574.1861488591168
71,574.2623036767442
72,574.3344093277125
73,574.4027386227746
74,574.4677705423553
75,574.5300952331872
76,574.5902645180106
77,574.6486318935604
78,574.7052437181667
79,574.7598321446842
80,574.8119209723392
81,574.8610122256541
82,574.9068035494115
83,574.9493944715521
84,574.9894460603089
85,575.0282530162937
86,575.0676916335134
87,575.1100389844939
88,575.1577026429945
89,575.2129249185067
90,575.2775168455482
91,575.3526487605089
92,575.4387026544109
93,575.5351909823147
94,575.6407568703534
95,575.7532709034898
96,575.8700219597838
97,575.9879727014466
98,576.1040298642342
99,576.2152782030056
100,576.319144356805
101,576.4134795622857
102,576.4965701665033
103,576.5671046663379
104,576.624141340976
105,576.6671204176433
106,576.6959488418858
107,576.7111634883129
108,576.7141526663025
109,576.7073813770367
110,576.6945270676073
111,576.6804117792135
112,576.6706418787575
113,576.6709457965088
114,576.6863064201583
115,576.720072063987
116,576.7732605025025
117,576.8442305884565
118,576.928800239473
119,577.0207759473805
120,577.1127694038481
121,577.1971373703633
122,577.2668925675496
123,577.316473104703
124,577.3422958644047
125,577.3430457244516
126,577.3196796856685
127,577.2751602124496
128,577.2139690349657
129,577.1414844838415
130,577.0633272770717
131,576.9847834146458
132,576.9103893344027
133,576.8437097277841
134,576.7872656182886
135,576.7425177834813
136,576.7098160823911
137,576.688285498256
138,576.6756936896131
139,576.6683953968186
140,576.6614621420944
141,576.6490774974876
142,576.6252100596213
143,576.5844854116135
144,576.5230998990706
145,576.4395879665533
146,576.3352826933059
147,576.2143770299442
148,576.0835680825991
149,575.9513289319048
150,575.8269043434469
151,575.7191723438973
152,575.6355412967525
153,575.5810467978654
154,575.5577741185094
155,575.5646721251113
156,575.5977588533596
157,575.6506635052398
158,575.7154172408008
159,575.7833951319664
160,575.8463103588888
161,575.8971564258314
162,575.9309826949235
163,575.9453819560523
164,575.9405841164626
165,575.9191098927362
166,575.8850444098097
167,575.8431029399909
168,575.7977209351849
169,575.7523758694969
170,575.7092549597995
171,575.6692719099805
172,575.6323575452967
173,575.5979159934328
174,575.5653294631494
175,575.5343957886339
176,575.5055996459237
177,575.480158547598
178,575.4598439398696
179,575.4466391212288
180,575.4423348102063
181,575.4481639659707
182,575.4645480334663
183,575.4909894152664
184,575.5261128730373
185,575.567831991293
186,575.613595460129
187,575.6606569632913
188,575.7063194404958
189,575.748129928807
190,575.7840285592008
191,575.8124615602042
192,575.8324529715753
193,575.8436193878695
194,575.8461238343755
195,575.8405846948559
196,575.8279608094483
197,575.8094252511214
198,575.7862379337502
199,575.759637391942
200,575.7307751413347
201,575.7006965849022
202,575.6703433585106
203,575.6405370798186
204,575.6119164943048
205,575.5848379925608
206,575.5592954632268
207,575.5349375321939
208,575.5112353316377
209,575.487787769615
210,575.4646764897409
211,575.4427406798999
212,575.4236559272982
213,575.409760391551
214,575.4036458524687
215,575.4075992994331
216,575.4230304025639
217,575.4500330077832
218,575.4871882620314
219,575.5316358880028
220,575.5793630619345
221,575.6256278019521
222,575.6654467187022
223,575.6941019498281
224,575.7076310328655
225,575.703260338616
226,575.6797435153325
227,575.6375691011983
228,575.5789983095997
229,575.5079003385048
230,575.4293907221328
231,575.3493348725427
232,575.2738100087922
233,575.208602024729
234,575.1587707799833
235,575.1282808063243
236,575.1196808893668
237,575.1338264220403
238,575.1696664012636
239,575.2241484607954
240,575.2923083138722
241,575.3675886922632
242,575.4423877133185
243,575.5087936387162
244,575.5594328137636
245,575.5883345386197
246,575.5917012321443
247,575.5684712223789
248,575.5205760567269
249,575.4528255446199
250,575.3724080204356
251,575.2880679994487
252,575.2090930471352
253,575.1442689063906
254,575.10093209426
255,575.0841926472949
256,575.0963677786779
257,575.1366799773198
258,575.2012966702383
259,575.283769918877
260,575.3758556543783
261,575.4685895689853
262,575.5534324858553
263,575.6233020387795
264,575.6733549977995
265,575.7014360979168
266,575.7081566969056
267,575.6966202340018
268,575.6718636854237
269,575.6401137841221
270,575.6079568848548
271,575.5815064833394
272,575.5656433159062
273,575.5634069045714
274,575.5756188310587
275,575.6007956472457
276,575.6353618341055
277,575.6741192917569
278,575.7108888405928
279,575.7392208603686
280,575.75307884713
281,575.7474279483831
282,575.7186983914378
283,575.6651218657156
284,575.5869433128491
285,575.4864949588776
286,575.3681019208867
287,575.2377875729817
288,575.1027698021726
289,574.9707792349676
290,574.8492713857956
291,574.7446347884256
292,574.6615105716031
293,574.6023284032781
294,574.5671259517742
295,574.5536631670319
296,574.5577889064193
297,574.5739877853323
298,574.5960370055533
299,574.6177184683944
300,574.6335324065737
301,574.6393333468536
302,574.632776732844
303,574.6134652144874
304,574.5827434839186
305,574.5431899578333
306,574.4979391816429
307,574.4500001697064
308,574.4017138962836
309,574.3544412165246
310,574.3085062945623
311,574.263352471695
312,574.217822970489
313,574.170477747429
314,574.1198856058105
315,574.0648563165074
316,574.0045950787386
317,573.9387865190425
318,573.8676440265774
319,573.7919673222733
320,573.713227661694
321,573.633664892046
322,573.5563531802518
323,573.4851764783799
324,573.4246534472852
325,573.3795751662292
326,573.3544694500281
327,573.3529640876841
328,573.3771615540012
329,573.4271460077136
330,573.5007232175602
331,573.5934570138356
332,573.699020967958
333,573.8098349676844
334,573.9179064672751
335,574.0157548406627
336,574.0972791844772
337,574.1584441134582
338,574.1976978284948
339,574.21608292387
340,574.2170366555912
341,574.2059019647933
342,574.1891930577984
343,574.1736900119427
344,574.1654784476563
345,574.1690899899568
346,574.1869077192795
347,574.2189526893112
348,574.2630710373463
349,574.3154410294063
350,574.3712619926083
351,574.4254848985939
352,574.4734762628195
353,574.5115439853945
354,574.5372806178041
355,574.5497001610458
356,574.5491699349208
357,574.5371704457657
358,574.5159411874515
359,574.4880781033801
360,574.4561432214152
361,574.4223380312492
362,574.3882777887261
363,574.3548818257218
364,574.3223791775326
365,574.2904333612448
366,574.2583985831973
367,574.2256940773914
368,574.1922159490492
369,574.1586484373165
370,574.1265512262405
371,574.0981859604357
372,574.0761421322355
373,574.062876374201
374,574.0602833139502
375,574.0693903213626
376,574.0902302749128
377,574.121903905065
378,574.1627974366431
379,574.2108765667028
380,574.2639530550458
381,574.3198361094746
382,574.37633360633
383,574.4311300516018
384,574.4816131851088
385,574.5247401344794
386,574.5570289241991
387,574.57473653349
388,574.5742421598691
389,574.5525933322173
390,574.5081060333252
391,574.440871716484
392,574.353040685298
393,574.2488142675578
394,574.134155207566
395,574.0162852974007
396,573.9030618354725
397,573.8023113187644
398,573.7211738270342
399,573.6655003515879
400,573.6393520466244
401,573.6446599081522
402,573.6810996659192
403,573.7462135307509
404,573.8357697390945
405,573.9443021459421
406,574.0657351902106
407,574.1939932327197
408,574.3235146126472
409,574.449616444136
410,574.5686731141091
411,574.6780932202795
412,574.7761207408681
413,574.8615332741294
414,574.9333347625429
415,574.9905313807154
416,575.0320496721894
417,575.0568202945839
418,575.0640142656645
419,575.0533837576143
420,575.0256320282639
421,574.9827234453811
422,574.9280447160038
423,574.8663403520148
424,574.8033789622388
425,574.74537332449
426,574.6982582955934
427,574.6669826732465
428,574.6549641380187
429,574.6637968665935
430,574.6932223219537
431,574.7413108158048
432,574.8047703872438
433,574.8792948322751
434,574.9598789414174
435,575.041066976558
436,575.1171492604948
437,575.1823576730541
438,575.23111953245
439,575.2584127239045
440,575.2602278981398
441,575.2340916417782
442,575.1795546012889
443,575.098526611498
444,574.9953612428461
445,574.8766436692606
446,574.7506942248166
447,574.6268493996921
448,574.5146163980916
449,574.4228110342783
450,574.3587786106617
451,574.3277720228406
452,574.3325354672747
453,574.373124203825
454,574.446978447156
455,574.5492503164148
456,574.6733447186983
457,574.8115884678151
458,574.9559203725796
459,575.0985169292026
460,575.2323119642076
461,575.3513982054014
462,575.4513019356515
463,575.5291149694175
464,575.5834748742167
465,575.614412284128
466,575.6231175826455
467,575.6116947522709
468,575.5829574692871
469,575.5402878838854
470,575.4875393971075
471,575.428944133345
472,575.3689951647162
473,575.3122980462351
474,575.2634015136426
475,575.226617251301
476,575.2058349711525
477,575.2043374077579
478,575.2246124830418
479,575.2681481214548
480,575.3352019765157
481,575.4245757755748
482,575.5334643303281
483,575.6574543918258
484,575.7907134419111
485,575.9263587166922
486,576.0569621142527
487,576.1751431654601
488,576.2742169460554
489,576.348861767481
490,576.3957372294645
491,576.4139428715941
492,576.4051999943846
493,576.3736804562918
494,576.3254829404561
495,576.2678367191535
496,576.2081637701925
497,576.1531424799705
498,576.1079023067799
499,576.0754528515942
500,576.0564167103153
501,576.0490949605628
502,576.0498520676225
503,576.0537627005077
504,576.0554143903873
505,576.0497235378348
506,576.0326266688176
507,576.0015606197491
508,575.9557156001215
509,575.8960936544992
510,575.8254117221371
511,575.7478669531216
512,575.6687665667353
513,575.5940356677593
514,575.5296414940393
515,575.4809895639959
516,575.4523544953753
517,575.4464146853121
518,575.4639577457137
519,575.5037956289709
520,575.5628795790898
521,575.6365629581215
522,575.7189456745203
523,575.8032486122873
524,575.8822014162416
525,575.9484655469369
526,575.9951277534728
527,576.0162659883226
528,576.0075283372287
529,575.9666229385593
530,575.8936209413686
531,575.7910134415032
532,575.6635151458538
533,575.5176602657523
534,575.3612716294242
535,575.2028818542316
536,575.0511567057124
537,574.9143500304394
538,574.799817601799
539,574.7136156994779
540,574.6601994891693
541,574.6422255928908
542,574.6604599577597
543,574.7137909787085
544,574.7993392910458
545,574.9126386972022
546,575.0478508319808
547,575.1979876398455
548,575.3551538777693
549,575.5108638290487
550,575.6564934215935
551,575.7838800258999
552,575.8860023098507
553,575.9576136636583
554,575.9956962401204
555,575.9996418200867
556,575.9711262740598
557,575.9137048159188
558,575.8322034015887
559,575.7320156858275
560,575.6184339666318
561,575.4961358175437
562,575.3689058125482
563,575.239605181558
564,575.1103399961817
565,574.9827413193469
566,574.8582611906994
567,574.738401983386
568,574.6248279390308
569,574.5193462682585
570,574.4237799958784
571,574.3397819530221
572,574.2686601980406
573,574.2112913016177
574,574.1681705765416
575,574.1395870455298
576,574.1258479534731
577,574.1274485618121
578,574.1450999453467
579,574.1795812408361
580,574.2314486321903
581,574.3006816149152
582,574.386361777381
583,574.4864612504417
584,574.5977791431698
585,574.7160293103866
586,574.8360713182484
587,574.9522778338277
588,575.0590210238032
589,575.1512351255552
590,575.2249908472803
591,575.2780107274884
592,575.3100556089431
593,575.3231129807651
594,575.3213254684044
595,575.3106272597583
596,575.2981124916611
597,575.2912275388503
598,575.2969291380371
599,575.3209562223622
600,575.367319786598
601,575.4380405122356
602,575.533093416078
603,575.6504872576494
604,575.7864230339259
605,575.9355183245631
606,576.0911215789088
607,576.2457510911987
608,576.3916703684671
609,576.5215688493472
610,576.6292793756201
611,576.7104413225717
612,576.7630058330317
613,576.7874808266458
614,576.7868427005546
615,576.7661036870225
616,576.731603454377
617,576.690159696151
618,576.6482334268585
619,576.6112336147386
620,576.5830280695101
621,576.5656757605352
622,576.5593686946505
623,576.5625708001697
624,576.5723472746316
625,576.5848617755432
626,576.5959771233216
627,576.6018568919696
628,576.5994595320484
629,576.5868472188307
630,576.5632816745125
631,576.52912756159
632,576.4856141887158
633,576.4345122645974
634,576.3777744587836
635,576.3171845873864
636,576.2540643674273
637,576.1890838899682
638,576.122201516756
639,576.0527296036557
640,575.9794965627968
641,575.9010562615218
642,575.8158886878582
643,575.7225533463585
644,575.6197964967348
645,575.506649410021
646,575.3825609405296
647,575.2475826590985
648,575.1025871807905
649,574.9494640152947
650,574.7912104403563
651,574.6318367503991
652,574.4760522363365
653,574.328772116862
654,574.1945430787514
655,574.0770012317965
656,573.9784588398575
657,573.8996822812157
658,573.8398824518601
659,573.7968959077066
660,573.7675010836145
661,573.7478016184144
662,573.7336219760858
663,573.7208877281686
664,573.7059821033183
665,573.6860659727913
666,573.6593274287351
667,573.6251122175623
668,573.5838913342329
669,573.5370460750885
670,573.486489196188
671,573.4341856825397
672,573.381673286541
673,573.3296974234365
674,573.2780596352197
675,573.2257321349791
676,573.1712221289692
677,573.1131016698511
678,573.0505779083181
679,572.9839762144169
680,572.9150339865631
681,572.8469384309947
682,572.7840831360662
683,572.7315698815356
684,572.6945343582486
685,572.6774051660992
686,572.6832058499202
687,572.7129966363193
688,572.7655430690887
689,572.8372846969473
690,572.9226385233069
691,573.0146062905065
692,573.1055834957225
693,573.1882238500654
694,573.2562158811617
695,573.3048710901235
696,573.3314798445499
697,573.3354406154552
698,573.3182014091284
699,573.2830644878028
700,573.2348950428932
701,573.1797521291359
702,573.1244418528648
703,573.075984731365
704,573.0409946279013
705,573.0249942741501
706,573.0317393386811
707,573.0626642747411
708,573.1165712635496
709,573.1896508371876
710,573.2758607577632
711,573.3676184788411
712,573.4567038211434
713,573.5352373472135
714,573.5965980944316
715,573.6361652213067
716,573.6518019682552
717,573.6440349199798
718,573.6159101198176
719,573.5725371901448
720,573.520374127765
721,573.4663541574281
722,573.4169925237692
723,573.3776213295489
724,573.3518818217665
725,573.3415534926515
726,573.3467188783271
727,573.3661735863368
728,573.397932957325
729,573.4396891903592
730,573.4891293941108
731,573.544100260509
732,573.6026636062956
733,573.6631140896865
734,573.7240267505379
735,573.7843727834999
736,573.843697495471
737,573.9023138336419
738,573.9614456698845
739,574.0232592163001
740,574.0907409821044
741,574.1674128163492
742,574.256913662831
743,574.3625074913883
744,574.4865813721495
745,574.6301802043836
746,574.7926087597805
747,574.9711402728585
748,575.1609022232385
749,575.355033458005
750,575.5451833886425
751,575.7223404372015
752,575.8778673532937
753,576.0045483789801
754,576.0974575641172
755,576.1545230437804
756,576.1767375699269
757,576.1680168297814
758,576.1347423644004
759,576.0850619687633
760,576.0280466066562
761,575.9728052681265
762,575.9276503025891
763,575.8993988014873
764,575.892881518744
765,575.9107018550003
766,575.9532538076481
767,576.0189789133179
768,576.104813204102
769,576.2067412501223
770,576.3203478191291
771,576.4412610017127
772,576.5654235855158
773,576.6891970964837
774,576.8093626811915
775,576.9231055889045
776,577.0280514089785
777,577.1223798053771
778,577.2049904479356
779,577.2756503747938
780,577.3350394430463
781,577.3846480684352
782,577.4265450851834
783,577.463076609323
784,577.4965559376969
785,577.5289775100958
786,577.5617700852122
787,577.5956124532578
788,577.6303543951362
789,577.6650851401329
790,577.6983547019718
791,577.7284995069693
792,577.7539898687645
793,577.7737193721005
794,577.7871844594248
795,577.7945398088768
796,577.7965461551801
797,577.7944399257213
798,577.7897503773662
799,577.7840842925602
800,577.7789005704951
801,577.7753041969195
802,577.7738909569109
803,577.7746656270668
804,577.7770459962201
805,577.7799614544251
806,577.782044275074
807,577.7818792956681
808,577.7782469290557
809,577.7703027349326
810,577.7576767583475
811,577.7405035402563
812,577.719388724918
813,577.6953011667761
814,577.6693788527082
815,577.6426618832584
816,577.6158035511221
817,577.588836817265
818,577.5610670615541
819,577.5311216056775
820,577.4971369161232
821,577.4570353480636
822,577.4088388134527
823,577.3509706937275
824,577.2825051599407
825,577.2033414743053
826,577.114301771579
827,577.0171559519564
828,576.914564872131
829,576.8099201282846
830,576.7070621779583
831,576.6098827276127
832,576.521854527112
833,576.4455680757222
834,576.3823744309644
835,576.3322210516557
836,576.2937200698667
837,576.2644252347757
838,576.2412461715982
839,576.2209151415848
840,576.2004360810397
841,576.1774638051868
842,576.1505627792774
843,576.1192879423202
844,576.0840453045048
845,576.0457443632476
846,576.0053265693808
847,575.9633018025477
848,575.919422248774
849,575.8725757393601
850,575.8209114433436
851,575.7621469086046
852,575.6939704755414
853,575.6144515654037
854,575.5223859082585
855,575.4175209676208
856,575.3006353441364
857,575.1734853195982
858,575.0386609242573
859,574.8993962545242
860,574.7593614556146
861,574.6224434626463
862,574.49250973047
863,574.3731476335582
864,574.2673805147163
865,574.1773758406274
866,574.1041799354457
867,574.0475318229855
868,574.0058117049275
869,573.9761578257142
870,573.9547476651688
871,573.9372063616568
872,573.9190911316828
873,573.896400277328
874,573.8660511227808
875,573.8262553835641
876,573.7767113342318
877,573.7185558995777
878,573.6540786687593
879,573.5862659230348
880,573.5182843788284
881,573.4530209250893
882,573.3927718633458
883,573.3391315623907
884,573.2930814296385
885,573.2552440468785
886,573.2262437396516
887,573.2070884763903
888,573.1994628651718
889,573.2058290425111
890,573.2292909124524
891,573.2732625787913
892,573.3410427544296
893,573.4354025786157
894,573.5582553786716
895,573.7104288438364
896,573.8915327197448
897,574.0999133913224
898,574.3326948508278
899,574.5859092623651
900,574.8547172257714
901,575.1337067797102
902,575.4172406453933
903,575.6998064975252
904,575.9763309488194
905,576.2424380842886
906,576.4946499708549
907,576.7305351423697
908,576.9488141631839
909,577.1494255938154
910,577.3335397787583
911,577.5034889994158
912,577.6625713761025
913,577.8146948177408
914,577.9638658559421
915,578.1135901637451
916,578.2663085402646
