acceleration,velocity,displacement
0.0283161220415252,0.0,0.0
0.03045370149573566,2.938491176863043e-05,1.4692455884315215e-08
0.03255385712047886,6.088869107673768e-05,5.982925730699927e-08
0.034578944164981966,9.44550917194681e-05,1.375011487051022e-07
0.036492063916294615,0.0001299905957601064,2.4972399244488946e-07
0.03826000021059682,0.0001673666278235521,3.984026042367187e-07
0.03985799247217548,0.00020642562416493826,5.852987302309638e-07
0.041275059283365285,0.00024699215004270864,8.120076173347872e-07
0.04251790274371855,0.00028888863105625055,1.0799480078842668e-06
0.04361170475155732,0.0003319534348038885,1.3903690408143364e-06
0.044597161801344876,0.0003760578680803396,1.7443746922564505e-06
0.04552429376485694,0.0004211185958634405,2.1429629242283404e-06
0.04644445954510942,0.0004671029725184237,2.5870737084192725e-06
0.04740243357684564,0.0005140264190794013,3.077638404218185e-06
0.04843029925939488,0.0005619427854975216,3.6156230065066464e-06
0.049544389032708434,0.0006109301296435732,4.202059464077194e-06
0.05074573310539323,0.000661075190712624,4.838062124255292e-06
0.05202367011413686,0.0007124598923223891,5.5248296657727985e-06
0.05336162870491667,0.0007651525417319159,6.2636358827999514e-06
0.05474376465292028,0.0008192052384108344,7.055814772871327e-06
0.0561611218974909,0.00087465768168604,7.902746232919763e-06
0.057616135461533984,0.0009315463103655525,8.80584822894556e-06
0.05912451311185434,0.0009899166346522467,9.76657970145446e-06
0.06071386226679059,0.0010498358223415692,1.0786455929951368e-05
0.062418967677878384,0.0011114022373139038,1.1867074959779105e-05
0.06427437701748102,0.0011747489096615835,1.3010150533266849e-05
0.06630570801539645,0.0012400389521780221,1.4217544464186652e-05
0.06852142021664523,0.001307452516294043,1.5491290198422683e-05
0.07090635451193865,0.001377166403658335,1.683359965839887e-05
0.07341745480483547,0.0014493283083167221,1.82468470143864e-05
0.075981667350473,0.0015240278693943764,1.9733525103241947e-05
0.07849651511572146,0.0016012669606274737,2.129617251825287e-05
0.08083454829557331,0.001680932492333121,2.293727224473317e-05
0.08285269203301775,0.0017627761124974165,2.4659126547148437e-05
0.08440622149737342,0.001846405569262612,2.646371738802845e-05
0.08536542991807376,0.0019312913949703356,2.8352565870144927e-05
0.08563195175331483,0.00201679008580603,3.032660661053311e-05
0.08515165280735347,0.002102181888086364,3.238609259747931e-05
0.08392184941625641,0.0021867186391981686,3.453054286112158e-05
0.08199186369380643,0.0022696754957532,3.6758739928597264e-05
0.07945718254386609,0.002350400018872036,3.9068777685909884e-05
0.076448571234782,0.0024283528957613604,4.145815414322658e-05
0.07311820702369633,0.0025031362848905994,4.392389873355256e-05
0.0696251103291077,0.0025745079435670016,4.646272084778136e-05
0.06612187722515853,0.002642381437344135,4.9071165538236925e-05
0.0627441063194843,0.0027068144291164564,5.174576347146722e-05
0.05960320298749681,0.002767988083769947,5.448316472791042e-05
0.05678263339309486,0.002826181001960243,5.7280249270775517e-05
0.054337219515925524,0.002881740928414753,6.0134210235963015e-05
0.05229462200606911,0.0029350568491757502,6.304260912475827e-05
0.05065777006755384,0.0029865330452125615,6.600340407195242e-05
0.04940698368829861,0.0030365654220904877,6.901495330560394e-05
0.04850120603626155,0.003085519516952768,7.207599577512557e-05
0.047878856700958504,0.003133709548321378,7.518561030776264e-05
0.04745958048795025,0.0031813787669158324,7.834315446538125e-05
0.04714813611652663,0.003228682625218071,8.15481851614482e-05
0.04684097421490529,0.0032756771803837867,8.480036506424912e-05
0.04643504249655515,0.003322315188739517,8.809936124881077e-05
0.04583738833305886,0.003368451404154324,9.14447445452577e-05
0.04497365499024376,0.0034138569258159754,9.483589871024284e-05
0.043793903943829364,0.003458240705283012,9.827194752579233e-05
0.04227516487854641,0.0035012752396942,0.00010175170549828094
0.04042111576072658,0.0035426233800138368,0.00010527365480813495
0.03825974826150705,0.0035819638120249534,0.00010883594840415435
0.03583964506828959,0.003619013508689852,0.00011243643706451174
0.03322502152950586,0.00365354584198875,0.00011607271673985105
0.03048960550977726,0.003685403155508391,0.00011974219123859962
0.027709898608955643,0.0037145029075677577,0.0001234421442701377
0.024958809126404042,0.0037408372614354374,0.00012716981435463928
0.022300494496860716,0.0037644669132470697,0.00013092246644198053
0.019786658777146977,0.0037855104898840736,0.0001346974551435461
0.01745411640027843,0.0038041308774727865,0.00013849227582722452
0.015323446439651785,0.0038205196588927516,0.00014230460109540728
0.013398871372767343,0.003834880817798961,0.00014613230133375313
0.011669757574053552,0.0038474151322723717,0.0001499734493087888
0.010114021972930643,0.003858307022045864,0.0001538263103859479
0.00870322090112831,0.0038677156434828936,0.00015768932171871227
0.007408569103723534,0.0038757715384853193,0.00016156106530969638
0.006206936213418867,0.0038825792911438904,0.00016544024072451098
0.0050859552978323366,0.003888225736899516,0.00016932564323853268
0.004047504886107008,0.003892792466991486,0.00017321615234047817
0.0031089105500636113,0.003896370674709571,0.0001771107339113287
0.0023014320083655847,0.0038990758459887856,0.00018100845717167787
0.0016660917314504189,0.0039010596078586936,0.00018490852489860162
0.001247467609447196,0.0039025163875291424,0.00018881031289629555
0.0010863878258343233,0.0039036833152467833,0.0001927134127476835
0.0012124655714011174,0.003904832741945401,0.0001966176707762796
0.0016373032358235442,0.003906257626349013,0.00020052321596042682
0.002349153484249724,0.0039082508547090495,0.00020443047020095585
0.003309806669492776,0.00391108033478592,0.00020834013579570335
0.004454329667951657,0.003914962402954643,0.00021225315716457362
0.005693969451374207,0.003920036552514306,0.00021617065664230809
0.0069221634965344414,0.00392634461898826,0.00022009384722805936
0.008023230156366553,0.00393381731581471,0.00022402392819546085
0.00888290082565441,0.003942270381305721,0.00022796197204402106
0.009399447899216396,0.003951411555668157,0.000231908813012508
0.009493928056419073,0.003960858243645974,0.00023586494791216507
0.009118109713190426,0.003970164262530779,0.00023983045916525344
0.008259001180455298,0.003978852817977602,0.00024380496770550763
0.006939504618490958,0.003986452070877076,0.00024778762014993495
0.005215425924892708,0.003992529536148768,0.0002517771109534479
0.0031695822724359226,0.0039967220402474316,0.000255771736741646
0.0009038638114848897,0.003998758763289392,0.00025976947714341443
-0.0014700716467827366,0.003998475659371743,0.000263768094354745
-0.003840926032988334,0.003995820160531857,0.0002677652422646968
-0.0061080716630933915,0.003990845661683816,0.00027175857517580464
-0.008191229065680088,0.003983696011319429,0.00027574584601230625
-0.010038594143925885,0.003974581099714626,0.0002797249845678233
-0.01163244346992724,0.003963745580907699,0.00028369414790813444
-0.012991282684304443,0.003951433717830583,0.00028765173755750356
-0.014167893609821566,0.00393785412968352,0.0002915963814812606
-0.01524315130177303,0.0039231486072277225,0.00029552688284971624
-0.016316030603574786,0.003907369016275049,0.00029944214166146763
-0.017490790638675518,0.003890465605653924,0.00030334105897243213
-0.018862997741101235,0.0038722887114640355,0.0003072224361309911
-0.02050665082746246,0.0038526038871797537,0.000311084882430313
-0.022464799471142112,0.0038311181620304512,0.0003149267434549181
-0.024745379781904147,0.003807513072403928,0.0003187460590721353
-0.027322630967218785,0.0037814790670293668,0.000322540555141852
-0.030142965255130445,0.0037527462689181923,0.00032630766780982574
-0.03313324624325719,0.0037211081631689986,0.00033004459502586933
-0.03620942204671342,0.0036864368290240135,0.00033374836752196585
-0.03928414759710842,0.0036486900442021025,0.0003374159309585789
-0.04227288860054667,0.0036079115261032748,0.0003410442317437316
-0.045098609665304906,0.003564225776970349,0.0003446303003952684
-0.0476954098555849,0.0035178287672099043,0.0003481713276673585
-0.05001143284911891,0.0034689753458575522,0.0003516647297238922
-0.05201111949797945,0.0034179640696840033,0.000355108199431663
-0.05367657632496405,0.0033651202217725314,0.00035849974157739126
-0.05500774995063419,0.0033107780586347324,0.0003618376907175949
-0.056021291662052504,0.003255263537828389,0.00036512071151582643
-0.056748325086767325,0.003198878729453979,0.00036834778264946763
-0.057231607096266054,0.0031418887633624625,0.00037151816639587585
-0.057522667756311666,0.0030845116259361734,0.0003746313665905252
-0.05767936543685105,0.003026910609339592,0.00037768707770816307
-0.05776395655921144,0.002969188948341561,0.00038068512748700367
-0.05784146457476971,0.00291138623777457,0.00038362541508006175
-0.05797803192943056,0.00285347648952247,0.0003865078464437103
-0.05823904870895474,0.0027953679492032776,0.00038933226866307317
-0.05868702895571213,0.002736904910370944,0.00039209840509286026
-0.05937932703761611,0.0026778717323742798,0.0003948057934142329
-0.06036581128629464,0.0026179991632123245,0.0003974537288620262
-0.061686568164264086,0.002556972973487045,0.0004000412149303759
-0.0633696926240117,0.0024944448430929073,0.0004025669238386659
-0.06542932692010087,0.002430045333320851,0.0004050291689268728
-0.06786426990840409,0.0023633985349065987,0.00040742589086098654
-0.0706575023658016,0.002294137648769496,0.00040975465895282456
-0.07377688622044348,0.0022219204544763733,0.0004120126880044475
-0.07717731778889679,0.002146443352471703,0.0004141968699079215
-0.08080467022164352,0.0020674523584664328,0.00041630381776339056
-0.08460149092152479,0.0019847492778948487,0.0004183299185815712
-0.08851349093854373,0.0018981917869648145,0.00042027138911400106
-0.092495064371737,0.0018076875093096742,0.0004221243287621383
-0.09651227237119517,0.001713183840938208,0.0004238847644372622
-0.10054287099126026,0.0016146562692569803,0.0004255486844923598
-0.10457410616988647,0.001512097780676407,0.0004271120615173265
-0.1085993970175024,0.0014055110290827125,0.00042857086592220603
-0.11261477815800804,0.0012949039414949573,0.00042992107340749486
-0.11661561679500183,0.0011802887440184524,0.0004311586697502516
-0.12059404682124451,0.001061683912210329,0.000432279656078366
-0.12453770235094012,0.0009391180376242368,0.0004332800570532833
-0.1284302589696617,0.0008126340569639359,0.00043415593310057736
-0.13225373996721526,0.0006822920574954973,0.00043490339615780707
-0.13599180758309107,0.0005481692837203441,0.000435518626828415
-0.13963289418801667,0.0004103569328347903,0.00043599788993669257
-0.14317228775235674,0.00026895434186460353,0.0004363375455740423
-0.14661290355851686,0.00012406174620916674,0.0004365340536180792
-0.14996495464710763,-2.4227182893645497e-05,0.00043658397089973695
-0.1532448063758637,-0.0001758320634051312,0.0004364839412765876
-0.1564730920179889,-0.0003306910126020575,0.000436230679738584
-0.1596719946413539,-0.000488763555931729,0.00043582095245431714
-0.1628616561956185,-0.0006500303813502151,0.00043525155548567617
-0.16605588457560375,-0.0008144891517358262,0.0004345192957191332
-0.16925752148356096,-0.0009821458547654087,0.00043362097821588255
-0.1724539712619979,-0.0011530016011381881,0.00043255340448793074
-0.17561352691984264,-0.0013270353502291084,0.0004313133860122471
-0.17868323359575727,-0.0015041837304869082,0.00042989777647188906
-0.18158903366510523,-0.0016843198641173394,0.0004283035246745869
-0.18423882127102348,-0.0018672337915854038,0.00042652774784673555
-0.1865287576090082,-0.0020526175810254197,0.00042456782216043017
-0.18835274162610205,-0.002240058330642975,0.000422421484204596
-0.18961438359293784,-0.002429041893252495,0.00042008693409264824
-0.19024026809310676,-0.002618969219095517,0.00041756292853647423
-0.19019271581863592,-0.0028091857110513884,0.0004148488510714008
-0.18947978634568613,-0.002999021962133549,0.00041194474723480834
-0.18816024978366414,-0.0031878419801982245,0.00040885131526364245
-0.18634198198871796,-0.0033750930960844156,0.0004055698477255011
-0.18417364306736503,-0.0035603509086124573,0.0004021021257231527
-0.18183110167931257,-0.003743353280985796,0.00039845027362835355
-0.17950114701716965,-0.003924019405334037,0.00039461658728519365
-0.17736511570406402,-0.004102452536694654,0.0003906033513141793
-0.17558436349467382,-0.004278927276294023,0.00038641266140768495
-0.1742886632396208,-0.00445386378966117,0.0003820462658747074
-0.1735680191561395,-0.0046277921308590505,0.00037750543791444726
-0.17346803548064646,-0.004801310158177444,0.000372790886769929
-0.17398871397408047,-0.004975038532904807,0.00036790271242438785
-0.17508635897895675,-0.005149576069381326,0.0003628404051232448
-0.17667820265420223,-0.005325458350197905,0.0003576028879134552
-0.17864939313769565,-0.005503122148093854,0.00035218859766430934
-0.18086196377169034,-0.005682877826548547,0.00034659559767698814
-0.18316520024689356,-0.005864891408557839,0.00034082171305943495
-0.18540654263941966,-0.006049177280000996,0.0003348646787151555
-0.1874421216024576,-0.006235601612121934,0.00032872228926909407
-0.18914634957680967,-0.006423895847711568,0.00032239254053917734
-0.19042024920908196,-0.006613679147104514,0.0003158737530417693
-0.19119798398369744,-0.006804488263700904,0.00030916466933636656
-0.1914506487231412,-0.006995812580054324,0.00030226451891448897
-0.19118642260990631,-0.007187131115720847,0.0002951730470666014
-0.19044683825306732,-0.007377947746152334,0.0002878905076356648
-0.18929975480009228,-0.007567821042678913,0.00028041762324124917
-0.18783017816121847,-0.007756386009159569,0.0002727555197153299
-0.1861302156993162,-0.007943366206089836,0.00026490564360770523
-0.18428933521801458,-0.008128575981548501,0.00025686967251388606
-0.1823858772291271,-0.008311913587772071,0.0002486494277292258
-0.18048048579690787,-0.00849334676928509,0.0002402467975506972
-0.1786118009156639,-0.008672892912641375,0.00023166367770973396
-0.1767944796069079,-0.008850596052902662,0.00022290193322696195
-0.17501947883942923,-0.00902650303212583,0.0002139633836844477
-0.17325654822874448,-0.009200641045659916,0.00020484981164555483
-0.17145890142447617,-0.009372998770486526,0.00019556299173748162
-0.16956986430849808,-0.009543513153353013,0.00018610473577556185
-0.16753090586788172,-0.009712063538441203,0.00017647694742966473
-0.16529006434729543,-0.009878474023548791,0.00016668167864866974
-0.16280964749213947,-0.01004252387946851,0.0001567211796971611
-0.16007222890768075,-0.01020396481766842,0.00014659793534859263
-0.15708420304792026,-0.010362543033646221,0.0001363146814229353
-0.15387646075871989,-0.010518023365549542,0.00012587439822333744
-0.15050220853832572,-0.010670212700198065,0.00011528028019046364
-0.14703240506857654,-0.010818980007001516,0.00010453568383686385
-0.14354933794535488,-0.010964270878508481,9.364405839410884e-05
-0.14013856805675823,-0.011106114831509539,8.260886553909983e-05
-0.13687941834648423,-0.01124462382471116,7.143349621098949e-05
-0.1338346939622409,-0.011379980880865522,6.012119385820114e-05
-0.13104101216835257,-0.011512418733930819,4.867499405080297e-05
-0.12850145449818506,-0.011642189967264087,3.709768970020552e-05
-0.12618205102023955,-0.0117695317200233,2.5391828856561824e-05
-0.1240129824741908,-0.011894629236770515,1.3559748378164916e-05
-0.12189456122612545,-0.012017583008620674,1.6036422554693222e-06
-0.1197072372563399,-0.012138383907861906,-1.0474341202771967e-05
-0.11732418982834403,-0.012256899621404247,-2.2671982967405043e-05
-0.11462464630045881,-0.01237287403946865,-3.498686979784149e-05
-0.11150612953942128,-0.01248593942738859,-4.741627653127011e-05
-0.10789436864184597,-0.012595639676479224,-5.995706608320402e-05
-0.10375022452717429,-0.012701461973063734,-7.26056169079755e-05
-0.09907329496857654,-0.01280287373281161,-8.535778476091317e-05
-0.09390191849285587,-0.012899361339542326,-9.820890229709014e-05
-0.08830944630570065,-0.012990467021941605,-0.0001111538164778321
-0.08239707813743956,-0.013075820284163176,-0.0001241869601308845
-0.07628409024068103,-0.013155160868352236,-0.00013730245070714222
-0.07009666500910144,-0.013228351245977127,-0.0001504942067643069
-0.06395668351416839,-0.013295377920238763,-0.00016375607134741483
-0.057971837407367846,-0.01335634218069953,-0.00017708193139788397
-0.052228291246124756,-0.013411442245026276,-0.00019046582361074686
-0.04678676650581912,-0.013460949773902248,-0.00020390201962021114
-0.0416822213554568,-0.013505184267832886,-0.0002173850866410787
-0.036926440123376716,-0.013544488598572303,-0.0002309099230742813
-0.03251221419622237,-0.013579207925732103,-0.0002444717713364335
-0.02841769790902165,-0.013609672881784725,-0.0002580662117401919
-0.024610015629316646,-0.013636186738553893,-0.0002716891415503612
-0.021048022929483212,-0.013659015757833293,-0.0002853367427985548
-0.017684769709878423,-0.013678382154152973,-0.0002990054417545479
-0.014470294408825347,-0.013694459686212324,-0.00031269186267473057
-0.011355001361223825,-0.013707372334097348,-0.0003263927786848854
-0.008293423006943032,-0.01371719654628143,-0.00034010506312507477
-0.005247879392240926,-0.013723967197481023,-0.000353825644996956
-0.002191418475434352,-0.013727686846414861,-0.000367551472018904
0.0008905909814995552,-0.013728337260161828,-0.0003812794840721923
0.004000687438369612,-0.013725891620951893,-0.0003950065985127492
0.007131438265243413,-0.013720325558100085,-0.00040872970710227515
0.010268959000557137,-0.013711625359467185,-0.0004224456825610588
0.013396893089936338,-0.013699792433421938,-0.00043615139145750337
0.016499890863751372,-0.013684844041445094,-0.0004498437096949369
0.019566028187935697,-0.01366681108191925,-0.00046351953725661904
0.022588128856132456,-0.013645734003397216,-0.00047717580979927726
0.025564197028562944,-0.013621657840454868,-0.0004908095057212033
0.028496991116503757,-0.013594627246382334,-0.000504417648264622
0.03139253665852692,-0.01356468248249482,-0.0005179973031290606
0.034257576308366275,-0.013531857426011373,-0.0005315455730833137
0.03709655178582905,-0.013496180361964276,-0.0005450595919773015
0.039909115168669226,-0.013457677528487028,-0.0005585365209225271
0.042688958766473134,-0.013416378491519457,-0.0005719735489325303
0.045424120278441206,-0.013372321951997,-0.0005853678991542885
0.048098324159409095,-0.013325560729778075,-0.0005987168404951761
0.05069269558862841,-0.013276165219904056,-0.0006120177034700171
0.0531874267429795,-0.013224225158738253,-0.0006252678986593382
0.055563450117565624,-0.01316984972030798,-0.0006384649360988613
0.057804401315516105,-0.013113165794591439,-0.0006516064438563111
0.05989891363804337,-0.013054314137114659,-0.0006646901838221641
0.061842882275207775,-0.012993443239158034,-0.0006777140625103005
0.06364115941488398,-0.012930701218312989,-0.000690676134739036
0.06530825165881222,-0.01286622651277614,-0.0007035745986045806
0.06686786586282914,-0.01280013845401532,-0.0007164077810879764
0.06835149652216203,-0.012732528772822823,-0.0007291741147013955
0.06979650086943304,-0.012663454774127026,-0.0007418721064748705
0.07124405633101653,-0.0125929344955268,-0.0007545003011096974
0.07273705114594319,-0.01252094394178832,-0.0007670572403283549
0.07431756567288814,-0.012447416633378904,-0.0007795414206159385
0.07602340584426207,-0.012372246147620329,-0.0007919512520064381
0.07788331633234984,-0.012295292786532023,-0.0008042850214735143
0.079911043772599,-0.012216395606479549,-0.0008165408656700201
0.08209908281137258,-0.012135390543187562,-0.0008287167587448537
0.08441334967255178,-0.0120521343269456,-0.0008408105211799203
0.08679006179519,-0.01196653262121173,-0.0008528198546539989
0.08913590814947457,-0.011878569636239398,-0.0008647424057827245
0.09133227864728768,-0.011788335542841017,-0.0008765758583722647
0.0932437997620254,-0.011696047503636361,-0.0008883180498955034
0.09473067326667504,-0.011602060267122011,-0.0008999671037808826
