frame_number,force
0,588.417000000039
1,588.2024416355523
2,587.9974146606103
3,587.8105799221515
4,587.6490108183889
5,587.517708188531
6,587.4193386374882
7,587.3541530375824
8,587.3200584760899
9,587.3128387717964
10,587.3265202701051
11,587.3538732067142
12,587.3870329596245
13,587.4182084420195
14,587.4404129408088
15,587.448121180773
16,587.4377448922903
17,587.4078423748191
18,587.3590352985493
19,587.2936733025205
20,587.215333774023
21,587.1282629238533
22,587.0368595862122
23,586.9452724693235
24,586.8571298516692
25,586.7753768724524
26,586.7021883775111
27,586.6389501033937
28,586.5863265927251
29,586.5444377558467
30,586.5131470322103
31,586.492430821025
32,586.4827612333733
33,586.4854109317848
34,586.5025983284277
35,586.5374297769491
36,586.5936379219487
37,586.6751437494511
38,586.7854864297964
39,586.9271820065812
40,587.1010968510404
41,587.3059487078964
42,587.5380567798773
43,587.7914309725263
44,588.0582177485907
45,588.3294336570017
46,588.5958562060277
47,588.8489247676898
48,589.0815226749468
49,589.2885475474853
50,589.4672198656067
51,589.6171236208388
52,589.740007781773
53,589.8393951701287
54,589.9200489069455
55,589.9873477467804
56,590.0466278673503
57,590.1025550034476
58,590.1585896202432
59,590.2166012546137
60,590.2766814096958
61,590.3371933527156
62,590.3950729971616
63,590.4463553174157
64,590.4868516263226
65,590.5128599697987
66,590.5217766374565
67,590.5125030800837
68,590.485591955682
69,590.443120646361
70,590.388319029241
71,590.3250285348662
72,590.2571239262836
73,590.1880502327866
74,590.1205920296252
75,590.0569129079583
76,589.9988080924588
77,589.9480360802454
78,589.9065680026214
79,589.8766268488695
80,589.860464896536
81,589.8599179211044
82,589.8758504764157
83,589.9076430478466
84,589.9528619443846
85,590.0072098824895
86,590.0647971950543
87,590.1187151157119
88,590.1618465072154
89,590.1878164284029
90,590.1919506921225
91,590.1720734913371
92,590.1289674637369
93,590.0663747199302
94,589.9905211181302
95,589.9092446314685
96,589.8308637725595
97,589.7629405147817
98,589.7111047300705
99,589.678125325442
100,589.6634081067897
101,589.6630369560836
102,589.6703638497991
103,589.6770445744719
104,589.6743470493225
105,589.6545271124954
106,589.6120584600108
107,589.5445179448973
108,589.4529736281552
109,589.3418037219808
110,589.2179797341477
111,589.0899529611921
112,588.9663564265
113,588.8547499694824
114,588.7605996975078
115,588.6866252948935
116,588.6325976332723
117,588.5956202648792
118,588.5708530920559
119,588.552533198457
120,588.535064830393
121,588.5139376972174
122,588.4862920781941
123,588.4510464111735
124,588.4086049937906
125,588.3602520416923
126,588.3074010798033
127,588.250890898328
128,588.1904923064589
129,588.1247219666827
130,588.0509739155068
131,587.9659027281007
132,587.8659469888761
133,587.7478792731615
134,587.6093015387555
135,587.4490477326665
136,587.2674825332789
137,587.0666850244603
138,586.8504885781138
139,586.6243380993333
140,586.3949409126205
141,586.1697244966501
142,585.9561606373426
143,585.7610613825095
144,585.5899788837955
145,585.4468221785677
146,585.3337358138241
147,585.2512044077989
148,585.1982982735631
149,585.1729711173324
150,585.1723452466381
151,585.1929533489265
152,585.230935196016
153,585.282200295766
154,585.3425600185592
155,585.4078192291605
156,585.4738164747681
157,585.5364174555566
158,585.5914909432189
159,585.6349195519846
160,585.6627064896157
161,585.671217857076
162,585.6575468361235
163,585.6199270197051
164,585.558092328903
165,585.4734930468251
166,585.3693164569803
167,585.2503039167817
168,585.1223879005979
169,584.9921869507092
170,584.866402111767
171,584.751170551608
172,584.6514540335922
173,584.5705577918452
174,584.5098687313038
175,584.4688578559484
176,584.4453226123164
177,584.4357894509833
178,584.4359861423947
179,584.4413182517752
180,584.4473133353868
181,584.4500098715259
182,584.4462632473354
183,584.4339292482529
184,584.4118913403815
185,584.3799409728432
186,584.3385827291586
187,584.288870543451
188,584.232354663848
189,584.1711453266003
190,584.1080242178836
191,584.0464982151642
192,583.9907010662614
193,583.9450950157877
194,583.9139877564489
195,583.9009367710709
196,583.908136984415
197,583.9358778681782
198,583.9821448766636
199,584.0424463633532
200,584.1099464597676
201,584.1759467412743
202,584.230692209911
203,584.264412155048
204,584.268463708366
205,584.2364244006343
206,584.1649756396034
207,584.05443505591
208,583.9088366776399
209,583.7355236444533
210,583.5443004436642
211,583.3462706291145
212,583.1525367995157
213,582.9729502146888
214,582.8150774720294
215,582.6835178477119
216,582.5796597151067
217,582.501898412877
218,582.4462525270052
219,582.407235722938
220,582.3788020443249
221,582.3552005344021
222,582.3316319022779
223,582.3046617197243
224,582.272394215924
225,582.2344482112159
226,582.1917950798108
227,582.1465060223718
228,582.1014229797108
229,582.0597469905911
230,582.0245488628308
231,581.9982360234534
232,581.9820317189568
233,581.9755291494771
234,581.9763804842302
235,581.9801786610323
236,581.9805883618458
237,581.9697678851909
238,581.9390826512314
239,581.8800478520766
240,581.7853714653181
241,581.6499258696913
242,581.4714818330159
243,581.251093580278
244,580.9930950681384
245,580.7047222253052
246,580.3954130362807
247,580.0758759032171
248,579.7570599719128
249,579.449184498314
250,579.1609625391062
251,578.8990943590885
252,578.6680409057209
253,578.4700421531875
254,578.305321938928
255,578.1724141028916
256,578.0685499510691
257,577.990060969012
258,577.9327670851094
259,577.8923299577822
260,577.8645494387915
261,577.8455806449182
262,577.8320602042851
263,577.8211466754591
264,577.810486214174
265,577.798109373908
266,577.782267636047
267,577.7612427409082
268,577.7331904441752
269,577.696079570143
270,577.6477512980002
271,577.5860822405845
272,577.5092151354081
273,577.4158201986434
274,577.3053528663219
275,577.1782752027547
276,577.0362108637503
277,576.8820051553782
278,576.7196631067641
279,576.5541483245912
280,576.3910479442228
281,576.2361362321136
282,576.0948925865629
283,575.9720445914303
284,575.8712021797064
285,575.7946141768512
286,575.74303470717
287,575.7156784850233
288,575.7102779850121
289,575.7232835830788
290,575.7502274012099
291,575.7862145547372
292,575.8264552386931
293,575.8667398996505
294,575.9037909143626
295,575.9354724044903
296,575.960869348753
297,575.9802449257331
298,575.9948741081572
299,576.0067625638832
300,576.0182916029113
301,576.0318515796362
302,576.0495188295615
303,576.0728062711484
304,576.1024939566662
305,576.1385300848139
306,576.1799877294247
307,576.2250714932336
308,576.2711863357281
309,576.3150907279977
310,576.3531450854989
311,576.381638119335
312,576.3971422006429
313,576.3968284432647
314,576.3786770223137
315,576.3415550216074
316,576.2851888057094
317,576.210099887984
318,576.1175790682952
319,576.0097404015124
320,575.8896392322625
321,575.7613868794057
322,575.6301772613641
323,575.5021576909138
324,575.3841054998405
325,575.2829057277321
326,575.2048679027811
327,575.1549642460328
328,575.1360997509078
329,575.1485304011372
330,575.1895338511931
331,575.2534078263789
332,575.3318250657954
333,575.4145210406277
334,575.4902479661151
335,575.5478987969487
336,575.5776773857846
337,575.572163572693
338,575.5271162140727
339,575.4418965702276
340,575.3194705523003
341,575.1660257274722
342,574.9902900503903
343,574.8026616660774
344,574.6142644434842
345,574.4360377140321
346,574.2779470733925
347,574.1483674740921
348,574.0536528067076
349,573.997881363238
350,573.9827606969926
351,574.0076840407232
352,574.0699375601898
353,574.1650491740021
354,574.2872476597917
355,574.429979094488
356,574.5864190345502
357,574.7499270997674
358,574.9144073502268
359,575.07455222222
360,575.2259631307079
361,575.3651662985744
362,575.4895697797505
363,575.5974167492939
364,575.6877736523161
365,575.7605593287475
366,575.8165868170154
367,575.8575698396656
368,575.886057735898
369,575.9053028525556
370,575.919099909218
371,575.9316317891856
372,575.9473133489798
373,575.9705867436403
374,576.0056258852486
375,576.0559531655244
376,576.1240297492069
377,576.2109167514332
378,576.3160949087999
379,576.4374823343564
380,576.5716364955882
381,576.7140899094214
382,576.8597470585737
383,577.0032583773199
384,577.1392914156118
385,577.2626473230407
386,577.3682273273596
387,577.4509295607411
388,577.5056149601561
389,577.5272797674738
390,577.511506518452
391,577.4551708784055
392,577.3572951465084
393,577.2198780496142
394,577.0485031143173
395,576.8525410548947
396,576.6448158248533
397,576.4406926624775
398,576.2566559910007
399,576.1085536293226
400,576.009765168861
401,575.969586284525
402,575.9921014440681
403,576.0757488096644
404,576.2136667602313
405,576.3947634111227
406,576.6053046777221
407,576.8307206632585
408,577.057314245134
409,577.2736188340812
410,577.471267396643
411,577.6453584158825
412,577.7943952185184
413,577.9199156486868
414,578.0259310586491
415,578.118278991848
416,578.203971910882
417,578.2905910667554
418,578.3857329346921
419,578.4964853027536
420,578.6289126521266
421,578.7875627420296
422,578.9750399274898
423,579.1917073177373
424,579.4355868064822
425,579.7025235124632
426,579.9866463087718
427,580.2810811592414
428,580.5787915887928
429,580.8733741590028
430,581.1596468971638
431,581.4339310477511
432,581.6940179518259
433,581.9388951302449
434,582.1683468220375
435,582.3825422474068
436,582.5816998724176
437,582.7658848500118
438,582.9349650626557
439,583.0887184770269
440,583.2270498433325
441,583.3502431777508
442,583.4591628309038
443,583.5553348003958
444,583.6408862192624
445,583.7183673631099
446,583.7905043784529
447,583.8599356357255
448,583.9289847764512
449,583.9995215790083
450,584.072946563804
451,584.1502960764558
452,584.2324105890074
453,584.3200733786335
454,584.4140365284384
455,584.5148993375649
456,584.6228636361736
457,584.7374399977185
458,584.8572056612109
459,584.979708333503
460,585.1015689525993
461,585.2187803473741
462,585.327156594686
463,585.4228709434025
464,585.5030104883099
465,585.5660546786476
466,585.6121685569625
467,585.6432267512828
468,585.6625571199363
469,585.6744763417726
470,585.6837397553093
471,585.6950304406163
472,585.7125812225577
473,585.7399725687192
474,585.780090290802
475,585.8351809342987
476,585.9069302395155
477,585.9965053701125
478,586.1045250249867
479,586.2309503245475
480,586.3749307736769
481,586.5346800342356
482,586.7074617978193
483,586.8897225807651
484,587.0773479611707
485,587.2659864769146
486,587.4513880476484
487,587.6297188636199
488,587.7978289195107
489,587.9534595765197
490,588.0953826269591
491,588.223461586414
492,588.3386320837158
493,588.4428129111772
494,588.5387656882949
495,588.629908137015
496,588.7200684817698
497,588.8131685776862
498,588.9128431587211
499,589.0220265244325
500,589.142552440499
501,589.2748164409651
502,589.4175481877319
503,589.5677379366986
504,589.7207499562528
505,589.8706326637855
506,590.0106086921122
507,590.1337096754194
508,590.2335054966095
509,590.3048498927268
510,590.3445257070144
511,590.3516560919288
512,590.3277844513038
513,590.2766079798852
514,590.2034337003868
515,590.1144741942333
516,590.0161095351889
517,589.9142310577713
518,589.813760669134
519,589.7183989618027
520,589.6305993485366
521,589.551721549621
522,589.4823079212199
523,589.4224359790903
524,589.3721000873983
525,589.3315589593788
526,589.3015751774634
527,589.2834887394209
528,589.2791046830948
529,589.2904128996372
530,589.3191827727335
531,589.3664937551417
532,589.4322842926165
533,589.5150152295911
534,589.61152970172
535,589.7171452014015
536,589.8259560867006
537,589.931286002719
538,590.0262222962466
539,590.1041757201587
540,590.1594183670335
541,590.1875557084164
542,590.1858907697531
543,590.153641214677
544,590.0919753164983
545,590.0038494799593
546,589.8936600349289
547,589.766755069867
548,589.6288792157529
549,589.4856392242765
550,589.3420706421317
551,589.2023506368956
552,589.0696499852575
553,588.946075020443
554,588.8326473308487
555,588.7293085522125
556,588.6349826579991
557,588.5477370012752
558,588.4650546874285
559,588.38419396806
560,588.3025844467272
561,588.218196756879
562,588.1298246514856
563,588.0372392360259
564,587.9412057351559
565,587.8433776407992
566,587.7460923631594
567,587.6520913212022
568,587.5641891651364
569,587.4849286542383
570,587.4162702263078
571,587.3593642507261
572,587.3144368154294
573,587.2807932297875
574,587.2569158373537
575,587.2406173403764
576,587.2292184593142
577,587.2197401212497
578,587.2091115873733
579,587.1943895095784
580,587.1729743011788
581,587.1428077280186
582,587.102530334544
583,587.0515701081497
584,586.9901429694427
585,586.919177044608
586,586.8402056418518
587,586.7552857928697
588,586.6669860672888
589,586.5784555539823
590,586.4935417648683
591,586.4168825984657
592,586.3538818181723
593,586.3105041885923
594,586.2928790900285
595,586.3067485362116
596,586.356826242927
597,586.4461573630373
598,586.5755799107919
599,586.7433746247904
600,586.9451586293691
601,587.1740544752818
602,587.4211499820548
603,587.6762316311846
604,587.9287185303504
605,588.168669268873
606,588.3877090704596
607,588.5797428323265
608,588.741373510323
609,588.8720067138812
610,588.973662031974
611,589.0505267915087
612,589.1082979369636
613,589.1533752607153
614,589.1919915823411
615,589.2293863674789
616,589.2691424023554
617,589.3128003344156
618,589.3598339379408
619,589.4080083061998
620,589.4540600623743
621,589.4945496786489
622,589.5266744040106
623,589.5488361130178
624,589.5608431582104
625,589.5637506937977
626,589.5594479254977
627,589.5501436352084
628,589.5378878700008
629,589.5242319407994
630,589.5100955621858
631,589.495872847904
632,589.4817537334012
633,589.4681745693771
634,589.456269446442
635,589.4481895791619
636,589.4471920134619
637,589.4574608387777
638,589.4836881387653
639,589.5304773926144
640,589.6016392838523
641,589.6994623210686
642,589.8240732749588
643,589.9730223617985
644,590.1411973263743
645,590.3210967014121
646,590.5034173780849
647,590.6778645631315
648,590.8340708595604
649,590.9625032765392
650,591.0552450816159
651,591.106571499635
652,591.1132851968871
653,591.0748192550543
654,590.9931402191373
655,590.8724934388223
656,590.7190373275705
657,590.540416372051
658,590.345313522153
659,590.1429947682516
660,589.9428329118731
661,589.75380201565
662,589.5839676480559
663,589.4400303028935
664,589.3269867122465
665,589.2479583549224
666,589.204208270267
667,589.1953293434171
668,589.2195453955521
669,589.274038120712
670,589.3552171549543
671,589.4588924407639
672,589.5803717212497
673,589.7145579363454
674,589.8561280193995
675,589.9998318411091
676,590.140891244593
677,590.2754394951656
678,590.4009214243026
679,590.5163591400966
680,590.6223869796725
681,590.7209947939064
682,590.814987426185
683,590.907243243219
684,590.9999112885945
685,591.0937092364468
686,591.1874647842122
687,591.2779903901504
688,591.3603180090366
689,591.4282621031917
690,591.4752271728291
691,591.4951370199549
692,591.48335478585
693,591.4374864901661
694,591.3579881540896
695,591.2485049162981
696,591.1158705086058
697,590.9697112506516
698,590.821639633247
699,590.6840844719457
700,590.5688814835114
701,590.4858249009028
702,590.4414239679893
703,590.4380840096167
704,590.4738373320151
705,590.5426218337018
706,590.6350024576793
707,590.7391922059109
708,590.8422458735805
709,590.931325594912
710,590.9949422392954
711,591.024069001858
712,591.0130234007524
713,590.9600260990351
714,590.8673682927946
715,590.7411620876928
716,590.5907138954258
717,590.4276282876882
718,590.264784345502
719,590.1153105677048
720,589.9916320111595
721,589.9046094443853
722,589.8627662362875
723,589.8716140885889
724,589.9331285814202
725,590.0454614345738
726,590.2029829652463
727,590.3967121016834
728,590.6151162304269
729,590.8451755845996
730,591.0735481391471
731,591.2876726005993
732,591.476705375323
733,591.6322597747036
734,591.7489555078671
735,591.8247812247515
736,591.8612400263202
737,591.8632164243904
738,591.8385059642729
739,591.7969992922433
740,591.7495876544033
741,591.7069215541677
742,591.6781895895009
743,591.6700826244565
744,591.6860695158447
745,591.7260549785369
746,591.7864490994077
747,591.8606564990199
748,591.9399587744692
749,592.0146915305414
750,592.0755330197856
751,592.1146807479737
752,592.1267247631544
753,592.1091144651442
754,592.0622163205858
755,591.989032860212
756,591.8946818439827
757,591.7857268057555
758,591.6694289397184
759,591.552979389231
760,591.4427812768278
761,591.343868758759
762,591.2595462575953
763,591.1912862825928
764,591.1388514799327
765,591.1005446956223
766,591.0734839183219
767,591.0538615852283
768,591.0372340633629
769,591.0189174762666
770,590.9945061831154
771,590.9604266154809
772,590.9143704739196
773,590.8554632593042
774,590.784105030608
775,590.7015218387527
776,590.6091477626987
777,590.5080051963843
778,590.3982585908466
779,590.2790746893444
780,590.1488359497388
781,590.0056508038876
782,589.8480196085782
783,589.6754796519933
784,589.4890785788649
785,589.2915896774358
786,589.0874447502629
787,588.8824036089302
788,588.6830098096918
789,588.49590406759
790,588.3270798188036
791,588.181176803972
792,588.060923311931
793,587.966842115563
794,587.8973048990856
795,587.8489489377109
796,587.8173814004388
797,587.7980236178298
798,587.7869110139362
799,587.7812727575009
800,587.7797660656177
801,587.7823206685505
802,587.7896473128654
803,587.8025658392376
804,587.8213724225492
805,587.8454404985082
806,587.8731369272971
807,587.9020052736238
808,587.929095871529
809,587.9513209182556
810,587.9657484081462
811,587.9697933570282
812,587.96130987627
813,587.9386191400918
814,587.900510555321
815,587.8462381239194
816,587.7755279670369
817,587.688619107237
818,587.5863543021662
819,587.470304505758
820,587.3428646679017
821,587.2072382943753
822,587.0672595793227
823,586.9270720528609
824,586.79074945788
825,586.6619701672331
826,586.5438306676543
827,586.4388222855526
828,586.3489266161029
829,586.275740532252
830,586.2205438521054
831,586.18426765486
832,586.1673804869307
833,586.1697536434207
834,586.1905764333558
835,586.2283624579103
836,586.2810353989912
837,586.3460425942187
838,586.4204436140126
839,586.5009570277542
840,586.5839933477291
841,586.6657239522359
842,586.7422234813085
843,586.8096905368576
844,586.8647205740043
845,586.9045880808695
846,586.9274912876142
847,586.9327165804369
848,586.9206898914763
849,586.8928968872084
850,586.8516709332249
851,586.7998728645674
852,586.7405250674436
853,586.6764984121259
854,586.6103487360128
855,586.5443433398892
856,586.4806351108706
857,586.4214796439759
858,586.369376459299
859,586.3270459898723
860,586.2972074664488
861,586.2821754524072
862,586.2833356709637
863,586.300599359195
864,586.3319691751847
865,586.3733593268504
866,586.4187715022088
867,586.4608308163833
868,586.4915712249308
869,586.5032946310716
870,586.4893485028912
871,586.4447419262931
872,586.3665865459806
873,586.2543736842225
874,586.1100909002798
875,585.9381620661618
876,585.7451848189967
877,585.5394558928388
878,585.330318858237
879,585.1274127669361
880,584.9399134503925
881,584.7758418539503
882,584.6414904949493
883,584.5410052896
884,584.4761517427389
885,584.4462837658839
886,584.4485145847378
887,584.4780603384573
888,584.5286988693545
889,584.5932799120527
890,584.6642457347565
891,584.7341522730155
892,584.7961883445163
893,584.8446650213715
894,584.8754134268075
895,584.8860232550363
896,584.8758892920137
897,584.8460876214481
898,584.7991386817218
899,584.7387078727774
900,584.6692591316813
901,584.5956487762021
902,584.5226507392981
903,584.4544360796726
904,584.3940663941474
905,584.343079794783
906,584.3012417955867
907,584.2665129382324
908,584.2352627311589
909,584.2027271535377
910,584.1636517149685
911,584.1130045462096
912,584.0466271151897
913,583.9617240820212
914,583.857144061932
915,583.73343785515
916,583.5927010983072
917,583.438228478746
918,583.274030291597
