frame_number,force
0,521.3980700000375
1,520.9717523277767
2,520.5658979452344
3,520.1993213715904
4,519.8877444584413
5,519.6427193973548
6,519.4710108055883
7,519.3744539360724
8,519.3502439422514
9,519.3915742006725
10,519.4885318601597
11,519.629163402864
12,519.8006259146125
13,519.990335583061
14,520.1870154838399
15,520.3815349087339
16,520.5674361628433
17,520.7410776532544
18,520.9013853832934
19,521.0492809339813
20,521.1869127483276
21,521.3168353336201
22,521.4412627913989
23,521.5614946514906
24,521.6775874773549
25,521.788317858775
26,521.8914394279584
27,521.9841772292469
28,522.0638427752389
29,522.1284186401384
30,522.1769705685304
31,522.2097974376812
32,522.2283083793116
33,522.2346916352676
34,522.2314809704051
35,522.2211264406752
36,522.2056545664825
37,522.1864742758402
38,522.1643533226528
39,522.1395574331766
40,522.1121144368302
41,522.0821418584549
42,522.0501670844008
43,522.0173778705395
44,521.9857577231039
45,521.958077942626
46,521.9377395656024
47,521.9284823995674
48,521.9339961730249
49,521.9574804934341
50,522.0012087637914
51,522.066150661943
52,522.1516957803613
53,522.2555076824402
54,522.3735302273716
55,522.5001613400092
56,522.6285982428944
57,522.7513428429202
58,522.8608332246436
59,522.9501334145286
60,523.0135801688801
61,523.0472791603405
62,523.0493798531562
63,523.0201179854771
64,522.9616555178774
65,522.8777566639905
66,522.7733393493065
67,522.6539546636409
68,522.5252655845104
69,522.3926018231135
70,522.2606490941492
71,522.1332935729771
72,522.0136040425695
73,521.9039082193497
74,521.8059029668102
75,521.7207293783579
76,521.6489583871304
77,521.5904804814027
78,521.54435333998
79,521.5086973454094
80,521.4807218529628
81,521.4569227580951
82,521.4334379246101
83,521.4065047119407
84,521.3729445068445
85,521.3306001647686
86,521.2786638078535
87,521.2178470773189
88,521.1503636998115
89,521.0797200486996
90,521.0103449536492
91,520.9471255461164
92,520.8949330244199
93,520.8582101445432
94,520.8406598774927
95,520.8450430473684
96,520.8730754245471
97,520.925407343286
98,521.0016600604046
99,521.1004817203799
100,521.2195840065649
101,521.3557407194342
102,521.504767135503
103,521.6615307935024
104,521.8200513847854
105,521.9737321755391
106,522.1157390513705
107,522.2395107017755
108,522.3393464244292
109,522.4109838846974
110,522.4520635295851
111,522.4623924369369
112,522.4439634504328
113,522.4007369487147
114,522.3382340977777
115,522.2630059131324
116,522.1820277950513
117,522.1020492384087
118,522.0289373222929
119,521.9670884184006
120,521.9190067984792
121,521.8851325144393
122,521.8639486405925
123,521.8523345087366
124,521.846086213369
125,521.8405152637163
126,521.8310479869914
127,521.8137563463632
128,521.785754419514
129,521.7454148306244
130,521.6924002945464
131,521.6275463918308
132,521.5526528257735
133,521.4702390967849
134,521.3833066715521
135,521.2951336558308
136,521.2091121794018
137,521.1286202036887
138,521.0568996175964
139,520.9969006049424
140,520.9510583573253
141,520.9209952862617
142,520.9071844920766
143,520.9086551895261
144,520.9228478300006
145,520.9457134711814
146,520.9720901497548
147,520.9963021243863
148,521.0128629039842
149,521.0171525162624
150,521.0059742254475
151,520.9779383981027
152,520.9336440171853
153,520.8756372047811
154,520.8081442100798
155,520.7366105768211
156,520.6671104149355
157,520.6056999050058
158,520.5577797777011
159,520.5275219418194
160,520.5174144799404
161,520.5279756116512
162,520.5576696710727
163,520.6030309616732
164,520.658976725305
165,520.7192743534947
166,520.7771172509423
167,520.8257546718661
168,520.8591166870259
169,520.8723815172702
170,520.8624443210829
171,520.8282534040573
172,520.7709817216847
173,520.6940093109798
174,520.6027086954398
175,520.50404038895
176,520.4059741329274
177,520.3167626315261
178,520.2441180576219
179,520.1943731033025
180,520.1717341491815
181,520.1777414123567
182,520.2110291951312
183,520.2674260865912
184,520.3403682570685
185,520.4215514371386
186,520.5017355788526
187,520.571624689432
188,520.6227474172641
189,520.6482582359348
190,520.6435800136423
191,520.6068236573524
192,520.5389398153707
193,520.4435743608154
194,520.3266250598806
195,520.1955442131195
196,520.0584871577164
197,519.9234380413031
198,519.797437677035
199,519.6860020692316
200,519.5927693720346
201,519.519365043687
202,519.4654492515778
203,519.4289136326281
204,519.4062106426254
205,519.3928058039494
206,519.3837325617242
207,519.374206892167
208,519.3602340704069
209,519.3391234466444
210,519.3098297688779
211,519.2730647449655
212,519.2311590926538
213,519.1876910759346
214,519.146932126916
215,519.1131934928684
216,519.0901778149791
217,519.0804353307741
218,519.0849996041952
219,519.1032414233621
220,519.1329402659554
221,519.170543057256
222,519.2115664281763
223,519.2510913192602
224,519.284289386954
225,519.3069191426699
226,519.3157451488586
227,519.3088546484573
228,519.2858550011906
229,519.2479311475466
230,519.1977406848264
231,519.1391411172642
232,519.0767817668556
233,519.0156342078367
234,518.9605531133357
235,518.9159411657495
236,518.8855468484784
237,518.8723731151124
238,518.8786369474184
239,518.9057068596126
240,518.9539650719688
241,519.0225926615725
242,519.1093362207864
243,519.2103463803977
244,519.3201704284929
245,519.431956518103
246,519.5379023693109
247,519.6299423013102
248,519.7006001829045
249,519.7438685650749
250,519.7559512732114
251,519.7357431375938
252,519.6849872413758
253,519.6081090523122
254,519.5117655402726
255,519.4041745146278
256,519.2943117515997
257,519.1910755275452
258,519.1025100405728
259,519.0351537392997
260,518.9935531523734
261,518.9799663415764
262,518.9942632387426
263,519.0340093480519
264,519.0947090387816
265,519.1701908323021
266,519.2531231444135
267,519.335642729829
268,519.4100659759339
269,519.4696373697014
270,519.5092419746803
271,519.5259792727076
272,519.5194953886213
273,519.4920136658124
274,519.4480652857029
275,519.3939688284555
276,519.337133740566
277,519.2852785528548
278,519.2456589975375
279,519.2243838020714
280,519.2258651421371
281,519.2524306576967
282,519.3041247320125
283,519.378732080454
284,519.4720409712467
285,519.5783202227561
286,519.6909372360369
287,519.8030213669977
288,519.9080795550909
289,520.0004851999024
290,520.0757837512193
291,520.1307971184458
292,520.1635634654509
293,520.1732001522136
294,520.15979333247
295,520.1243769344131
296,520.0689855320189
297,519.9967045122874
298,519.9116399811053
299,519.8187818601666
300,519.7237875804226
301,519.6327262168913
302,519.5517919810487
303,519.4869628852929
304,519.4435878241363
305,519.4259314836196
306,519.4367498712138
307,519.4769770321046
308,519.5455793184132
309,519.6396017932443
310,519.7544089760185
311,519.8841045796852
312,520.0220873414756
313,520.1616647189047
314,520.29662835713
315,520.4217145676506
316,520.5329186168593
317,520.6276728297277
318,520.7049144523613
319,520.7650614902379
320,520.8099004146593
321,520.842385457034
322,520.866355714793
323,520.8861806201567
324,520.9063421490065
325,520.9309665916372
326,520.9633429888216
327,521.0055010107056
328,521.0579381137626
329,521.1195603851161
330,521.1878443425112
331,521.25917666848
332,521.3293110817768
333,521.3938841660074
334,521.4489311506925
335,521.4913382628706
336,521.5191745432481
337,521.5318644671001
338,521.5301861917225
339,521.5161080385071
340,521.4925065374335
341,521.4628294391285
342,521.4307601147189
343,521.3999085027536
344,521.3735239979343
345,521.3542198582015
346,521.3437155296408
347,521.342628590519
348,521.350367772239
349,521.3651785348794
350,521.3843668370715
351,521.4046864865859
352,521.4228359647981
353,521.4359763848042
354,521.4421606125173
355,521.4405739479739
356,521.4315368393468
357,521.4162874471887
358,521.3966137153127
359,521.3744275681288
360,521.3513757791957
361,521.3285702364599
362,521.3064902663364
363,521.2850602260839
364,521.2638545083552
365,521.2423535075528
366,521.2201746660248
367,521.1972222797841
368,521.1737294442719
369,521.1502009247052
370,521.1272957632735
371,521.1056979492802
372,521.0860106152877
373,521.0686901307406
374,521.0540269878798
375,521.0421772248901
376,521.0332362436475
377,521.0273257047662
378,521.0246531843624
379,521.0255156982363
380,521.0302405441431
381,521.0390751070194
382,521.0520508689939
383,521.0688567824083
384,521.0887538717424
385,521.1105412787757
386,521.1325554982296
387,521.152667800247
388,521.1682524319689
389,521.1761317735843
390,521.1725521338892
391,521.153279863645
392,521.1139033644095
393,521.0503710181757
394,520.9597084633756
395,520.8407836630628
396,520.6949595205751
397,520.5264935298774
398,520.3425884059816
399,520.1530462584914
400,519.9695286666597
401,519.8044791093602
402,519.6698193984528
403,519.5755794860107
404,519.5286503708204
405,519.5318519485741
406,519.5834711860009
407,519.677350067582
408,519.8035075787186
409,519.9491997223711
410,520.1002750027127
411,520.2426615962829
412,520.363814898177
413,520.4539613305021
414,520.5069981916329
415,520.5209477412102
416,520.4979188757915
417,520.4436035630849
418,520.3664137014224
419,520.2764154794097
420,520.1842168339457
421,520.0999206958554
422,520.0322153088672
423,519.9876595379471
424,519.9702199772828
425,519.9811020792793
426,520.01888848677
427,520.0799646526499
428,520.159173396652
429,520.2505946237717
430,520.3483107245851
431,520.4470207390297
432,520.5424213211102
433,520.6313548527107
434,520.7117815539395
435,520.7826345079105
436,520.8435912491349
437,520.8947880340963
438,520.9365199599762
439,520.9689813725432
440,520.9920873516794
441,521.005392876217
442,521.0081126551173
443,520.9992425253154
444,520.9777801396071
445,520.943030104248
446,520.8949573411049
447,520.8345299136236
448,520.7639813066254
449,520.6869286721628
450,520.6083010256425
451,520.5340504530586
452,520.4706400451245
453,520.4243317112558
454,520.400342710389
455,520.4019998777723
456,520.4300714321947
457,520.4824575796714
458,520.5543512835105
459,520.6388645150333
460,520.7280035973589
461,520.8138045490879
462,520.8894158394529
463,520.9499425993835
464,520.9929343852698
465,521.0184812495844
466,521.0289474587655
467,521.028405745012
468,521.0218523231298
469,521.0143067705915
470,521.0099335215984
471,521.011337008987
472,521.0191513635499
473,521.0319728766992
474,521.0466088506482
475,521.0585724417889
476,521.0627367031567
477,521.05405586007
478,521.0282675437838
479,520.9825125109126
480,520.9158364821895
481,520.8295474866243
482,520.7273821142536
483,520.615405918402
484,520.501574612266
485,520.3949357955174
486,520.3045365460845
487,520.2381781779866
488,520.2012046283385
489,520.1955298675622
490,520.2191012008983
491,520.2659460827127
492,520.326855173733
493,520.3906268282271
494,520.4456698592364
495,520.4816774977735
496,520.491079053157
497,520.4700427117492
498,520.4189052615835
499,520.3419998293149
500,520.24692728441
501,520.14338879347
502,520.0417740400418
503,519.9517506436747
504,519.8810899237023
505,519.8348957872231
506,519.8153059109281
507,519.8216338078727
508,519.8508424824033
509,519.8982074731737
510,519.9580389953234
511,520.0243682155894
512,520.0915404812548
513,520.1546880352723
514,520.2100718188626
515,520.255287389325
516,520.2893318223468
517,520.3125357856048
518,520.3263824968647
519,520.3332589626328
520,520.3361957232215
521,520.338630774293
522,520.3441924780885
523,520.3564676622861
524,520.3787226658849
525,520.4135720034693
526,520.4626271062864
527,520.5261867820946
528,520.6030378407628
529,520.6904226749142
530,520.7842079046575
531,520.8792521191775
532,520.9699257633005
533,521.0507029385903
534,521.1167383050913
535,521.164357520428
536,521.1914151354061
537,521.1975022072023
538,521.1840099249072
539,521.1540676387821
540,521.1123710198302
541,521.0649016338311
542,521.0185232547885
543,520.9804418843747
544,520.9575494975683
545,520.9557213397669
546,520.9791649930874
547,521.0299058061167
548,521.1074591547879
549,521.208719158686
550,521.3280904145096
551,521.4578806357937
552,521.5889406903756
553,521.7114952059386
554,521.81607486187
555,521.8944481583821
556,521.9404495886156
557,521.9506121918055
558,521.9245369314091
559,521.8649617669355
560,521.7775238892617
561,521.6702415646977
562,521.5527740292524
563,521.4355401046793
564,521.3287884112646
565,521.2417155774456
566,521.1817158768873
567,521.1538169719988
568,521.1603320471986
569,521.2007497646398
570,521.2718744333441
571,521.3682049409459
572,521.4825129209711
573,521.6065668399154
574,521.7319486486663
575,521.8509041009514
576,521.9571441499872
577,522.0464837984591
578,522.1171917717459
579,522.1699529522517
580,522.207422522004
581,522.2334539991525
582,522.2521697825368
583,522.2670768624077
584,522.2804054050258
585,522.2927856906167
586,522.3033075201394
587,522.3099364481321
588,522.3101905422868
589,522.3019185004441
590,522.2839906258087
591,522.2567402102561
592,522.2220673026663
593,522.1832022453834
594,522.1441899378282
595,522.1091986428173
596,522.081789430206
597,522.0642902664017
598,522.0573849667037
599,522.0599633358411
600,522.069216558803
601,522.080927282313
602,522.0899029410843
603,522.0905164680614
604,522.0773260192047
605,522.0457369065259
606,521.992650330971
607,521.9170190273876
608,521.8202106550436
609,521.7060880492035
610,521.5807593862929
611,521.4520107463757
612,521.3284837273544
613,521.2186961323914
614,521.1300320454491
615,521.0678483068224
616,521.0348425643062
617,521.0307924322657
618,521.0527101667066
619,521.0953736365982
620,521.1521093184971
621,521.2156486196956
622,521.2788851336353
623,521.3354234843961
624,521.3798919713652
625,521.4080524805956
626,521.4167689271753
627,521.4038985276766
628,521.368161237554
629,521.309029516287
630,521.2266671391371
631,521.1219323344557
632,520.9964426183133
633,520.8526724142182
634,520.694026077737
635,520.5248153200146
636,520.3500855773963
637,520.1752784206029
638,520.0057686095821
639,519.8463534481467
640,519.7007868786309
641,519.5714423458778
642,519.4591615413067
643,519.3633036189126
644,519.2819630230273
645,519.212297368296
646,519.1509126716338
647,519.0942763095176
648,519.0391427134493
649,518.9829738382094
650,518.9243237078141
651,518.8631409896916
652,518.8009277443185
653,518.740686449791
654,518.6866080266414
655,518.6435049996496
656,518.616062146346
657,518.608038991979
658,518.6215863361058
659,518.6568142616743
660,518.7116867217086
661,518.7822532899589
662,518.8631768257759
663,518.9484679834297
664,519.032295828892
665,519.1097289106096
666,519.1772863479531
667,519.2332346155832
668,519.277628491279
669,519.3121403497729
670,519.3397393299393
671,519.3642741453094
672,519.3899937214507
673,519.4210268550343
674,519.4608492646644
675,519.5117902571708
676,519.5746536501156
677,519.6485313191527
678,519.7308657108409
679,519.8177717329309
680,519.9045693789449
681,519.9864280579052
682,520.0590040460855
683,520.1189665897925
684,520.1643399256844
685,520.1946260966214
686,520.210718242317
687,520.214661356575
688,520.2093447212063
689,520.1981978613243
690,520.184920785915
691,520.1732426189369
692,520.1666931886833
693,520.1683881168655
694,520.1808504317909
695,520.2058955986671
696,520.2445843105794
697,520.2972224411944
698,520.3633862640523
699,520.4419667111622
700,520.5312361474832
701,520.6289396567919
702,520.7324099600452
703,520.8387061236075
704,520.9447785960566
705,521.0476609860931
706,521.1446794664614
707,521.2336601976764
708,521.3131121672277
709,521.3823653318542
710,521.4416443737979
711,521.4920562049062
712,521.5354707465744
713,521.57428567105
714,521.6110904376611
715,521.6482789121146
716,521.6876855416875
717,521.7303199868019
718,521.7762519678369
719,521.8246657110466
720,521.8740646693527
721,521.9225637121057
722,521.9681799445262
723,522.009051207781
724,522.04356453467
725,522.0704223049934
726,522.0886822774205
727,522.09779293178
728,522.0976362366649
729,522.0885903681782
730,522.0716169822076
731,522.0483510594127
732,522.0211405964379
733,521.9929743177092
734,521.9672599257841
735,521.9474627142386
736,521.936663114926
737,521.9371238483252
738,521.9499657632649
739,521.975036011187
740,522.0110110083583
741,522.0557122418835
742,522.1065463615364
743,522.1609450485229
744,522.2166933749018
745,522.2720861875633
746,522.3259106486255
747,522.377296665374
748,522.4254997020101
749,522.4696816216285
750,522.5087343080586
751,522.541161982829
752,522.565027947285
753,522.5779873810878
754,522.5774442908896
755,522.5608572654371
756,522.5261707106868
757,522.4722894308718
758,522.3994794545371
759,522.3095890963539
760,522.2060341556439
761,522.093548575602
762,521.9777397784982
763,521.8645066874165
764,521.7593957286921
765,521.6669899083292
766,521.5904301224821
767,521.5311409949671
768,521.4887867087568
769,521.4614398483935
770,521.4459178440511
771,521.4382230209277
772,521.434013697528
773,521.4290373607357
774,521.4194701398814
775,521.4021305641743
776,521.3745712969333
777,521.3350898866979
778,521.2827218763529
779,521.2172740437315
780,521.1394170999894
781,521.0507993433645
782,520.9541004607984
783,520.8529481261446
784,520.751665941837
785,520.6548783435961
786,520.5670375031993
787,520.491950268194
788,520.432375968485
789,520.389749639208
790,520.36406889934
791,520.3539665163149
792,520.3569660776683
793,520.3698804273985
794,520.3892715620347
795,520.4118675438359
796,520.4348458809872
797,520.4559470438238
798,520.4734531411531
799,520.4861141634206
800,520.493101663677
801,520.4940280791662
802,520.4890179640498
803,520.4787775515829
804,520.4645975406606
805,520.4482491536845
806,520.4317808512719
807,520.4172610828502
808,520.4065222363974
809,520.4009496747296
810,520.4013426550878
811,520.4078573270252
812,520.4200278289984
813,520.4368536887728
814,520.4569404024061
815,520.4786773886095
816,520.5004263980525
817,520.5206798881705
818,520.5381490231861
819,520.5517626708248
820,520.560591226366
821,520.563732672766
822,520.5602013511613
823,520.548847104531
824,520.528318894926
825,520.4970848492549
826,520.4535285258627
827,520.3961405784584
828,520.3237950273963
829,520.236049503895
830,520.1333842796549
831,520.0173261891995
832,519.8904629570418
833,519.7563832399333
834,519.6195560756981
835,519.4851259207055
836,519.3585932500969
837,519.2453823949056
838,519.1503377541048
839,519.077212120434
840,519.0282185589604
841,519.0037204908668
842,519.0021277887564
843,519.0200370559543
844,519.0526082362444
845,519.0941252357859
846,519.138653267379
847,519.1806885861071
848,519.2157113914044
849,519.2405935706145
850,519.2538489611009
851,519.2557248533615
852,519.2481291080935
853,519.234386741959
854,519.2188316378512
855,519.2062640684765
856,519.2013388805594
857,519.2079765053948
858,519.2288890672245
859,519.2652828084911
860,519.3167555954897
861,519.3813787498273
862,519.455939238139
863,519.5363065188367
864,519.6178715780652
865,519.6959955928814
866,519.7664149098973
867,519.8255721805617
868,519.8708598038835
869,519.9007598984696
870,519.9148585204572
871,519.9137222008281
872,519.8986546059507
873,519.8713848363383
874,519.8337634200291
875,519.7875481612547
876,519.734336078319
877,519.6756407304005
878,519.6130585059427
879,519.5484459479168
880,519.4840442251846
881,519.4225180418629
882,519.3669067456182
883,519.3205012433374
884,519.2866597337654
885,519.2685721570459
886,519.2689888029604
887,519.2899377637631
888,519.3324596156287
889,519.3963874410532
890,519.4802058826225
891,519.5810349499877
892,519.694783652435
893,519.8164857900966
894,519.9407773786714
895,520.0624377819142
896,520.1769097100042
897,520.2807214097256
898,520.3717489218111
899,520.4492866163774
900,520.5139370547864
901,520.5673637934502
902,520.6119627923927
903,520.6505131066675
904,520.685872525501
905,520.7207700748953
906,520.757697251738
907,520.798832730108
908,520.8459015769713
909,520.8999069928325
910,520.960765268947
911,521.0269643703601
912,521.0953991467348
913,521.1614973350139
914,521.2196655957441
915,521.2639995394255
916,521.2891487746617
917,521.2912023860533
