acceleration,velocity,displacement
0.011478524048815417,0.0,0.0
0.010177029584787806,5.413888408400806e-06,1.3534721021002016e-09
0.008879524402367374,1.01780269051896e-05,5.2514509304978026e-09
0.007589973700675472,1.429540143095031e-05,1.136980801453278e-08
0.0063122947733411814,1.7770968549454473e-05,1.9386400509633977e-08
0.005050333685886998,2.061162566426152e-05,2.8982049063062973e-08
0.0038078426679283312,2.282616975271535e-05,3.984149791730719e-08
0.0025884584088694943,2.4425245021914807e-05,5.165435161096473e-08
0.0013956814266807896,2.5421279980802376e-05,6.411598286164403e-08
0.00023285666834933395,2.5828414504559908e-05,7.69284064829846e-08
-0.0008968445048270876,2.566241754544047e-05,8.98011144954847e-08
-0.001990440802789316,2.494059621853637e-05,1.024518679364789e-07
-0.003045155839886056,2.3681697057867525e-05,1.1460744125557987e-07
-0.004058431225719853,2.1905800291466046e-05,1.2600431559291327e-07
-0.005027937858092361,1.963420802051299e-05,1.3638931767090804e-07
-0.00595158538576584,1.688932720954844e-05,1.455202014784234e-07
-0.006827529817451855,1.3694548408744018e-05,1.5316617038299653e-07
-0.007654179252625498,1.007412114122468e-05,1.591083377704887e-07
-0.008430197708030615,6.053026901060651e-06,1.6314012478106003e-07
-0.009154507019817324,1.6568507190986656e-06,1.6506759418609985e-07
-0.009826286821103302,-3.0883477411314917e-06,1.6470971993059165e-07
-0.010444972624390987,-8.156162602505063e-06,1.618985923446825e-07
-0.011010252067135852,-1.3519968775386772e-05,1.5647955950020953e-07
-0.011522059399388723,-1.9153046642017916e-05,1.4831130564585837e-07
-0.011980568303304668,-2.5028703567691264e-05,1.3726586809343107e-07
-0.012386183137627394,-3.112039142792428e-05,1.232285943445272e-07
-0.012739528702826462,-3.740181938803774e-05,1.0609804164053668e-07
-0.013041438632312174,-4.38470612218224e-05,8.578582148807164e-08
-0.013292942534202523,-5.0430656513451075e-05,6.221639205425328e-08
-0.013495252031102961,-5.712770515477745e-05,3.5326801637196154e-08
-0.013649745866091093,-6.391395462907597e-05,5.066386691232802e-09
-0.013757954260716536,-7.076587966077787e-05,-2.860357188123066e-08
-0.013821542728659557,-7.76607539081219e-05,-6.57102302734556e-08
-0.013842295566809342,-8.457671348198912e-05,-1.0626959712098336e-07
-0.013822099257276295,-9.149281218801053e-05,-1.5028697853848328e-07
-0.013762926013252621,-9.838906850564276e-05,-1.977574487118966e-07
-0.013666817690261466,-0.00010524650443152128,-2.486663419461876e-07
-0.013535870267877777,-0.00011204717642105609,-3.0298976215933195e-07
-0.013372219084001673,-0.00011877419875902595,-3.6069510595435247e-07
-0.013178024968842312,-0.00012541175977223696,-4.217415955871682e-07
-0.012955461379668553,-0.00013194513135936467,-4.860808183700686e-07
-0.01270670258871791,-0.0001383606723514613,-5.536572692977751e-07
-0.012433912936275614,-0.00014464582623270966,-6.244088939438178e-07
-0.012139237135648646,-0.00015078911375069072,-6.982676289396679e-07
-0.011824791605614228,-0.00015678012093600643,-7.751599376113422e-07
-0.011492656801871282,-0.00016260948303787782,-8.550073386048132e-07
-0.011144870517928136,-0.00016826886486782767,-9.377269255812396e-07
-0.010783422126959031,-0.00017375093802904948,-1.023231876305459e-06
-0.010410247733714633,-0.00017904935549421788,-1.1114319496862759e-06
-0.010027226190216615,-0.0001841587239752007,-1.2022339695536305e-06
-0.009636175902165907,-0.00018907457449829633,-1.2955422941720047e-06
-0.0092388523292988,-0.0001937933315561625,-1.3912592706856194e-06
-0.008836946076249283,-0.00019831228115754952,-1.4892856738640474e-06
-0.008432081480703662,-0.00020262953804678775,-1.5895211286651317e-06
-0.008025815620426395,-0.00020674401232207026,-1.6918645162573463e-06
-0.007619637667621759,-0.0002106553756440823,-1.7962143632488845e-06
-0.007214968513935078,-0.0002143640271894715,-1.902469213957273e-06
-0.0068131605771364475,-0.00021787105946223937,-2.0105279856202007e-06
-0.0064154976917067995,-0.0002211782240294502,-2.120290306493123e-06
-0.006023194990179662,-0.00022428789719992182,-2.2316568368004663e-06
-0.005637398702691545,-0.0002272030456231396,-2.3445295725062316e-06
-0.005259185834314131,-0.00022992719175739102,-2.4588121318513644e-06
-0.004889563717819213,-0.00023246437914542435,-2.574410024577068e-06
-0.004529469477006285,-0.00023481913744413072,-2.691230903724457e-06
-0.004179769464533317,-0.00023699644717951562,-2.8091847998803685e-06
-0.0038412587527283507,-0.00023900170423383102,-2.928184337733705e-06
-0.0035146607555352886,-0.00024084068411089692,-3.048144934819887e-06
-0.003200627047486589,-0.0002425195060616524,-3.1689849823630244e-06
-0.0028997374258355416,-0.00024404459717998294,-3.290626008173433e-06
-0.0026125002391801898,-0.0002454226565962369,-3.412992821617488e-06
-0.0023393529876726167,-0.0002466606199029501,-3.536013640742285e-06
-0.0020806631938462402,-0.0002477656239483298,-3.659620201705105e-06
-0.0018367295504639158,-0.00024874497213440733,-3.783747850725789e-06
-0.0016077833639077325,-0.00024960610036300023,-3.908335618850141e-06
-0.0013939903174368172,-0.00025035654378333637,-4.033326279886725e-06
-0.0011954525730762055,-0.0002510039045059646,-4.15866639195905e-06
-0.0010122112138979183,-0.00025155582045270815,-4.284306323198718e-06
-0.0008442490040173946,-0.000252019935507187,-4.410200262188692e-06
-0.000691493420101288,-0.00025240387111321666,-4.536306213843793e-06
-0.0005538198938082945,-0.00025271519944169404,-4.662585981482521e-06
-0.0004310551985209296,-0.00025296141821477635,-4.7890051358966385e-06
-0.0003229809093011237,-0.00025314992724173184,-4.915532972260765e-06
-0.00022933686127034458,-0.0002532880066843747,-5.042142455742292e-06
-0.000149824533677467,-0.0002533827970331116,-5.168810156671664e-06
-8.411029593722124e-05,-0.0002534412807405153,-5.29551617611507e-06
-3.182846261939142e-05,-0.0002534702654301544,-5.4222440626577375e-06
7.4158852068473586e-06,-0.00025347636857450754,-5.548980721158903e-06
3.404433899459655e-05,-0.00025346600351845716,-5.6757163141821445e-06
4.850286466587231e-05,-0.00025344536671754206,-5.802444156741145e-06
5.125974609795742e-05,-0.0002534204260648511,-5.929160604936743e-06
4.2803735949201066e-05,-0.00025339691019433936,-6.055864939001541e-06
2.3642377145759757e-05,-0.0002533802986660656,-6.182559241216642e-06
-5.699542335385827e-06,-0.000253375812957363,-6.309248269122499e-06
-4.468144066631808e-05,-0.00025338840820311346,-6.435939324412618e-06
-9.274833934052942e-05,-0.00025342276564811517,-6.562642117875425e-06
-0.00014933224414386874,-0.0002534832857939863,-6.68936863073595e-06
-0.00021385354364269706,-0.00025357408224093293,-6.8161329727446805e-06
-0.00028572245306475664,-0.0002536989762401098,-6.942951237364941e-06
-0.0003643405231699626,-0.0002538614919841685,-7.0698413544210105e-06
-0.00044910222211091267,-0.0002540648526704887,-7.196822940584675e-06
-0.0005393965849875889,-0.0002543119773722633,-7.323917148095363e-06
-0.0006346089143862881,-0.00025460547874710677,-7.451146512125205e-06
-0.0007341225068741582,-0.0002549476616024219,-7.578534797212587e-06
-0.0008373203748426608,-0.0002553405223228511,-7.706106843193905e-06
-0.0009435869316146739,-0.0002557857491494654,-7.833888411061984e-06
-0.001052309613854246,-0.00025628472328583266,-7.961906029170809e-06
-0.0011628804312045905,-0.00025683852079709735,-8.090186840191541e-06
-0.0012746974545485737,-0.00025744791526853566,-8.218758449207949e-06
-0.001387166271497764,-0.00025811338120004725,-8.347648773325095e-06
-0.001499701443194596,-0.00025883509812872033,-8.476885893157287e-06
-0.001611727992823107,-0.00025961295548772474,-8.606497906561398e-06
-0.0017226829528884302,-0.0002604465582241526,-8.736512784989367e-06
-0.0018320170029561245,-0.00026133523321311377,-8.866958232848685e-06
-0.001939196239593967,-0.00026227803652375127,-8.997861550282902e-06
-0.002043704123098979,-0.0002632737616144245,-9.129249499817445e-06
-0.002145043630201003,-0.0002643209485527495,-9.26114817735924e-06
-0.0022427396101865585,-0.00026541789436284637,-9.393582888088138e-06
-0.0023363413063235273,-0.0002665626645919739,-9.526578027826843e-06
-0.002425424978066304,-0.00026775310616307136,-9.660156970515603e-06
-0.002509596547065248,-0.0002689868615443542,-9.79434196244246e-06
-0.0025884941876040623,-0.00027026138422802157,-9.929154023885554e-06
-0.002661790782306694,-0.00027157395547049927,-1.0064612858810184e-05
-0.002729196165073378,-0.00027292170220734427,-1.0200736773229646e-05
-0.002790459078437728,-0.00027430161601822207,-1.0337542602786037e-05
-0.0028453687842149382,-0.00027571057298388525,-1.0475045650036564e-05
-0.0028937562809424515,-0.0002771453542501746,-1.0613259631845079e-05
-0.0029354950944859674,-0.00027860266709403173,-1.075219663718113e-05
-0.0029705016183885972,-0.0002800791662722504,-1.08918670955227e-05
-0.0029987349884654027,-0.0002815714754239639,-1.1032279755946753e-05
-0.0030201964819859895,-0.00028307620829157675,-1.1173441676875639e-05
-0.003034928438635938,-0.0002845899895217322,-1.1315358226328966e-05
-0.0030430127122403634,-0.0002861094748094513,-1.1458033092411762e-05
-0.003044568677932454,-0.0002876313701569945,-1.1601468303653373e-05
-0.003039750835078097,-0.00028915245003524717,-1.1745664258701433e-05
-0.0030287460607792654,-0.0002906695742592115,-1.1890619764775048e-05
-0.0030117705831774035,-0.00029217970342020066,-1.2036332084194902e-05
-0.002989066755492494,-0.00029367991275486814,-1.218279698823867e-05
-0.002960899714871009,-0.000295167404372459,-1.23300088175205e-05
-0.002927554001100345,-0.00029663951780145185,-1.2477960548063978e-05
-0.0028893301899639797,-0.00029809373884921795,-1.2626643862226646e-05
-0.0028465415712090165,-0.0002995277067895112,-1.2776049223636329e-05
-0.00279951088198757,-0.00030093921990281033,-1.2926165955309409e-05
-0.002748567101772535,-0.00030232623939875034,-1.3076982320134799e-05
-0.002694042322976753,-0.00030368689175493764,-1.3228485602923222e-05
-0.0026362687219100046,-0.0003050194695161593,-1.3380662193240995e-05
-0.002575575657612972,-0.00030632243061104003,-1.3533497668272795e-05
-0.0025122869224034243,-0.00030759439625604415,-1.3686976874989567e-05
-0.0024467181640318502,-0.000308834147527653,-1.3841084010935492e-05
-0.0023791744979068893,-0.00031004062069313765,-1.399580270299069e-05
-0.002309948328336585,-0.00031121290139969854,-1.4151116083513899e-05
-0.002239317402106768,-0.00031235021783230935,-1.4307006863321901e-05
-0.0021675431273630846,-0.00031345193296467683,-1.4463457401021147e-05
-0.002094869198807401,-0.00031451753604621945,-1.4620449768273871e-05
-0.0020215205679025056,-0.00031554663348789695,-1.4777965810657401e-05
-0.0019477027850134461,-0.00031653893932612594,-1.4935987203860907e-05
-0.0018736017298967888,-0.0003174942654548535,-1.5094495505056152e-05
-0.0017993837444452772,-0.000318412511823439,-1.5253472199375725e-05
-0.0017251961829744147,-0.0003192936568052939,-1.5412898741532907e-05
-0.0016511683917842719,-0.0003201377479489836,-1.5572756592721477e-05
-0.0015774131158936466,-0.00032094489332590303,-1.5733027253040197e-05
-0.0015040283075842945,-0.0003217152536817725,-1.5893692289792118e-05
-0.0014310992831245853,-0.00032244903557944975,-1.6054733362107423e-05
-0.0013587011481078581,-0.00032314648568725784,-1.62161322424241e-05
-0.001286901396807166,-0.0003238078863234866,-1.6377870835426786e-05
-0.0012157625916396349,-0.00032443355232059833,-1.6539931195087807e-05
-0.001145345041888159,-0.00032502382922898026,-1.67022955404752e-05
-0.0010757094182901965,-0.00032557909284402483,-1.686494627099345e-05
-0.0010069192550038258,-0.00032609975001234834,-1.7027865981707545e-05
-0.0009390432993570555,-0.00032658624065093854,-1.7191037479373367e-05
-0.000872157672966929,-0.00032703904089401956,-1.7354443799759607e-05
-0.0008063478087500156,-0.0003274586672644488,-1.7518068226799224e-05
-0.000741710131605814,-0.00032784568174953774,-1.768189431405272e-05
-0.0006783534575587743,-0.0003282006976468289,-1.784590590890181e-05
-0.0006164000956701457,-0.0003285243860351361,-1.8010087179822303e-05
-0.0005559866436610123,-0.0003288174827199689,-1.817442264701108e-05
-0.0004972644634695462,-0.0003290807954967515,-1.833889721656526e-05
-0.0004403998053245137,-0.00032931521156395006,-1.8503496218330436e-05
-0.0003855735283673118,-0.000329521704897373,-1.8668205447445767e-05
-0.0003329803555140141,-0.0003297013433683433,-1.8833011209512194e-05
-0.00028282760583502904,-0.0003298552953586806,-1.899790036919395e-05
-0.00023533336699756732,-0.00032998483560188875,-1.916286040193409e-05
-0.000190724098098779,-0.0003300913499681628,-1.9327879448326605e-05
-0.00014923168340030376,-0.0003301763389135376,-1.949294637054703e-05
-0.00011108998466297588,-0.0003302414193305534,-1.9658050810108054e-05
-7.653096357396212e-05,-0.0003302883245676126,-1.9823183246082597e-05
-4.578047059618534e-05,-0.00033031890242615514,-1.998833505283104e-05
-1.9053822895478926e-05,-0.00033033511099952805,-2.015349855618746e-05
3.44868726562366e-06,-0.0003303390122834355,-2.0318667087008202e-05
2.1546209314627212e-05,-0.00033033276355929047,-2.0483835030968884e-05
3.508154318536886e-05,-0.0003303186066211655,-2.0648997873514e-05
4.39250255378157e-05,-0.00033029885497898467,-2.0814152238914035e-05
4.797799953379153e-05,-0.00033027587922271676,-2.097929592246446e-05
4.717579408644388e-05,-0.0003302520907743117,-2.1144427914963717e-05
4.149015533500493e-05,-0.00033022992428695635,-2.1309548418729034e-05
3.0931089638188235e-05,-0.00033021181897571305,-2.14746588545447e-05
1.5548096395557255e-05,-0.0003302001991792046,-2.163976185908343e-05
-4.569212037003212e-06,-0.000330197454458115,-2.180486127249276e-05
-2.9291090245549306e-05,-0.0003302059195336856,-2.196996211599071e-05
-5.844821116942156e-05,-0.00033022785435903935,-2.213507055946389e-05
-9.183274121794933e-05,-0.0003302654245971362,-2.2300193879202935e-05
-0.00012919987058435185,-0.00033032068275008677,-2.246534040603974e-05
-0.0001702697180323691,-0.00033039555014724095,-2.2630519464264073e-05
-0.00021472953200626593,-0.0003304917999597506,-2.279574130179082e-05
-0.000262236122359875,-0.0003306110413733421,-2.2961017012124093e-05
-0.0003124184687941886,-0.0003307547050211306,-2.312635844872271e-05
-0.00036488045705890997,-0.0003309240297525939,-2.329177813241614e-05
-0.0004192036934056118,-0.00033112005079021005,-2.3457289152551843e-05
-0.000474950345225221,-0.00033134358929986775,-2.3622905062574363e-05
-0.0005316659557446963,-0.0003315952433751102,-2.3788639770743107e-05
-0.0005888821891513238,-0.00033187538041133425,-2.3954507426689718e-05
-0.0006461194804661775,-0.00033218413082873865,-2.4120522304499736e-05
-0.0007028895846573008,-0.00033252138309501953,-2.4286698682980677e-05
-0.0007586980353361029,-0.0003328867800000179,-2.4453050723754435e-05
-0.0008130465359815548,-0.0003332797161428473,-2.461959234779015e-05
-0.0008654353190548839,-0.00033369933660660643,-2.4786337110977516e-05
-0.0009153655181674136,-0.000334144536815912,-2.4953298079333145e-05
-0.0009623415998203707,-0.00033461396359540897,-2.5120487704435976e-05
-0.0010058738934711274,-0.00033510601746873186,-2.528791769970201e-05
-0.0010454812467694577,-0.00033561885625379203,-2.545559891813264e-05
-0.0010806938214010166,-0.00033615040002083467,-2.5623541232201297e-05
-0.0011110560355345215,-0.00033669833748506856,-2.5791753416577774e-05
-0.001136129650175097,-0.00033726013390649595,-2.5960243034425666e-05
-0.0011554969850265725,-0.00033783304056529635,-2.6129016328043613e-05
-0.0011687642321608891,-0.0003384141058695932,-2.6298078114652335e-05
-0.001175564814856883,-0.00033900018813134763,-2.646743168815257e-05
-0.0011755627187196303,-0.00033958797001474173,-2.663707872768909e-05
-0.001168455706251154,-0.00034017397462098443,-2.680701921384802e-05
-0.001153978317723285,-0.00034075458312697804,-2.697725135328501e-05
-0.001131904562963265,-0.0003413260538471497,-2.7147771512528542e-05
-0.0011020502192362433,-0.00034188454254269955,-2.7318574161626004e-05
-0.001064274666916963,-0.00034242612376423785,-2.748965182820274e-05
-0.001018482215274772,-0.0003429468129847858,-2.7660995062389995e-05
-0.0009646228939595303,-0.00034344258926209437,-2.7832592412951716e-05
-0.0009026927088685716,-0.0003439094181628014,-2.800443041480794e-05
-0.0008327333818546963,-0.00034434327468548225,-2.817649358802001e-05
-0.0007548316108070524,-0.0003447401659336477,-2.8348764448174792e-05
-0.0006691178967878646,-0.0003450961533105464,-2.852122352798584e-05
-0.0005757649840334564,-0.00034540737403075173,-2.8693849409821168e-05
-0.0004749859480113953,-0.00034567006176376296,-2.8866618768769795e-05
-0.0003670319537652792,-0.0003458805662392071,-2.903950642577054e-05
-0.00025218970045795796,-0.00034603537165276294,-2.9212485410243533e-05
-0.00013077857484250792,-0.00034613111372158804,-2.938552703158712e-05
-3.1475563857288975e-06,-0.0003461645952543951,-2.9558600958831117e-05
0.00013032806006852551,-0.00034613280012847435,-2.9731675307676834e-05
0.00026925004390988144,-0.00034603290560247975,-2.9904716734109573e-05
0.00041320062992541073,-0.0003458622929340209,-3.0077690533743698e-05
0.0005617458714459932,-0.00034561855630867806,-3.0250560746054374e-05
0.000714438895651934,-0.00034529951011690355,-3.042329026266077e-05
0.0008708230344391249,-0.0003449031946343808,-3.0595840938848593e-05
0.0010304348241644533,-0.0003444278801697299,-3.076817370754962e-05
0.0011928068798269934,-0.00034387206974373206,-3.094024869502798e-05
0.0013574706542222156,-0.00034323450036021977,-3.111202533755397e-05
0.0015239590936491334,-0.00034251414292325194,-3.1283462498374835e-05
0.0016918092029490782,-0.0003417102008491024,-3.1454518584317924e-05
0.001860564534383628,-0.0003408221074147692,-3.1625151661383894e-05
0.0020297776114378526,-0.0003398495218783138,-3.1795319568707166e-05
0.0021990122857877374,-0.00033879232440400743,-3.196498003027774e-05
0.0023678460087063987,-0.0003376506098303839,-3.213409076383634e-05
0.002535871988370302,-0.00033642468033111473,-3.2302609586376714e-05
0.0027027012077193422,-0.0003351150370320923,-3.247049451571752e-05
0.0028679642906612184,-0.0003337223706574972,-3.263770386763991e-05
0.003031313219460248,-0.00033224755127996686,-3.2804196348124276e-05
0.003192422915574024,-0.0003306916172462083,-3.296993114025582e-05
0.0033509926979328353,-0.00032905576334283157,-3.313486798540308e-05
0.003506747632582794,-0.00032734132826020264,-3.329896725830384e-05
0.0036594397920668995,-0.0003255497814040402,-3.34621900357199e-05
0.003808849448305285,-0.0003236827090939472,-3.36244981583444e-05
0.0039547862195096085,-0.00032174180017699347,-3.378585428566213e-05
0.004097090176998911,-0.00031972883107786633,-3.394622194347585e-05
0.004235632901425448,-0.00031764565030826023,-3.410556556382238e-05
0.004370318469017795,-0.0003154941624656494,-3.426385051701585e-05
0.004501084346614717,-0.0003132763117617413,-3.44210431355727e-05
0.004627902174494727,-0.0003109940651314639,-3.4577110729796e-05
0.004750778416934561,-0.00030864939498360656,-3.4732021594824763e-05
0.00486975486383909,-0.00030624426166341316,-3.488574500898652e-05
0.004984908971425479,-0.000303780595704597,-3.503825122332852e-05
0.005096354027735252,-0.0003012602799548068,-3.518951144224337e-05
0.005204239113495033,-0.00029868513166949923,-3.533949779514945e-05
0.00530874880673227,-0.0002960568846894424,-3.548818329923919e-05
0.005410102566565015,-0.0002933771718461181,-3.563554181337308e-05
0.005508553739608858,-0.00029064750776957465,-3.5781547983277e-05
0.005604388162012136,-0.0002878692722941694,-3.592617717829294e-05
0.005697922372360193,-0.00028504369466057636,-3.606940542003163e-05
0.005789501490934655,-0.00028217183869475265,-3.621120930337046e-05
0.005879496843770376,-0.0002792545891110764,-3.635156591032192e-05
0.0059683034114380385,-0.0002762926390472743,-3.649045271736151e-05
0.006056337171197806,-0.00027328647890161533,-3.662784749684873e-05
0.006144032389541065,-0.0002702363865114306,-3.6763728213201986e-05
0.0062318389150725515,-0.0002671424186852772,-3.689807291450116e-05
