acceleration,velocity,displacement
0.028006973682418203,0.0,0.0
0.026935814085169117,1.373569694189683e-05,3.4339242354742074e-09
0.02586649539245461,2.693627431130276e-05,1.3601917048774104e-08
0.024800845135350566,3.9603109443254054e-05,3.023676298741331e-08
0.02374066429622525,5.173848680114801e-05,5.307216204851383e-08
0.0226877145333077,6.334558150853124e-05,8.184317912593364e-08
0.021643706001827964,7.442843664231516e-05,1.1628668366364523e-07
0.020610285945172016,8.499193462906515e-05,1.5614177648149032e-07
0.019589028192061413,9.50417631633735e-05,2.0115020092959998e-07
0.01858142365718035,0.00010458437612568394,2.5105673575186434e-07
0.017588871911233043,0.0001136269500177873,3.0560956728773213e-07
0.016612673860399097,0.00012217733646069533,3.6456063890735277e-07
0.015654025549236627,0.00013024401131310427,4.276659758508027e-07
0.01471401307370941,0.00013783602096884077,4.946859839212889e-07
0.013793608567702929,0.00014496292637919387,5.653857207582976e-07
0.012893667216759542,0.0001516347453253095,6.395351386844233e-07
0.012014925260904098,0.0001578618934447254,7.16909298376932e-07
0.011157998966146245,0.000163655124501488,7.972885528634853e-07
0.010323384558409969,0.00016902547038262706,8.804587015845141e-07
0.009511459117444745,0.00017398418130159073,9.662111145055686e-07
0.008722482420966004,0.0001785426666861934,1.0543428265025147e-06
0.007956599711936572,0.00018271243721941906,1.1446566024789179e-06
0.007213845338799399,0.00018650504848210305,1.2369609739042985e-06
0.006494147197250794,0.0001899320466161156,1.331070247678853e-06
0.005797331886415598,0.00019300491638703219,1.4268044884296401e-06
0.0051231304766230544,0.00019573503197779186,1.523989475520846e-06
0.004471184764592407,0.00019813361078809571,1.6224566362123179e-06
0.003841053869812138,0.00020021167044669686,1.722042956521016e-06
0.0032322210162511727,0.00020197998916821267,1.8225908714247436e-06
0.002644100353182779,0.00020344906951057115,1.9239481360944395e-06
0.0020760436928089925,0.0002046291055220691,2.0259676798525996e-06
0.0015273470707099907,0.00020552995321294884,2.128507444536354e-06
0.0009972570630336294,0.00020616110424638475,2.2314302089011874e-06
0.00048497682252889273,0.00020653166271777538,2.3346034006422273e-06
-1.0328174431131923e-05,0.00020665032487979983,2.437898897541621e-06
-0.00048952464721937,0.0002065253616743872,2.5411928191801675e-06
-0.0009535062458563302,0.00020616460395111828,2.644365310586544e-06
-0.0014031884271059052,0.00020557543028287774,2.747300319145043e-06
-0.001839503382837143,0.00020476475733039197,2.84988536604836e-06
-0.002263394933188568,0.00020373903275138554,2.9520113135688044e-06
-0.00267581332071598,0.0002025042306879094,3.053572129428628e-06
-0.0030777098862929974,0.00020106584988615714,3.154464649572145e-06
-0.0034700316604969477,0.00019942891449945964,3.2545883406685493e-06
-0.0038537159465767334,0.00019759797759769123,3.353845063692837e-06
-0.004229684991423884,0.00019557712736319107,3.4521388399330575e-06
-0.00459884084275605,0.0001933699959046461,3.5493756207500167e-06
-0.004962060486512413,0.00019097977057232898,3.6454630623692603e-06
-0.005320191356763153,0.0001884092076115101,3.7403103069152203e-06
-0.005674047310600729,0.00018566064794466912,3.833827770804265e-06
-0.0060244051556881595,0.0001827360348280969,3.925926941497456e-06
-0.006372001803279369,0.000179636933088355,4.016520183476569e-06
-0.00671753209664339,0.00017636454961337432,4.1055205541520015e-06
-0.00706164733832979,0.00017291975475463103,4.192841630244003e-06
-0.0074049545089893525,0.00016930310429280124,4.278397345005861e-06
-0.007748016131887932,0.00016551486163258192,4.362101836487207e-06
-0.00809135069436354,0.00016155501992601905,4.443869306876857e-06
-0.00843543350085744,0.0001574233238772138,4.523613892827666e-06
-0.008780697810820737,0.00015311929104929427,4.6012495465592925e-06
-0.009127536111560992,0.00014864223256869883,4.67668992746379e-06
-0.009476301388299267,0.00014399127319373377,4.7498483039043985e-06
-0.009827308276088197,0.0001391653707776369,4.820637464897241e-06
-0.010180834008135412,0.000134163335206581,4.888969641393296e-06
-0.010537119112549407,0.00012898384692640978,4.9547564369265434e-06
-0.010896367849858877,0.0001236254751858077,5.0179087674545975e-06
-0.011258748416096245,0.00011808669611931892,5.078336810280879e-06
-0.011624392955371371,0.00011236591077645202,5.135949962004822e-06
-0.011993397438828358,0.00010646146317790209,5.19065680549341e-06
-0.012365821481748095,0.00010037165844775798,5.242365085899825e-06
-0.012741688183570693,9.409478103142828e-05,5.290981695769622e-06
-0.013120984075611991,8.76291129666326e-05,5.336412669269137e-06
-0.013503659246260841,8.09729521361644e-05,5.3785631855448355e-06
-0.01388962769438024,7.412463040100413e-05,5.417337581179128e-06
-0.0142787679495251,6.708253149002779e-05,5.452639371651886e-06
-0.014670923991890851,5.98451085046738e-05,5.484371281650561e-06
-0.015065906497242201,5.241090088239054e-05,5.512435283997327e-06
-0.015463494418836864,4.477855065337077e-05,5.536732646881267e-06
-0.01586343690503868,3.694681782240188e-05,5.5571639890002105e-06
-0.016265455544993403,2.891459470989386e-05,5.573629342133284e-06
-0.016669246935998278,2.068091908964594e-05,5.586028220583169e-06
-0.017074485569580092,1.2244985963251349e-05,5.594259696846394e-06
-0.017480827033519126,3.606157812476546e-06,5.598222482790326e-06
-0.01788791152190734,-5.236026826380071e-06,5.59781501553685e-06
-0.018295367634280735,-1.428184661542709e-05,5.5929355471763986e-06
-0.018702816428843347,-2.353139263120811e-05,5.58348223736474e-06
-0.019109875680004,-3.298456565841995e-05,5.569353247792333e-06
-0.019516164285267337,-4.2641075649737783e-05,5.550446837465294e-06
-0.019921306769644723,-5.25004434134658e-05,5.526661457699493e-06
-0.020324937835750498,-6.25620045648146e-05,5.497895845704922e-06
-0.020726706898178293,-7.28249157482968e-05,5.464049115626644e-06
-0.021126282528367964,-8.328816310493337e-05,5.425020845913337e-06
-0.021523356731548197,-9.395057291991242e-05,5.380711161907125e-06
-0.021917648982769405,-0.00010481082434849182,5.331020812590024e-06
-0.022308909959209325,-0.0001158674640839865,5.275851240481904e-06
-0.022696924915216354,-0.00012711892280259292,5.215104643760259e-06
-0.023081516654580404,-0.00013856353319504212,5.14868402976085e-06
-0.023462548065534425,-0.00015019954937507083,5.076493259118322e-06
-0.0238399242013671,-0.0001620251674417962,4.998437079914105e-06
-0.02421359391112718,-0.00017403854696991977,4.914421151311176e-06
-0.024583551041470184,-0.00018623783320806912,4.824352056266679e-06
-0.024949835231124696,-0.00019862117977621785,4.728137303020607e-06
-0.025312532301605437,-0.00021118677165940037,4.625685315161702e-06
-0.025671774225827566,-0.00022393284829125862,4.516905410174037e-06
-0.026027738651001758,-0.00023685772651046595,4.401707766473606e-06
-0.026380647971191058,-0.00024995982316601415,4.280003379054486e-06
-0.02673076797390309,-0.0002632376771522877,4.15170400397491e-06
-0.02707840610244632,-0.00027668997067137503,4.016722092018995e-06
-0.02742390937374428,-0.0002903155495404227,3.874970711966046e-06
-0.02776766197847626,-0.0003041134423784778,3.7263634639863205e-06
-0.028110082576748782,-0.00031808287851728406,3.57081438376238e-06
-0.028451621289264335,-0.00033222330448378734,3.4082378380121122e-06
-0.028792756369753047,-0.0003465343988985417,3.23854841216653e-06
-0.02913399053428891,-0.0003610160856245522,3.0616607910357562e-06
-0.02947584692367103,-0.0003756685449890422,2.877489633382358e-06
-0.029818864686584446,-0.00039049222289160604,2.685949441412196e-06
-0.0301635941863937,-0.00040548783760985057,2.4869544262868318e-06
-0.03051059184405058,-0.0004206563841174616,2.2804183708550037e-06
-0.03086041462885692,-0.0004359991357356885,2.0662544908917164e-06
-0.031213614201233475,-0.00045151764294321106,1.8443752962219915e-06
-0.031570730707905545,-0.0004672137291704958,1.6146924531935648e-06
-0.031932286239893026,-0.00048308948340744544,1.3771166500490796e-06
-0.032298777986709465,-0.0004991472494640961,1.1315574668311942e-06
-0.0326706711440468,-0.0005153896117467852,8.77923251528474e-07
-0.03304839164434715,-0.0005318193774438837,6.161210042308068e-07
-0.033432318780389034,-0.0005484395550500677,3.4605627110731896e-07
-0.033822777792244796,-0.0005652533291932262,6.763305004649547e-08
-0.0342200324964157,-0.0005822640317653913,-2.1924629019315887e-07
-0.03462427805240362,-0.0005994751094025962,-5.146810754851557e-07
-0.03503563397997345,-0.0006168900874106905,-8.187723746884773e-07
-0.035454137555303245,-0.0006345125302945096,-1.1316230291147773e-06
-0.03587973772524181,-0.0006523459991146459,-1.453337661467066e-06
-0.036312289685439515,-0.0006703940059673162,-1.7840226627375565e-06
-0.03675155026652844,-0.0006886599659553082,-2.1237861557182125e-06
-0.03719717426134009,-0.0007071471470872754,-2.4727379339788587e-06
-0.03764871181098109,-0.0007258586186053556,-2.8309893754020164e-06
-0.03810560695667759,-0.0007447971982972703,-3.198653329627673e-06
-0.03856719745836333,-0.0007639653994010305,-3.575843979052248e-06
-0.03903271597294724,-0.0007833653777588581,-3.9626766733422205e-06
-0.039501292665959274,-0.0008029988799185847,-4.359267737761581e-06
-0.039971959295056744,-0.0008228671929088387,-4.765734255968437e-06
-0.040443654754337886,-0.0008429710964211873,-5.182193828300943e-06
-0.040915232014094534,-0.0008633108181132954,-5.608764306934564e-06
-0.04138546634552011,-0.000883885992703199,-6.045563509638687e-06
-0.041853064690657985,-0.0009046956254622435,-6.4927089141800475e-06
-0.04231667601768739,-0.0009257380606393298,-6.9503173357054404e-06
-0.04277490248117159,-0.0009470109552640445,-7.418504589681284e-06
-0.0432263111895233,-0.0009685112586817182,-7.897385143167724e-06
-0.043669446378357075,-0.0009902351980736882,-8.387071757356575e-06
-0.04410284179840176,-0.001012178270117878,-8.887675124404467e-06
-0.04452503313722212,-0.001034335238851784,-9.399303501646882e-06
-0.044934570296548966,-0.0010567001397102267,-9.922062346287385e-06
-0.045330029348711644,-0.001079266289621542,-1.0456053953620327e-05
-0.04571002400995655,-0.001102026302961209,-1.1001377101766014e-05
-0.046073216497920094,-0.001124972113088178,-1.1558126705778362e-05
-0.04641832767526981,-0.0011480949991314756,-1.2126393483833275e-05
-0.04674414640963763,-0.0011713856176527025,-1.270626363802932e-05
-0.04704953809717989,-0.0011948340387794069,-1.3297818552137348e-05
-0.04733345230840778,-0.0012184297863808038,-1.3901134508427401e-05
-0.047594929526907165,-0.0012421618818396327,-1.451628242548251e-05
-0.04783310696415327,-0.0012660188909623979,-1.5143327618683017e-05
-0.04804722344290635,-0.0012899889735641628,-1.5782329584814656e-05
-0.04823662334707561,-0.0013140599352616583,-1.643334181202111e-05
-0.04840075964177081,-0.00133821928100887,-1.709641161608874e-05
-0.04853919597781245,-0.0013624542699137657,-1.77715800038194e-05
-0.048651607911729684,-0.0013867519708861513,-1.845888156401938e-05
-0.04873778329120949,-0.001411099318686886,-1.915834438641264e-05
-0.04879762186696461,-0.0014354831699764296,-1.986999000857847e-05
-0.04883113418703584,-0.0014598903589899297,-2.059383339082006e-05
-0.048838439809894774,-0.0014843077524891624,-2.1329882918689832e-05
-0.04881976484725374,-0.0015087223036534495,-2.2078140432725484e-05
-0.048775438825991446,-0.001533121104571761,-2.2838601284781785e-05
-0.0487058908480578,-0.0015574914369902732,-2.3611254420172296e-05
-0.04861164503096291,-0.0015818208209600283,-2.439608248465987e-05
-0.0484933152265925,-0.0016060970610244172,-2.5193061955155982e-05
-0.048351599034348366,-0.0016303082895896524,-2.60021632928095e-05
-0.04818727113920346,-0.0016544430071330403,-2.6823351116990172e-05
-0.04800117601775032,-0.0016784901189222786,-2.7656584398504002e-05
-0.04779422007261988,-0.001702438967944871,-2.850181667022079e-05
-0.047567363279151294,-0.0017262793637828138,-2.935899625315271e-05
-0.047321610450209384,-0.001750001607215154,-3.02280664959022e-05
-0.04705800223645285,-0.0017735965103868195,-3.1108966025302694e-05
-0.04677760597890557,-0.0017970554124406592,-3.2001629006009565e-05
-0.046481506521206736,-0.0018203701905656873,-3.290598540676115e-05
-0.046170797071668615,-0.0018435332664639061,-3.382196127101855e-05
-0.04584657018183009,-0.001866537608277281,-3.4749478989703846e-05
-0.04550990888509926,-0.0018893767280440132,-3.568845757378417e-05
-0.045161878025276915,-0.0019120446747716072,-3.663881292448807e-05
-0.04480351580574637,-0.001934536023229363,-3.7600458098988314e-05
-0.044435825605307955,-0.0019568458585821264,-3.857330356944119e-05
-0.0440597681303939,-0.001978969757016052,-3.955725747334073e-05
-0.0436762539949977,-0.0020009037625474,-4.055222585323159e-05
-0.0432861368272676,-0.002022644360252966,-4.1558112883931685e-05
-0.04289020699016235,-0.0020441884462073234,-4.257482108554676e-05
-0.04248918597849485,-0.002065533294449488,-4.3602251520710963e-05
-0.042083721528490874,-0.0020866765213262343,-4.4640303974654895e-05
-0.04167438345985,-0.0021076160475733195,-4.5688877116879785e-05
-0.041261660267114586,-0.002128350058505061,-4.674786864339938e-05
-0.04084595648056935,-0.0021488769626919818,-4.7817175398698644e-05
-0.04042759081688805,-0.002169195349516346,-4.889669347675073e-05
-0.04000679512852153,-0.0021893039460026986,-4.998631830063049e-05
-0.03958371413719156,-0.002209201573319127,-5.108594468046094e-05
-0.0391584059080486,-0.0022288871033304372,-5.2195466849623336e-05
-0.03873084299912827,-0.0022483594155572315,-5.3314778479345255e-05
-0.038300914211280596,-0.0022676173548598338,-5.444377267194952e-05
-0.03786842686105993,-0.0022866596901279187,-5.558234193319646e-05
-0.037433109496004674,-0.002305485074217185,-5.673037812428274e-05
-0.03699461496941482,-0.00232409200533354,-5.788777239417042e-05
-0.03655252379684604,-0.002342478790025105,-5.905441509301008e-05
-0.036106347734332016,-0.0023606435079078997,-6.0230195667493334e-05
-0.03565553354767085,-0.0023785839782284003,-6.141500253902741e-05
-0.03519946697385955,-0.002396297728358783,-6.26087229656742e-05
-0.03473747689777504,-0.0024137819643266917,-6.381124288884557e-05
-0.03426883977456541,-0.002431033543494777,-6.502244676580094e-05
-0.03379278432501325,-0.0024480489495196716,-6.624221738905455e-05
-0.03330849652220867,-0.002464824269731477,-6.747043569386733e-05
-0.032815124876715965,-0.0024813551750812084,-6.870698055507049e-05
-0.03231178601843476,-0.0024976369028049963,-6.995172857454204e-05
-0.03179757056963232,-0.002513664241952013,-7.120455386073129e-05
-0.03127154930381935,-0.0025294315219203762,-7.246532780169939e-05
-0.030732779584105363,-0.0025449326041423574,-7.373391883321507e-05
-0.030180312067235357,-0.0025601608770551925,-7.501019220351446e-05
-0.029613197644328015,-0.0025751092544830834,-7.629400973639902e-05
-0.0290304945724438,-0.0025897701775372765,-7.758522959440411e-05
-0.028431275742726667,-0.002604135620116069,-7.888370604381746e-05
-0.027814636033114525,-0.0026181970980600293,-8.018928922336147e-05
-0.027179699697973164,-0.0026319456819928013,-8.150182491837469e-05
-0.02652562774585542,-0.0026453720138537584,-8.282115434233633e-05
-0.025851625251210597,-0.0026584663271030247,-8.414711392757552e-05
-0.025156948539700862,-0.002671218470550753,-8.547953512698897e-05
-0.024440912180754844,-0.0026836179357308666,-8.681824422855938e-05
-0.023702895714852214,-0.0026956538877047683,-8.816306218441829e-05
-0.022942350036035355,-0.0027073151991424903,-8.951380445613011e-05
-0.02215880334387715,-0.0027185904874874683,-9.08702808777876e-05
-0.02135186657834432,-0.0027294681549680237,-9.223229553840147e-05
-0.020521238260566413,-0.0027399364311777516,-9.359964668493791e-05
-0.019666708682025205,-0.0027499834179133993,-9.49721266472107e-05
-0.01878816341048749,-0.0027595971359365276,-9.634952178567319e-05
-0.01788558611117335,-0.002768765573316943,-9.773161246298655e-05
-0.016959060715067933,-0.002777476735023503,-9.911817304007166e-05
-0.016008772996742058,-0.0027857186934514555,-0.0001005089718971904
-0.015035011638467703,-0.0027934796396102577,-0.00010190377148045583
-0.014038168847493374,-0.002800747934731748,-0.00010330232837404133
-0.013018740564588925,-0.0028075121620847686,-0.00010470439339824546
-0.011977326272220552,-0.002813761178793971,-0.00010610971173346514
-0.010914628398260804,-0.0028194841674615916,-0.00010751802307002904
-0.009831451320618462,-0.0028246706873913115,-0.00010892906178374227
-0.008728699995088808,-0.0028293107252202383,-0.00011034255713689515
-0.007607378234859615,-0.0028333947447777255,-0.00011175823350439465
-0.006468586663401808,-0.0028369137360022907,-0.00011317581062458966
-0.005313520352635389,-0.0028398592627563,-0.0001145950038742793
-0.0041434661506744306,-0.0028422235093821272,-0.00011601552456731391
-0.002959799696579671,-0.0028439993258439406,-0.00011743708027612042
-0.0017639821134013793,-0.002845180271296436,-0.00011885937517540552
-0.0005575563656427049,-0.002845760655916197,-0.00012028211040720868
0.0006578567389422405,-0.002845735580822872,-0.00012170498446639345
0.0018805629302401953,-0.002845100975905576,-0.00012312769360557556
0.003108799267240099,-0.002843853635356206,-0.000124549932258391
0.004340739355396988,-0.0028419912507005466,-0.0001259713934799052
0.00557449898074162,-0.002839512441116512,-0.00012739176940285949
0.006808142125433294,-0.0028364167808399682,-0.0001288107517083486
0.008039687311376931,-0.0028327048234807655,-0.00013022803210942878
0.009267114210836704,-0.002828378123100212,-0.000131643302846074
0.01048837046161872,-0.0028234392519320985,-0.0001330562571898321
0.011701378626204075,-0.0028178918146601426,-0.00013446658995648015
0.012904043239228993,-0.002811740459193784,-0.00013587399802494362
0.014094257898746042,-0.0028049908839092906,-0.0001372781808607194
0.015269912375517159,-0.0027976498413407247,-0.0001386788410420319
0.016428899738553614,-0.002789725138312207,-0.00014007568478694514
0.017569123517580963,-0.002781225632498173,-0.00014146842247964774
0.018688504939516442,-0.002772161225383899,-0.00014285676919411825
0.019784990284365447,-0.0027625428515779286,-0.0001442404452133587
0.020856558404482268,-0.002752382464405717,-0.00014561917654235462
0.021901228437556864,-0.002741693017695207,-0.00014699269541287985
0.02291706771893239,-0.002730488443656085,-0.00014836074077821768
0.023902199868577247,-0.0027187836267592077,-0.0001497230587958215
0.024854813003141393,-0.002706594373541278,-0.00015107940329589663
0.025773168012780658,-0.0026939373782872973,-0.00015242953623385378
0.026655606843389815,-0.0026808301845732546,-0.0001537732281245689
0.027500560725942355,-0.002667291142680922,-0.00015511025845638246
0.02830655828754476,-0.00265333936292755,-0.0001564404160827846
0.029072233467748874,-0.002638994664988727,-0.00015776349958976366
0.029796333158144065,-0.0026242775233322538,-0.0001590793176368439
0.03047772448455818,-0.0026092090089215782,-0.00016038768926990735
0.031115401651611783,-0.002593810727387536,-0.00016168844420398463
0.03170849226452988,-0.0025781047539085,-0.00016298142307430864
0.03225626303840398,-0.0025621135650827666,-0.00016426647765405646
0.032758124804670635,-0.002545859968121998,-0.00016554347103735765
0.033213636724773114,-0.0025293670277396372,-0.00016681227778632307
0.033622509618847524,-0.002512657991153732,-0.0001680727840410464
0.03398460831733324,-0.002495756211669687,-0.00016932488759175226
0.034299952952669736,-0.0024786850713521863,-0.00017056849791250773
0.03456871912821281,-0.002461467903331966,-0.00017180353615617878
0.03479123692994506,-0.0024441279143174264,-0.00017302993511059112
0.03496798878027991,-0.00242668810788987,-0.00017424763911614294
0.035099606165138054,-0.0024091712091535156,-0.0001754566039454038
0.035186865286269194,-0.002391599591290664,-0.00017665679664551485
0.03523068169806692,-0.00237399520454458,-0.00017784819534447365
0.03523210398710081,-0.002356379508123288,-0.00017903078902264063
0.03519230655047375,-0.0023387734054888944,-0.00018020457725104368
