acceleration,velocity,displacement
-0.014209484999933063,0.0,0.0
-0.01543114521308896,-1.4820315106511012e-05,-7.410157553255506e-09
-0.016611061846071293,-3.084141863609114e-05,-3.0241024424556584e-08
-0.017713283438544874,-4.800359127839922e-05,-6.966352938180176e-08
-0.018712047561139724,-6.621625677824152e-05,-1.2677345341012213e-07
-0.019593755828777152,-8.536915847319996e-05,-2.0256616103584288e-07
-0.020356182494650515,-0.0001053441276349138,-2.9792280408989975e-07
-0.021005358455717316,-0.0001260248981100977,-4.136073169624055e-07
-0.021551268753622007,-0.00014730321171476738,-5.502713718748381e-07
-0.022003961196485282,-0.000169080826689821,-7.084633910771324e-07
-0.022371599549061722,-0.0001912686070625945,-8.886381079533401e-07
-0.022661207280731732,-0.00021378501047749122,-1.0911649167233831e-06
-0.02288161791596858,-0.00023655642307584136,-1.3163356335000495e-06
-0.023047107088340582,-0.00025952078557799595,-1.5643742378269683e-06
-0.023179887348760142,-0.0002826342827965463,-1.8354517720142395e-06
-0.02331025168118424,-0.0003058793523115185,-2.1297085895682717e-06
-0.023474225757923472,-0.00032927159103107235,-2.447284061239567e-06
-0.023709417262809365,-0.00035286341254143875,-2.7883515630258227e-06
-0.024050006562434455,-0.0003767431244540607,-3.1531548315235725e-06
-0.024521726491977338,-0.0004010289909812666,-3.5420408892412364e-06
-0.025137510220838773,-0.00042585860933767465,-3.955484689400707e-06
-0.025894352794221472,-0.00045137454084520477,-4.394101264492147e-06
-0.02677189992976602,-0.0004777076672071985,-4.8586423685183485e-06
-0.027733282864198405,-0.0005049602586041808,-5.3499763314240385e-06
-0.02872847194659312,-0.0005331911360095766,-5.869052028730917e-06
-0.02969974248437454,-0.0005624052432250604,-6.4168502183482355e-06
-0.030588047455023096,-0.0005925491381947592,-6.994327409058145e-06
-0.031338824725150406,-0.0006235125742848459,-7.602358265297948e-06
-0.031906316460593664,-0.0006551351448777179,-8.24168212487923e-06
-0.032256348077638976,-0.0006872164771468342,-8.912857935891506e-06
-0.03236799621674775,-0.0007195286492940276,-9.616230499111936e-06
-0.032234535085834806,-0.0007518299149453189,-1.0351909781231609e-05
-0.031863795675726767,-0.0007838790803260997,-1.1119764278867319e-05
-0.03127778516498438,-0.0008154498707464553,-1.1919428754403596e-05
-0.03051115276999389,-0.0008463443397139444,-1.2750325859633796e-05
-0.029608076094243832,-0.0008764039541460633,-1.36117000065638e-05
-0.028617584233581156,-0.0009055167843099758,-1.4502660375791818e-05
-0.02758802803976723,-0.00093361959044665,-1.5422228563170132e-05
-0.02656187514337323,-0.0009606945420382203,-1.6369385629412567e-05
-0.025571988893355716,-0.0009867614740565848,-1.734311363745997e-05
-0.024640135687204693,-0.001011867536346865,-1.8342428142661696e-05
-0.023777826637934034,-0.0010360765175094343,-1.9366400169589845e-05
-0.022988905018324794,-0.0010594598833375637,-2.0414168370013344e-05
-0.02227282786780904,-0.0010820907497806306,-2.148494368657244e-05
-0.02162761987727581,-0.001104040973653173,-2.2578009548289344e-05
-0.021051906091460473,-0.0011253807366375412,-2.36927204034347e-05
-0.020545885274220698,-0.0011461796323203818,-2.482850058791366e-05
-0.020111359648004867,-0.0011665082547814946,-2.5984844531464598e-05
-0.01975106062531509,-0.0011864394649181546,-2.7161318391314422e-05
-0.01946763450130349,-0.001206048812481464,-2.835756253001423e-05
-0.019262707454279673,-0.0012254139834592555,-2.9573293927984592e-05
-0.019136251061027176,-0.001244613462716909,-3.0808307651072675e-05
-0.019086063596771792,-0.0012637246200458085,-3.2062476692454037e-05
-0.01910690391564124,-0.001282821103802015,-3.333574955437795e-05
-0.01918890796302844,-0.0013019690097413497,-3.462814461114963e-05
-0.01931530349899223,-0.00132122111547236,-3.5939739673756485e-05
-0.01945992751538951,-0.0013406087309795508,-3.727065459698244e-05
-0.01958553432561517,-0.0013601314619000532,-3.862102469342224e-05
-0.019644164965390384,-0.0013797463115455561,-3.9990963580145045e-05
-0.0195805633227195,-0.001399358675689611,-4.138051607376263e-05
-0.019338636127318412,-0.00141881827541463,-4.278960454931475e-05
-0.01886968870848107,-0.0014379224378325297,-4.421797490593833e-05
-0.018140263518059117,-0.0014564274139457997,-4.566514983182749e-05
-0.017137254387583106,-0.0014740661728986208,-4.7130396625249704e-05
-0.01586870172640211,-0.0014905691509556134,-4.861271428717682e-05
-0.014360122409009855,-0.0015056835630233194,-5.0110840644166284e-05
-0.012647738181974948,-0.0015191874933188118,-5.162327617233735e-05
-0.010770744764222013,-0.0015308967347919102,-5.314831828639271e-05
-0.008764558908535851,-0.001540664386628289,-5.468409884710281e-05
-0.006656232700452095,-0.001548374782432783,-5.622861843163335e-05
-0.004462544037707621,-0.0015539341708018628,-5.777977290825067e-05
-0.0021908782260343187,-0.0015572608819337337,-5.9335370434618466e-05
0.00015729320872602353,-0.0015582776744423878,-6.0893139712806524e-05
0.002580958319740873,-0.0015569085486781544,-6.24507328243668e-05
0.005073210390972531,-0.0015530814643227977,-6.400572783086727e-05
0.007615277954033556,-0.0015467372201502945,-6.555563717310381e-05
0.010172107524633068,-0.0015378435274109612,-6.709792754688443e-05
0.012690450092011982,-0.0015264122486026387,-6.863005543489123e-05
0.015100238856265444,-0.0015125169041285,-7.01495200112568e-05
0.017319705312574308,-0.0014963069320440801,-7.165393192934309e-05
0.019263867625250466,-0.0014780151455751676,-7.314109296815272e-05
0.020854904660269572,-0.0014579557594324077,-7.46090784206565e-05
0.022032102248711705,-0.001436512255977917,-7.605631242836167e-05
0.022759053918386236,-0.001414116677894368,-7.748162689529781e-05
0.023026678964772573,-0.0013912238114527887,-7.888429713997139e-05
0.02285196249727937,-0.0013682844907217627,-8.026405129105866e-05
0.022273471576187646,-0.0013457217736850293,-8.162105442326205e-05
0.021345164975076474,-0.0013239124554093973,-8.295587153780927e-05
0.020129768396712815,-0.0013031749887235026,-8.426941525987572e-05
0.018692474271740832,-0.001283763867389276,-8.556288468793212e-05
0.017095435360084798,-0.001265869912573363,-8.683770157791344e-05
0.015393478971758467,-0.0012496254554074414,-8.809544926190383e-05
0.013631329262069673,-0.0012351130512905273,-8.933781851525281e-05
0.011842333805534405,-0.0012223762197567252,-9.056656315077643e-05
0.010048572618402965,-0.0012114307665447566,-9.178346664392718e-05
0.008262335140397701,-0.0012022753126653563,-9.299031968353224e-05
0.006488926696004656,-0.0011948996817471552,-9.418890718073849e-05
0.0047304584058736,-0.001189289989196216,-9.538100201621017e-05
0.0029899384568399536,-0.0011854297907648594,-9.656836190619071e-05
0.001274809008532441,-0.0011832974170321732,-9.775272551008923e-05
-0.0004010018636991712,-0.0011828605134597565,-9.89358044753352e-05
-0.0020173708269565545,-0.0011840696998050844,-0.00010011926958196762
-0.003550995553534357,-0.00118685388299533,-0.00010130473137336784
-0.004980628625780819,-0.0011911196950849874,-0.000102493718162408
-0.006293122312237132,-0.0011967565705539964,-0.00010368765629522749
-0.007488425411167305,-0.0012036473444156986,-0.00010488785825271233
-0.008581841855826859,-0.0012116824780491957,-0.00010609552316394478
-0.009602574224524082,-0.001220774686089371,-0.00010731175174601406
-0.01058861509884668,-0.0012308702807510565,-0.00010853757422943427
-0.01157909603741345,-0.0012419541363191866,-0.0001097739864379694
-0.012605916473803314,-0.001254046642574795,-0.00011102198682741639
-0.013686602849209075,-0.0012671929022363012,-0.00011228260659982195
-0.014819870993068815,-0.0012814461391574402,-0.00011355692612051882
-0.01598459183229336,-0.0012968483705701212,-0.00011484607337538261
-0.017142205982935897,-0.0013134117694777359,-0.00011615120344540654
-0.018242182652129447,-0.0013311039637952686,-0.00011747346131204304
-0.019229658337971658,-0.0013498398842903192,-0.00011881393323608584
-0.020053855368948267,-0.0013694816411437792,-0.00012017359399880289
-0.02067548369078166,-0.001389846310673644,-0.0001215532579747116
-0.021071343578818458,-0.0014107197243084441,-0.00012295354099220264
-0.021234940720259117,-0.0014318728664579829,-0.00012437483728758585
-0.021173024540550537,-0.0014530768490883877,-0.00012581731214535903
-0.020899146049495214,-0.0014741129343834106,-0.00012728090703709494
-0.020426062517547396,-0.0014947755386669319,-0.00012876535127362011
-0.01975886908836545,-0.0015148680044698884,-0.00013027017304518851
-0.018890350476340655,-0.0015341926142522415,-0.0001317947033545496
-0.017799600513499245,-0.0015525375897471614,-0.00013333806845654928
-0.016454570498394126,-0.0015696646752531081,-0.0001348991695890494
-0.014818705519532295,-0.0015853013132620713,-0.000136476652583307
-0.012861077285291051,-0.001599141204664483,-0.00013806887384227028
-0.010568531566067855,-0.0016108560090901624,-0.0001396738724491476
-0.007957587863482767,-0.0016201190688049376,-0.00014128935998809517
-0.0050834411678488175,-0.0016266395833206034,-0.00014291273931415794
-0.002043676687074821,-0.0016302031422480653,-0.00014454116067694228
0.0010247216885504802,-0.0016307126197473275,-0.00014617161855793998
0.003955057767814316,-0.001628222730019145,-0.0001478010862328232
0.0065658729952138796,-0.001622962264637631,-0.0001494266787301516
0.008678835813781614,-0.0016153399102331331,-0.00015104582981758697
0.010137161080620532,-0.001605931911785932,-0.0001526564657285965
0.01082264808210035,-0.0015954520072045716,-0.00015425715768809176
0.010669915869284653,-0.0015847057252288792,-0.00015584723655430848
0.0096764826433777,-0.001574532525972548,-0.00015742685567990918
0.007907120416394716,-0.0015657407244426618,-0.00015899699230511677
0.005490976539459512,-0.0015590416759647346,-0.00016055938350532047
0.00261081257492626,-0.0015549907814075418,-0.0001621163997340066
-0.0005146265540580805,-0.0015539426883971078,-0.00016367086646890892
-0.0036523152221693876,-0.0015560261592852216,-0.00016522585089275008
-0.006576952890754824,-0.0015611407933416837,-0.00016678443436906354
-0.009089824000046345,-0.0015689741817870844,-0.00016834949185662792
-0.01103241027621204,-0.0015790352989252137,-0.00016992349659698407
-0.012294333129544147,-0.0015906986706280919,-0.0001715083635817607
-0.01281653728336634,-0.0016032541058345472,-0.00017310533996999202
-0.012591233322691823,-0.0016159579911375762,-0.0001747149460184781
-0.011659939728103507,-0.0016280835776629739,-0.00017633696680287837
-0.010110179373883591,-0.0016389686372139673,-0.00017797049291031684
-0.008070424304648023,-0.0016480589390532332,-0.00017961400669845045
-0.005702381916897408,-0.0016549453421640058,-0.00018126550883905906
-0.003190031247780661,-0.0016593915487463449,-0.00018292267728451422
-0.0007256343514190196,-0.0016613493815459447,-0.00018458304774966036
0.0015062898784478362,-0.0016609590537824304,-0.00018624420196732455
0.003345494411544849,-0.0016585331616374341,-0.00018790394807503447
0.004671103001273322,-0.0016545248629310251,-0.0001895604770873187
0.005413255816861858,-0.0016494826835219576,-0.0001912124808605452
0.005559640479826322,-0.0016439962353736136,-0.00019285922031999297
0.005155829970916543,-0.0016386385001482423,-0.0001945005376877539
0.004298901757683266,-0.0016339111342839423,-0.00019613681250496998
0.0031245302629327888,-0.0016301994182736342,-0.00019776886778124876
0.0017888885646598295,-0.001627742708859838,-0.0001993978388448155
0.0004480174357075029,-0.0016266242558596543,-0.00020102502232717523
-0.0007617608912189119,-0.0016267811275874101,-0.00020265172501889877
-0.0017387183316755614,-0.0016280313671988573,-0.0002042791312662919
-0.002423082650132982,-0.0016301122676897616,-0.0002059082030837362
-0.0027957320922599063,-0.001632721675060958,-0.00020753962005511155
-0.0028690965440543747,-0.0016355540893791152,-0.00020917375793733157
-0.0026730084502423726,-0.0016383251418762635,-0.00021081069755295927
-0.0022394516150947685,-0.001640781371908932,-0.00021245025080985185
-0.0015903318427370036,-0.001642696263637848,-0.00021409198962762523
-0.000731449575385861,-0.0016438571543469095,-0.0002157352663366176
0.0003459582483130413,-0.0016440499000104458,-0.00021737921986379627
0.001656937710692239,-0.001643048452030943,-0.00021902276903981697
0.0032106265878540765,-0.00164061466988167,-0.00022066460060077327
0.004998131742883814,-0.001636510290716301,-0.00022230316308107225
0.006984266511755962,-0.0016305190915889812,-0.0002239366777722249
0.009105465113238707,-0.001622474225776484,-0.00022556317443090762
0.01127412256362589,-0.0016122844319380516,-0.00022718055375976488
0.013387856448401897,-0.0015999534424320377,-0.00022878667269694993
0.015341338375997738,-0.001585588845019838,-0.00023037944384067587
0.01703838729404331,-0.0015693989821848175,-0.0002319569377542782
0.018402509229915306,-0.0015516785339228381,-0.00023351747651233201
0.019384612502637486,-0.0015327849730565617,-0.00023505970826582172
0.01996716844898628,-0.0015131090825807499,-0.0002365826552936404
0.02016467312619536,-0.001493043161793159,-0.00023808573141582734
0.020020730237771366,-0.0014729504601111757,-0.0002395687282267795
0.01960220629778852,-0.0014531389918433957,-0.0002410317729527568
0.01899080893307858,-0.001433842484227962,-0.00024247526369079248
0.01827248475117948,-0.001415210837385833,-0.00024389979035159938
0.017525467921500896,-0.0013973118610494928,-0.00024530605170081706
0.016808476719898168,-0.0013801448887287933,-0.0002466947800757062
0.016151049809029462,-0.0013636651254643295,-0.0002480666850828028
0.015548057805371461,-0.001347815571657129,-0.00024942242543136354
0.01495994651522929,-0.0013325615694968287,-0.0002507626140019405
0.01431923633438187,-0.0013179219780720232,-0.00025208785577572493
0.013542363818605322,-0.0013039911779955296,-0.0002533988123537587
0.012544652260863631,-0.001290947669955795,-0.00025469628177773434
0.01125562605528436,-0.001279047530797721,-0.0002559812793781111
0.009632119735386224,-0.0012686036579023857,-0.00025725510497246113
0.0076673402298378,-0.0012599539279197736,-0.0002585193837653722
0.005394902854247932,-0.0012534228063777308,-0.00025977607213252096
0.002887683548773713,-0.00124928151317622,-0.00026102742429229796
0.0002519835328947989,-0.0012477116796353856,-0.00026227592088870374
-0.002381992534991399,-0.001248776684136434,-0.00026352416507058964
-0.00487189305323239,-0.001252403626930546,-0.00026477475522612313
-0.007075478808282088,-0.0012583773128613032,-0.00026603014569601905
-0.008861860568457672,-0.0012663459825496732,-0.0002672925073437245
-0.0101209613097625,-0.0012758373934887834,-0.00026856359903174373
-0.010771336780310798,-0.00128628354253382,-0.00026984465949975503
-0.01076682997040544,-0.0012970526259091781,-0.00027113632758397655
-0.010102064496393816,-0.0013074870731425777,-0.0002724385974335024
-0.008815911275687288,-0.0013169460610286182,-0.00027375081400058803
-0.0069915366532048925,-0.0013248497849930644,-0.00027507171192359884
-0.004751898897013803,-0.0013307215027681737,-0.00027639949756747944
-0.0022504732791221354,-0.0013342226888562417,-0.00027773196966329164
0.0003418970686298227,-0.0013351769769614878,-0.0002790666694962005
0.002852244753644056,-0.001333579906050351,-0.00028040104793770643
0.005120665075868358,-0.0013295934511355948,-0.00028173263461629943
0.007013510421580091,-0.0013235263633868705,-0.00028305919452356067
0.008433334991993202,-0.0013158029406800838,-0.0002843788591755942
0.009325180579668925,-0.0013069236828942526,-0.00028569022248738134
0.009679414608617662,-0.0012974213853001093,-0.00028699239502147855
0.009531448448818114,-0.0012878159537713914,-0.0002882850136910143
0.008958384675908239,-0.0012785710372090282,-0.00028956820718650453
0.008072393172155235,-0.0012700556482849964,-0.0002908425205292515
0.007010723481837613,-0.001262514089958,-0.000292108805398373
0.005922685065210388,-0.001256047385684476,-0.0002933680861361943
0.0049544550973132685,-0.0012506088156032141,-0.0002946214142368381
0.0042330988876744845,-0.0012460150386107204,-0.00029586972616394504
0.003851688532292514,-0.0012419726449007368,-0.0002971137200057008
0.003857767489762267,-0.0012381179168897095,-0.000298353765286596
0.004247379669471178,-0.0012340653433100927,-0.00029958985691669587
0.004966197295630423,-0.0012294585548275419,-0.0003008216188657647
0.0059179349584388115,-0.0012240164887005072,-0.0003020483563875287
0.006978655998417834,-0.001217568193222079,-0.00030326914872849
0.008014365950339542,-0.0012100716822477002,-0.00030448296866622494
0.008898758977082422,-0.0012016151197839892,-0.0003056888120672408
0.009528110657772136,-0.001192401684966562,-0.0003068858204696161
0.009831037468303404,-0.0011827221109035242,-0.00030807338236755116
0.009772121136139319,-0.0011729205316013027,-0.0003092512036888036
0.009349899466292442,-0.0011633595213000867,-0.00031041934371525427
0.00859087014659198,-0.0011543891364936445,-0.0003115782180441511
0.007541597191031137,-0.0011463229028248329,-0.00031272857406381034
0.006260888230518763,-0.0011394216601140579,-0.00031387144634527976
0.004813544292557946,-0.0011338844438525196,-0.0003150080993972631
0.0032663733112139907,-0.0011298444850506336,-0.0003161399638617147
0.0016860758910147277,-0.0011273682604495193,-0.00031726857023446474
0.00013774045578929584,-0.0011264563522761172,-0.00031839548254082757
-0.0013173342119235877,-0.0011270461491541843,-0.00031952223379154275
-0.0026248740254418267,-0.001129017253272867,-0.00032065026549275627
-0.0037412511734318996,-0.0011322003158723039,-0.00032178087427732884
-0.0046364120038087635,-0.0011363891474609241,-0.00032291516900899545
-0.005295363632966224,-0.0011413550352793115,-0.00032405404110036557
-0.00571811322398747,-0.0011468617737077883,-0.00032519814950485913
-0.005918474323324726,-0.0011526800674814444,-0.00032634792042545373
-0.005922335353155119,-0.0011586004723196843,-0.0003275035606953543
-0.0057658305546454975,-0.0011644445552735846,-0.0003286650832091509
-0.005493517434339528,-0.001170074229268077,-0.00032983234260142174
-0.005156327376950467,-0.0011753991516737221,-0.00033100507929189265
-0.004808881768927402,-0.001180381756246661,-0.00033218296974585283
-0.004505884952591402,-0.0011850391396074204,-0.0003333656801937799
-0.004297737030489426,-0.0011894409505989608,-0.0003345529202388831
-0.0042260580961593,-0.0011937028481622852,-0.0003357444921382637
-0.004320058530940614,-0.0011979759064758351,-0.00033694033151558276
-0.004594362715372946,-0.001202433117098992,-0.0003381405360273702
-0.005048371647202592,-0.0012072544842802796,-0.0003393453798280598
-0.005667129499923208,-0.0012126122348538424,-0.00034055531318762686
-0.0064238150838806,-0.0012186577071457442,-0.0003417709481586267
-0.007283773931640871,-0.001225511501653505,-0.0003429930327630263
-0.008209370953576033,-0.0012332580740961135,-0.00034422241755090107
-0.009164472981446464,-0.0012419449960636246,-0.0003454600190859809
-0.010117499242101783,-0.0012515859821753987,-0.00034670678457510043
-0.011042638622773951,-0.0012621660511078366,-0.000347963660591742
-0.01191964729829691,-0.001273647194068372,-0.0003492315672143301
-0.012733087029163802,-0.0012859735612321024,-0.0003505113775919803
-0.013471624371246837,-0.0012990759169323077,-0.00035180390233106255
-0.014127353612015022,-0.0013128754059239386,-0.00035310987799249067
-0.014694647001105983,-0.0013272864062304991,-0.0003544299588985679
-0.015168094712125766,-0.001342217777087115,-0.0003557647109902267
-0.015539519034995593,-0.0013575715839606757,-0.0003571146056707506
-0.015794547285994213,-0.0013732386171211707,-0.0003584800107712915
-0.015909626335814588,-0.0013890907039320751,-0.00035986117543181816
-0.015850513225083757,-0.0014049707737125243,-0.00036125820617064045
-0.015573043216259304,-0.001420682551933196,-0.0003626710328334633
-0.015026398031326407,-0.0014359822725569888,-0.00036409936524570835
-0.014158482210997168,-0.0014505747126781507,-0.00036554264373832594
-0.012922719502071215,-0.001464115313534685,-0.00036699998875143236
