frame_number,force
0,610.2550100000544
1,610.4693577235035
2,610.6697855081298
3,610.843703857373
4,610.9809977435347
5,611.0748443239568
6,611.1221369519943
7,611.1235196418594
8,611.0830841336973
9,611.0077972096552
10,610.9067213501511
11,610.7900912553192
12,610.6683241102048
13,610.5510605463408
14,610.4463355192939
15,610.3599594737194
16,610.295163727569
17,610.2525421106307
18,610.2303025099624
19,610.2248164679288
20,610.231409991617
21,610.2452733995822
22,610.2623086979864
23,610.2797251558305
24,610.2962613212693
25,610.3120247812385
26,610.3280375933139
27,610.3456177792899
28,610.3657266535284
29,610.3883995825829
30,610.4123678345051
31,610.4349592227139
32,610.4523185541043
33,610.4599199953705
34,610.4532782343655
35,610.4287261498662
36,610.3841177704379
37,610.3193315538693
38,610.236485861596
39,610.1398299168687
40,610.0353293614627
41,609.9300140009045
42,609.8311884096553
43,609.7456220560913
44,609.6788342754127
45,609.6345673168692
46,609.6144997670792
47,609.6182097416512
48,609.6433692244602
49,609.6861355833453
50,609.7416946547967
51,609.8049021259804
52,609.8709623056138
53,609.9360652937918
54,609.9978855052631
55,610.0558563021478
56,610.1111838849508
57,610.1666182612017
58,610.2260288881572
59,610.2938370785124
60,610.3743580851393
61,610.4711181794087
62,610.5862338744857
63,610.7199617438658
64,610.8705323378108
65,611.0343457637105
66,611.2065181721805
67,611.381660229271
68,611.554702639283
69,611.721596910866
70,611.879790586959
71,612.0284491712007
72,612.1684360383656
73,612.302075247803
74,612.4327340329974
75,612.5642767038202
76,612.7004522439125
77,612.8442852397026
78,612.9975493675759
79,613.1604068864078
80,613.3312819278592
81,613.5069987914867
82,613.6831702318416
83,613.8547731419928
84,614.016808612241
85,614.1649296927717
86,614.2959466605633
87,614.4081656640399
88,614.5015446511858
89,614.5776537635734
90,614.639433497353
91,614.6907687115674
92,614.7359260389281
93,614.7789207752746
94,614.8228877519024
95,614.86953687315
96,614.9187800261882
97,614.9686123334088
98,615.0153008510933
99,615.0538729525381
100,615.0788237088719
101,615.0849080752979
102,615.0678709188992
103,615.0249952652198
104,614.9553995939385
105,614.860068038683
106,614.7416385256475
107,614.6039995533672
108,614.4517616347084
109,614.2896801153136
110,614.1221110970129
111,613.9525743820334
112,613.7834744804815
113,613.6160034210994
114,613.4502269241
115,613.2853315377394
116,613.1199783825741
117,612.9526858838063
118,612.7821709410964
119,612.607611284538
120,612.428826626463
121,612.2463916920283
122,612.061684908233
123,611.8768553782978
124,611.6946794396611
125,611.5182876750578
126,611.3507738826067
127,611.1947474384867
128,611.0519411325022
129,610.9229947314556
130,610.8074737022712
131,610.7040854610401
132,610.6109892427802
133,610.5260968405202
134,610.4473098492746
135,610.3726883333012
136,610.3005680281161
137,610.2296421415933
138,610.1590167085698
139,610.0882458680325
140,610.0173518261093
141,609.9468224405078
142,609.8775599134513
143,609.8107504909204
144,609.7476520119434
145,609.6893357799204
146,609.636443359569
147,609.58902025873
148,609.546475307813
149,609.5076894296246
150,609.4712582507384
151,609.4358077095803
152,609.4002893868791
153,609.3641591276383
154,609.3273723516352
155,609.2901838543237
156,609.252804403624
157,609.2150219869038
158,609.1759185892456
159,609.1337878546565
160,609.0862932263951
161,609.030832008822
162,608.9650225716034
163,608.8872224022616
164,608.7969976737527
165,608.6954752196511
166,608.5855084848548
167,608.4715934024675
168,608.3594941179798
169,608.2555908300004
170,608.166037383145
171,608.0958852030062
172,608.0483524316696
173,608.0243758582826
174,608.0224984967723
175,608.0390606832028
176,608.0686213355295
177,608.1045484122271
178,608.1397399614498
179,608.1674184140239
180,608.1818895153377
181,608.1791316807999
182,608.1571153925693
183,608.11582143719
184,608.0569905262624
185,607.9836812501603
186,607.8997398405415
187,607.8092854312434
188,607.7162837278456
189,607.6242385286471
190,607.5359986610299
191,607.4536637657616
192,607.3785670364283
193,607.3113098929716
194,607.2518261904354
195,607.1994661172047
196,607.1531043686335
197,607.1112798550598
198,607.0723639953751
199,607.0347429093166
200,606.9969940085931
201,606.9580400734745
202,606.9172720984758
203,606.8746409036191
204,606.8307160403521
205,606.7866971174544
206,606.7443540393551
207,606.7058800312725
208,606.6736520715331
209,606.649896568507
210,606.6362683883444
211,606.6333861221884
212,606.6404139829395
213,606.654806775822
214,606.6723179008488
215,606.6873211175879
216,606.6934360116713
217,606.6843830013322
218,606.6549294685021
219,606.601745126705
220,606.5239932268596
221,606.4235504277704
222,606.3048405750873
223,606.1743468684206
224,606.0399139241307
225,605.9099656521297
226,605.7927514434167
227,605.6956980235078
228,605.6249021976117
229,605.5847729005678
230,605.5778245499938
231,605.6046157999031
232,605.663808030342
233,605.7523109286831
234,605.8655054096689
235,605.9975604861665
236,606.1418547971618
237,606.2914771809451
238,606.4397467599963
239,606.5806861242595
240,606.7093984485612
241,606.8223237611678
242,606.9173709401407
243,606.993938992008
244,607.0528505872763
245,607.0962176096024
246,607.1272439348728
247,607.149955878597
248,607.1688531108027
249,607.1885003635526
250,607.2131151831323
251,607.2462204467641
252,607.2904148032989
253,607.3472849829798
254,607.4174551495723
255,607.5007437145666
256,607.5963778663289
257,607.703204539164
258,607.8198442357269
259,607.9447688287619
260,608.0763304417194
261,608.2127894928838
262,608.3523670130348
263,608.4933029830128
264,608.633882505076
265,608.7724149396091
266,608.9071955497043
267,609.0365048164398
268,609.1586863651113
269,609.2723010909173
270,609.3763129293005
271,609.4702486937142
272,609.554293637352
273,609.6293118484633
274,609.6967944080286
275,609.758742626218
276,609.8175011987762
277,609.8755624971121
278,609.9353580408582
279,609.999041613145
280,610.0682650120434
281,610.1439570046757
282,610.2261319256352
283,610.3137689525688
284,610.4048096322299
285,610.4963095974057
286,610.5847470022785
287,610.6664485975392
288,610.7380634751146
289,610.7970031388965
290,610.84177306417
291,610.8721375369548
292,610.8890817156566
293,610.8945679978438
294,610.8911284691081
295,610.8813753060817
296,610.8675313877408
297,610.8510834826266
298,610.8326415020568
299,610.8120452054085
300,610.7886976750782
301,610.7620408754372
302,610.7320443122821
303,610.6995693004387
304,610.6665086285199
305,610.6356778703627
306,610.6105154856662
307,610.5946886285983
308,610.5916825777357
309,610.6044052885384
310,610.6348185156372
311,610.683631442877
312,610.7501253329142
313,610.8321762417394
314,610.9265058342877
315,611.0291425244686
316,611.1360328290077
317,611.2437094707536
318,611.3499003379931
319,611.4539544844134
320,611.5569751057942
321,611.6615943116778
322,611.7713998454577
323,611.8901103184743
324,612.0206635349782
325,612.1644096260263
326,612.3205816880952
327,612.4861586393316
328,612.6561494050616
329,612.8242337336598
330,612.9836225407464
331,613.1279706753633
332,613.2521831392223
333,613.3529850193416
334,613.4291685933996
335,613.4814927562534
336,613.5122865062758
337,613.5248752343564
338,613.5229762741643
339,613.510189785832
340,613.489659014568
341,613.4639146480255
342,613.4348706097106
343,613.4039185661553
344,613.3720811257789
345,613.3402070293128
346,613.30919023769
347,613.280168452815
348,613.2546440909246
349,613.2344940911803
350,613.221874212101
351,613.2190510724843
352,613.2282026699015
353,613.2512202890513
354,613.2895292891598
355,613.3439309983956
356,613.4144639508629
357,613.5002987481108
358,613.5997045855072
359,613.7101294633252
360,613.828410511793
361,613.951089623766
362,614.074770327446
363,614.1964306001703
364,614.3136156185757
365,614.424471162507
366,614.5276267179111
367,614.6219822714728
368,614.7064796415071
369,614.7799345753857
370,614.8409752368152
371,614.8880999097363
372,614.919843105023
373,614.9350153288025
374,614.9329569051274
375,614.9137383797087
376,614.878261779718
377,614.8282610311151
378,614.7662409669443
379,614.695401074722
380,614.6195525288576
381,614.5429840650545
382,614.4702096893822
383,614.4055644814986
384,614.3526880168123
385,614.3140012963312
386,614.2903026728711
387,614.2805767384375
388,614.2820519622818
389,614.2904888875473
390,614.3006484888865
391,614.3068777239339
392,614.3037472650705
393,614.2866776717394
394,614.2524854238479
395,614.1997685009421
396,614.1290550810915
397,614.0426809079262
398,613.9444269022883
399,613.8389988335671
400,613.731444598952
401,613.6265935681378
402,613.5285823879846
403,613.4405065176433
404,613.3642114414547
405,613.3002215133077
406,613.2477987071719
407,613.2051205009566
408,613.1695605300639
409,613.1380463075218
410,613.107457745087
411,613.0750264557288
412,613.0387011484164
413,612.9974466217188
414,612.951434290484
415,612.9020762789096
416,612.851877479651
417,612.8041290546141
418,612.7625116741397
419,612.7306924054931
420,612.7119850409266
421,612.7091072376686
422,612.7240190321718
423,612.7577900742118
424,612.8104446357141
425,612.8807758267999
426,612.9661718762618
427,613.0625207688971
428,613.1642499789873
429,613.2645426036605
430,613.3557661187153
431,613.4301342204204
432,613.4805680402916
433,613.5016408502786
434,613.4904261532581
435,613.447060596977
436,613.3748826309528
437,613.2800930477584
438,613.1709779606219
439,613.0568157636282
440,612.9466439627408
441,612.8480868717365
442,612.7664393277457
443,612.7041573700895
444,612.6608219428557
445,612.6335364517646
446,612.6176343648109
447,612.6075398350515
448,612.5976364797505
449,612.5830280876789
450,612.5601044261102
451,612.5268604222077
452,612.4829603964829
453,612.429581873787
454,612.3691076877213
455,612.3047540772503
456,612.240216275704
457,612.179381895076
458,612.1261252054536
459,612.0841701461217
460,612.0569947802641
461,612.0477354456273
462,612.0590393489153
463,612.0928245241499
464,612.1499426631433
465,612.2297961682295
466,612.3300167702442
467,612.4463388874906
468,612.5727698731033
469,612.7020762853009
470,612.8265110783524
471,612.9386447809519
472,613.0321524268384
473,613.1024419610501
474,613.147067116379
475,613.1659140328783
476,613.1611636413984
477,613.1370260946297
478,613.0992541809607
479,613.0544781100604
480,613.0094391440758
481,612.9702142072339
482,612.9415229115322
483,612.9262038679162
484,612.9249376500418
485,612.9362668366585
486,612.9569123989447
487,612.9823268953203
488,613.0073872431783
489,613.0271209922711
490,613.0373631452368
491,613.0352470217346
492,613.0194554891243
493,612.990207464929
494,612.9490150817318
495,612.8982935835592
496,612.8409212675239
497,612.7798305767578
498,612.7176797075937
499,612.6566269204159
500,612.5982162988403
501,612.5433754896917
502,612.4925086038243
503,612.4456445363024
504,612.4025937628624
505,612.3630805548468
506,612.32683220385
507,612.2936112078594
508,612.2631822344242
509,612.2352195299795
510,612.2091745332649
511,612.1841341947156
512,612.1587084095321
513,612.1309848074845
514,612.098578449249
515,612.0587891384591
516,612.0088634862964
517,611.94633780547
518,611.8694127716269
519,611.7772962327915
520,611.6704565096702
521,611.5507492780188
522,611.4214077298262
523,611.2869093059177
524,611.1527417693989
525,611.025088375034
526,610.910450401927
527,610.8152280738608
528,610.7452793594721
529,610.7054711719277
530,610.699239563676
531,610.7281886837375
532,610.7917749432752
533,610.8871326328223
534,611.0090936727363
535,611.150433491689
536,611.3023387066992
537,611.4550533396886
538,611.5986374138388
539,611.7237715504571
540,611.8225512661174
541,611.8892186726591
542,611.9207738919471
543,611.9174019233817
544,611.8826508307245
545,611.8233075312777
546,611.7489411363168
547,611.6711215684496
548,611.6023657102626
549,611.554902968533
550,611.5393825615438
551,611.5636686060885
552,611.6318837349055
553,611.7438563014107
554,611.8950876128918
555,612.0772791902966
556,612.2793579383305
557,612.4888410684608
558,612.693326196105
559,612.8818851584042
560,613.0461693882376
561,613.1810873682966
562,613.2849878233455
563,613.3593690610603
564,613.408216481435
565,613.4371240135973
566,613.452366870446
567,613.4600666373642
568,613.465546046892
569,613.4729280875887
570,613.4849930013432
571,613.5032619686788
572,613.5282346917407
573,613.5596825136831
574,613.596894944631
575,613.6387988217208
576,613.6839193368774
577,613.7302211080447
578,613.7749272079138
579,613.8144333400741
580,613.8444001485619
581,613.8600364553588
582,613.8565196563894
583,613.8294699528441
584,613.7754033762775
585,613.6921076255471
586,613.5788961555921
587,613.4367113952643
588,613.2680817525412
589,613.0769730609563
590,612.8685826172281
591,612.6490979761528
592,612.4254088821551
593,612.2047459642502
594,611.9942323867086
595,611.8003647851087
596,611.6284678650089
597,611.4821803000216
598,611.3630335639699
599,611.2701882506573
600,611.2003878249939
601,611.1481675420415
602,611.1063198719971
603,611.0665814319452
604,611.0204815623481
605,610.9602773730796
606,610.8798815512304
607,610.7756631664794
608,610.6469875086705
609,610.4963844490242
610,610.329295160454
611,610.1534192087704
612,609.9777508314397
613,609.8114483171559
614,609.6627080582066
615,609.5378016662356
616,609.4403940698639
617,609.3712176073226
618,609.3281368291771
619,609.3065911896934
620,609.3003488345335
621,609.302459196196
622,609.3062662243763
623,609.3063353023159
624,609.2991520877374
625,609.2834825834796
626,609.260351845527
627,609.2326836472747
628,609.2047036839115
629,609.1812258107659
630,609.166931657163
631,609.165740707687
632,609.1803513485191
633,609.2120028745029
634,609.2604648129724
635,609.3242191958819
636,609.4007784335779
637,609.4870748006475
638,609.5798565591588
639,609.6760297044497
640,609.7729016170207
641,609.8683101503638
642,609.9606418045795
643,610.0487500809191
644,610.1317950851748
645,610.2090486463693
646,610.2797326532783
647,610.3429598671148
648,610.3978162023095
649,610.4435672349975
650,610.4799104843613
651,610.5071641941182
652,610.5263095315811
653,610.5388727932359
654,610.5467036657516
655,610.5517415880144
656,610.5558563548963
657,610.5608072387391
658,610.5683072348829
659,610.580137662733
660,610.5982514176993
661,610.6248176479386
662,610.662176259409
663,610.7126867018478
664,610.7784770618622
665,610.8611181004526
666,610.9612572614207
667,611.078263561641
668,611.2099608368663
669,611.3525380737173
670,611.5006976201817
671,611.6480476486671
672,611.7876929289713
673,611.9129395241679
674,612.0180015954281
675,612.0985849376867
676,612.1522385641682
677,612.1784238851258
678,612.1783315950914
679,612.1545376963597
680,612.1106032250133
681,612.0506898914377
682,611.9792132900038
683,611.9005209988462
684,611.818584127455
685,611.7367177592363
686,611.6573713831676
687,611.582037283621
688,611.5113107859237
689,611.4451010516988
690,611.3829401700289
691,611.3242970665129
692,611.2687994821258
693,611.216302418777
694,611.1667945555986
695,611.1201876399854
696,611.0760743632587
697,611.0335545215235
698,610.9912089774526
699,610.9472447145948
700,610.8997569788643
701,610.8469972005514
702,610.787539751104
703,610.7203043839631
704,610.6444665512674
705,610.5593281674913
706,610.4642184519464
707,610.3584668266196
708,610.2414549679908
709,610.1127242168666
710,609.9720983775978
711,609.8197867167248
712,609.6564542188896
713,609.4832724795635
714,609.3019748171395
715,609.1149212571737
716,608.9251467834188
717,608.7363488629031
718,608.5527811879987
719,608.3790485280962
720,608.219823370691
721,608.0795149533783
722,607.9619136982589
723,607.8698250844436
724,607.8047192595134
725,607.7664563477631
726,607.7531710427638
727,607.7613822911758
728,607.7863375572281
729,607.8225381690256
730,607.8643517006686
731,607.906605691931
732,607.9450667057786
733,607.976738759003
734,607.9999669117591
735,608.0143836549306
736,608.0207532569731
737,608.0207500781529
738,608.0166831931175
739,608.0111738273562
740,608.0068013040939
741,608.0057499804867
742,608.0095072623918
743,608.0186686934115
744,608.0328924553513
745,608.0510179508103
746,608.0713289508587
747,608.0919070130299
748,608.1110014786019
749,608.1273518706081
750,608.1404213690215
751,608.1505079055662
752,608.1586943372752
753,608.1666136986713
754,608.1760590623006
755,608.1885377910354
756,608.2049111355906
757,608.2252440163762
758,608.2489241314341
759,608.2750215432638
760,608.3027778101382
761,608.3320646971029
762,608.3636617707238
763,608.3992749688701
764,608.4413175176509
765,608.4925384638642
766,608.5555836298124
767,608.6325407373082
768,608.7245082849302
769,608.831253663891
770,608.9510537342929
771,609.0807908397346
772,609.2163015174891
773,609.352888060233
774,609.485857586689
775,609.6109695455194
776,609.7247312033156
777,609.8245436369394
778,609.9087384969114
779,609.9765506400902
780,610.0280537991742
781,610.0640635865382
782,610.0860003846549
783,610.0957097197062
784,610.0952515133234
785,610.0866789441086
786,610.0718281142729
787,610.0521379521541
788,610.0285229876661
789,610.0013295774344
790,609.9704092916451
791,609.9353261535288
792,609.8956701647982
793,609.8513947868022
794,609.8030678326351
795,609.7519518318859
796,609.6998989779474
797,609.6491108603833
798,609.6018388053669
799,609.5600882193743
800,609.525362982002
801,609.4984676637056
802,609.4793853017234
803,609.4672498226416
804,609.460414212821
805,609.4565870296329
806,609.4529962948301
807,609.4465499571958
808,609.4339869764095
809,609.4120386928757
810,609.3776333380425
811,609.3281729537788
812,609.261893245037
813,609.1782799033305
814,609.0784650547482
815,608.9654928028727
816,608.8443494590709
817,608.7216990327537
818,608.6053276773921
819,608.5033654290743
820,608.423408002885
821,608.3716908475512
822,608.352455301873
823,608.3675938580774
824,608.4165985172259
825,608.496791837236
826,608.6037924689923
827,608.7321410937351
828,608.8759893326242
829,609.0297444855368
830,609.1885724683491
831,609.3486896752552
832,609.5074203683296
833,609.6630529781717
834,609.8145785392095
835,609.9614142859833
836,610.1031917450845
837,610.23963205925
838,610.3704796641457
839,610.4954581922508
840,610.614247923773
841,610.726516004568
842,610.8320207024293
843,610.930771356209
844,611.0231964272094
845,611.110271797847
846,611.1935774119605
847,611.275265029776
848,611.3579298665476
849,611.4443901524056
850,611.5373935575566
851,611.6392825537112
852,611.751656461016
853,611.8750678426252
854,612.0087914857614
855,612.1507077492843
856,612.297341552842
857,612.4440808180124
858,612.5855586448859
859,612.716138035305
860,612.8304131412659
861,612.9236475117704
862,612.9920992424009
863,613.0332234024029
864,613.0457787447048
865,613.0298766361784
866,612.986985864839
867,612.9198713833613
868,612.8324347481635
869,612.7294441754124
870,612.6161665946112
871,612.4979286378588
872,612.3796485239825
873,612.2654019255237
874,612.1580997350777
875,612.0593485340785
876,611.9695285350318
877,611.8880647851004
878,611.8138086823154
879,611.7454205012922
880,611.6816645599727
881,611.6215783315876
882,611.5645220066599
883,611.510140493272
884,611.4582833373863
885,611.4089358265965
886,611.3622054368159
887,611.3183691068334
888,611.2779316955873
889,611.2416123633577
890,611.2101934356194
891,611.1842323477309
892,611.1637178317883
893,611.1477989187507
894,611.1346961696696
895,611.1218304942823
896,611.1061276323277
897,611.0844193878405
898,611.0538655582462
899,611.0123376470555
900,610.9587234467433
901,610.8931303677451
902,610.8169790063578
903,610.7329777511546
904,610.6449597140386
905,610.5575645759122
906,610.4757717401415
907,610.404328677825
908,610.3471540910907
909,610.3068202358999
910,610.2842238408041
911,610.2785326257915
912,610.2874463692929
913,610.3077454499971
914,610.3360235315608
915,610.3694349751967
916,610.4062687980157
917,610.4462131192382
