frame_number,force
0,735.2495700063478
1,735.1380084439874
2,735.0267375446623
3,734.9160458549228
4,734.8062177174066
5,734.6975312396473
6,734.5902563433306
7,734.4846529146537
8,734.3809690725869
9,734.2794395682919
10,734.1802843265509
11,734.0837071389504
12,733.9898945180432
13,733.8990147208369
14,733.811216947816
15,733.7266307200117
16,733.6453654323523
17,733.5675100783012
18,733.4931331393291
19,733.4222826321652
20,733.3549863060042
21,733.2912519808636
22,733.2310680176466
23,733.1744039101482
24,733.1212109887408
25,733.0714232246253
26,733.0249581229384
27,732.981717693474
28,732.9415894892225
29,732.9044477041863
30,732.8701543219554
31,732.8385603054288
32,732.809506816792
33,732.7828264563074
34,732.7583445091399
35,732.735880191103
36,732.7152478860493
37,732.6962583687963
38,732.6787200078307
39,732.6624399421132
40,732.6472252267233
41,732.632883943032
42,732.6192262704061
43,732.6060655178965
44,732.5932191156342
45,732.5805095665355
46,732.5677653592571
47,732.5548218428858
48,732.5415220621503
49,732.5277175491824
50,732.5132690652553
51,732.4980472846188
52,732.48193341254
53,732.4648197303053
54,732.4466100609505
55,732.4272201509219
56,732.4065779646132
57,732.3846238904481
58,732.3613108586637
59,732.3366043720979
60,732.3104824520207
61,732.2829355015647
62,732.2539660899898
63,732.2235886619744
64,732.191829176977
65,732.1587246841732
66,732.1243228384808
67,732.0886813625767
68,732.051867458582
69,732.0139571719703
70,731.9750347103136
71,731.9351917208405
72,731.8945265325065
73,731.8531433693539
74,731.8111515421857
75,731.7686646252981
76,731.7257996244218
77,731.6826761411036
78,731.6394155377022
79,731.5961401064307
80,731.5529722456057
81,731.5100336460887
82,731.4674444904997
83,731.4253226675642
84,731.3837830044929
85,731.3429365215969
86,731.3028897147249
87,731.2637438721016
88,731.2255944327462
89,731.1885303938906
90,731.1526337743851
91,731.1179791397419
92,731.0846331926733
93,731.0526544317086
94,731.022092880071
95,730.9929898867383
96,730.9653780006405
97,730.9392809172689
98,730.9147134953153
99,730.8916818400247
100,730.8701834498111
101,730.8502074228683
102,730.8317347206403
103,730.8147384849209
104,730.7991844048097
105,730.7850311284534
106,730.7722307127691
107,730.7607291029742
108,730.750466633294
109,730.7413785405455
110,730.733395482856
111,730.7264440564038
112,730.7204473040551
113,730.7153252112753
114,730.7109951864073
115,730.7073725242047
116,730.7043708535084
117,730.7019025720952
118,730.6998792735269
119,730.6982121718497
120,730.6968125300407
121,730.6955920972424
122,730.6944635582823
123,730.6933409969583
124,730.6921403724447
125,730.6907800064449
126,730.6891810777049
127,730.6872681201113
128,730.6849695206257
129,730.682218013512
130,730.6789511672547
131,730.6751118597995
132,730.6706487364755
133,730.6655166438865
134,730.6596770325823
135,730.6530983213908
136,730.6457562169352
137,730.6376339830418
138,730.6287226559474
139,730.6190212018425
140,730.6085366132537
141,730.5972839405567
142,730.5852862549386
143,730.5725745393588
144,730.5591875046819
145,730.5451713298677
146,730.530579328172
147,730.5154715446454
148,730.4999142923115
149,730.4839796350367
150,730.4677448252426
151,730.4512917049843
152,730.4347060792663
153,730.418077070387
154,730.4014964615951
155,730.3850580376746
156,730.3688569294424
157,730.3529889684752
158,730.3375500574286
159,730.3226355599971
160,730.3083397131186
161,730.294755062758
162,730.2819719237457
163,730.2700778636749
164,730.2591572104778
165,730.2492905827345
166,730.2405544412562
167,730.2330206607797
168,730.2267561223113
169,730.2218223293816
170,730.2182750538254
171,730.2161640175655
172,730.2155326163042
173,730.21641768979
174,730.2188493417505
175,730.2228508105181
176,730.2284383889154
177,730.2356213899122
178,730.2444021536943
179,730.2547760919849
180,730.2667317659534
181,730.2802509942861
182,730.295308988378
183,730.3118745126944
184,730.329910069829
185,730.3493721107262
186,730.370211270504
187,730.392372629725
188,730.4157960005866
189,730.4404162376893
190,730.466163573432
191,730.4929639779161
192,730.5207395420911
193,730.5494088812376
194,730.5788875547454
195,730.6090884981187
196,730.6399224639747
197,730.6712984696657
198,730.7031242494874
199,730.7353067093348
200,730.7677523815368
201,730.8003678776056
202,730.8330603366852
203,730.86573786744
204,730.8983099808398
205,730.9306880107446
206,730.9627855188262
207,730.9945186805923
208,731.0258066497718
209,731.0565718985802
210,731.0867405316493
211,731.1162425725637
212,731.1450122240332
213,731.1729881048002
214,731.200113467563
215,731.226336402514
216,731.251610030945
217,731.275892692933
218,731.2991481321242
219,731.3213456787815
220,731.3424604297874
221,731.3624734219536
222,731.3813717933108
223,731.3991489261331
224,731.4158045652656
225,731.431344905832
226,731.445782645581
227,731.4591369985125
228,731.4714336673512
229,731.482704772826
230,731.4929887381795
231,731.5023301280115
232,731.5107794408194
233,731.5183928541909
234,731.5252319212937
235,731.5313632180402
236,731.5368579421952
237,731.5417914680226
238,731.5462428618919
239,731.5502943651821
240,731.5540308511522
241,731.5575392625299
242,731.5609080361047
243,731.5642265192736
244,731.567584381927
245,731.5710710265665
246,731.574775000648
247,731.5787834169564
248,731.5831813890646
249,731.5880514892023
250,731.5934732355829
251,731.5995226156981
252,731.6062716513508
253,731.6137880104297
254,731.622134669941
255,731.6313696346039
256,731.6415457150267
257,731.6527103687753
258,731.6649056064232
259,731.67816796304
260,731.6925285338551
261,731.7080130712682
262,731.7246421387131
263,731.742431314973
264,731.7613914408422
265,731.7815288991352
266,731.8028459189705
267,731.825340895493
268,731.8490087162985
269,731.8738410855884
270,731.8998268364317
271,731.9269522205268
272,731.9552011641592
273,731.9845554795405
274,732.0149950227703
275,732.0464977926847
276,732.079039967919
277,732.1125958820484
278,732.1471379389302
279,732.1826364729761
280,732.2190595621435
281,732.2563728042109
282,732.2945390684954
283,732.3335182353084
284,732.37326693459
285,732.4137382938562
286,732.4548817041098
287,732.4966426109
288,732.5389623365303
289,732.5817779386343
290,732.6250221097857
291,732.6686231221481
292,732.7125048203397
293,732.756586664806
294,732.8007838272246
295,732.8450073389511
296,732.8891642934262
297,732.9331581037978
298,732.9768888173386
299,733.0202534880451
300,733.0631466079477
301,733.1054605964322
302,733.1470863456378
303,733.1879138191204
304,733.2278327007068
305,733.2667330905218
306,733.3045062447095
307,733.3410453539555
308,733.3762463540085
309,733.4100087597626
310,733.4422365133471
311,733.4728388359221
312,733.5017310723641
313,733.5288355176388
314,733.5540822133673
315,733.5774097030074
316,733.5987657342272
317,733.6181078972769
318,733.6354041883399
319,733.650633487305
320,733.6637859407098
321,733.6748632429799
322,733.6838788123139
323,733.6908578609139
324,733.6958373616343
325,733.6988659138688
326,733.7000035111937
327,733.6993212132462
328,733.6969007253897
329,733.6928338916638
330,733.6872221082335
331,733.6801756649969
332,733.6718130220694
333,733.662260026356
334,733.651649072344
335,733.6401182110773
336,733.6278102119394
337,733.6148715830597
338,733.6014515577367
339,733.5877010563757
340,733.5737716360298
341,733.5598144418907
342,733.545979175637
343,733.5324130938473
344,733.5192600466675
345,733.506659564092
346,733.4947459954004
347,733.4836477061441
348,733.4734863359104
349,733.4643761187928
350,733.4564232675732
351,733.4497254222666
352,733.4443711634395
353,733.4404395902848
354,733.4379999632671
355,733.4371114117895
356,733.4378227083672
357,733.4401721113719
358,733.4441872783847
359,733.4498852522318
360,733.4572725222655
361,733.4663451640774
362,733.4770890610683
363,733.4894802108856
364,733.5034851185588
365,733.5190612762342
366,733.5361577270148
367,733.5547157079822
368,733.5746693654686
369,733.595946534368
370,733.6184695726794
371,733.6421562422165
372,733.6669206259721
373,733.6926740717317
374,733.7193261503328
375,733.7467856160573
376,733.774961356379
377,733.8037633184005
378,733.8331033994315
379,733.862896289273
380,733.8930602521131
381,733.9235178367361
382,733.9541965051121
383,733.9850291711631
384,734.0159546431081
385,734.0469179641602
386,734.0778706479558
387,734.1087708073069
388,734.1395831774158
389,734.170279037159
390,734.2008360343264
391,734.2312379228632
392,734.2614742220188
393,734.2915398083793
394,734.321434451766
395,734.3511623052909
396,734.3807313590788
397,734.4101528663625
398,734.439440749522
399,734.4686109922152
400,734.4976810225891
401,734.5266690922302
402,734.5555936561163
403,734.5844727598966
404,734.6133234418284
405,734.6421611574199
406,734.6709992353524
407,734.6998483735646
408,734.7287161841147
409,734.7576067942138
410,734.7865205087973
411,734.8154535377068
412,734.8443977883574
413,734.8733407229373
414,734.9022652782289
415,734.9311498461288
416,734.9599683132047
417,734.9886901573891
418,735.0172805994284
419,735.0457008065723
420,735.0739081461015
421,735.1018564861365
422,735.1294965408372
423,735.1567762573139
424,735.1836412426459
425,735.2100352306844
426,735.2359005885507
427,735.2611788611839
428,735.2858113493012
429,735.3097397126443
430,735.3329065871771
431,735.3552562025465
432,735.3767349850492
433,735.3972921316126
434,735.4168801414374
435,735.4354552935876
436,735.4529780608815
437,735.4694134531678
438,735.4847312865159
439,735.498906378461
440,735.5119186720591
441,735.5237532924293
442,735.53440053922
443,735.5438558181405
444,735.552119514948
445,735.5591968157046
446,735.5650974772303
447,735.5698355513967
448,735.573429066505
449,735.5758996685822
450,735.57727222498
451,735.5775743923431
452,735.5768361513442
453,735.5750893120618
454,735.5723669963337
455,735.56870310583
456,735.5641317858575
457,735.5586868947881
458,735.552401488151
459,735.5453073257693
460,735.5374344102785
461,735.5288105655486
462,735.5194610630741
463,735.5094083027661
464,735.4986715521602
465,735.487266745751
466,735.47520634449
467,735.4624992543072
468,735.4491508015232
469,735.4351627622502
470,735.4205334426589
471,735.4052578073669
472,735.3893276536328
473,735.3727318286441
474,735.3554564856665
475,735.3374853728078
476,735.318800146753
477,735.2993807037693
478,735.2792055213807
479,735.2582520057538
480,735.2364968416124
481,735.2139163433841
482,735.1904868080017
483,735.1661848706584
484,735.1409878643096
485,735.1148741821888
486,735.0878236410312
487,735.0598178416478
488,735.0308405226032
489,735.0008779016387
490,734.9699189987784
491,734.9379559355554
492,734.9049842062408
493,734.8710029182242
494,734.8360149992051
495,734.8000273688622
496,734.7630510726509
497,734.7251013757714
498,734.686197816346
499,734.6463642180812
500,734.60562866342
501,734.5640234279861
502,734.5215848763762
503,734.4783533188005
504,734.4343728279732
505,734.3896910159234
506,734.3443587709103
507,734.2984299554139
508,734.2519610671121
509,734.2050108657031
510,734.1576399694131
511,734.1099104262807
512,734.0618852668385
513,734.013628046102
514,733.965202383232
515,733.9166715070427
516,733.8680978153859
517,733.8195424566248
518,733.7710649414057
519,733.7227227922192
520,733.674571236837
521,733.6266629499876
522,733.5790478459544
523,733.5317729234977
524,733.4848821639132
525,733.438416482849
526,733.392413735845
527,733.3469087758086
528,733.3019335580549
529,733.2575172859267
530,733.2136865881012
531,733.1704657177752
532,733.1278767636499
533,733.0859398625122
534,733.0446734035232
535,733.0040942157361
536,732.9642177328975
537,732.9250581325836
538,732.8866284496107
539,732.8489406660497
540,732.8120057817168
541,732.775833869425
542,732.7404341183369
543,732.7058148667501
544,732.6719836236915
545,732.6389470780797
546,732.606711095069
547,732.5752807005343
548,732.5446600555218
549,732.5148524227407
550,732.4858601270428
551,732.4576845113831
552,732.4303258889735
553,732.4037834914405
554,732.378055411955
555,732.3531385416835
556,732.3290284979373
557,732.3057195433046
558,732.2832044965648
559,732.2614746377578
560,732.2405196112287
561,732.2203273318007
562,732.2008839001807
563,732.182173534
564,732.164178520561
565,732.1468791966402
566,732.1302539596418
567,732.1142793130796
568,732.0989299482052
569,732.0841788630172
570,732.0699975196582
571,732.0563560406121
572,732.0432234426211
573,732.0305679048494
574,732.0183570649967
575,732.0065583344872
576,731.995139222235
577,731.9840676562269
578,731.9733122932183
579,731.9628428088922
580,731.9526301634196
581,731.9426468399519
582,731.9328670554705
583,731.9232669441689
584,731.9138247132049
585,731.9045207696444
586,731.8953378160321
587,731.8862609107997
588,731.8772774893894
589,731.868377342853
590,731.859552552248
591,731.8507973788479
592,731.8421081120023
593,731.8334828785711
594,731.8249214201137
595,731.8164248460374
596,731.8079953721873
597,731.7996360546236
598,731.7913505277735
599,731.7831427551273
600,731.7750167993115
601,731.7669766166183
602,731.759025879096
603,731.7511678258577
604,731.7434051450839
605,731.7357398888398
606,731.7281734228588
607,731.7207064117935
608,731.7133388374946
609,731.7060700450573
610,731.6988988100212
611,731.6918234207184
612,731.6848417716722
613,731.6779514658422
614,731.6711499246811
615,731.6644345056229
616,731.6578026270524
617,731.6512519008943
618,731.6447802726857
619,731.6383861684882
620,731.632068647366
621,731.6258275576588
622,731.6196636952059
623,731.6135789619486
624,731.6075765234833
625,731.6016609637522
626,731.5958384340488
627,731.5901167921179
628,731.5845057258084
629,731.5790168548866
630,731.5736638046792
631,731.5684622464718
632,731.5634299018831
633,731.558586511198
634,731.5539537682931
635,731.5495552267741
636,731.5454161828288
637,731.5415635400686
638,731.538025660774
639,731.5348322069311
640,731.5320139733175
641,731.529602713709
642,731.5276309604628
643,731.5261318377374
644,731.525138869393
645,731.5246857836516
646,731.5248063173867
647,731.5255340232416
648,731.526902082517
649,731.528943126174
650,731.531689065994
651,731.5351709382215
652,731.5394187623361
653,731.5444614171663
654,731.5503265351554
655,731.5570404137411
656,731.5646279413394
657,731.5731125348082
658,731.5825160854221
659,731.5928589107758
660,731.6041597102443
661,731.616435521616
662,731.6297016762417
663,731.6439717494528
664,731.6592575024546
665,731.6755688119619
666,731.6929135845782
667,731.7112976537887
668,731.7307246583088
669,731.7511959018133
670,731.7727101959988
671,731.7952636910229
672,731.8188496991313
673,731.8434585185156
674,731.8690772650583
675,731.8956897197102
676,731.9232761992455
677,731.9518134582562
678,731.9812746299228
679,732.0116292116417
680,732.0428430991608
681,732.0748786704982
682,732.1076949195169
683,732.141247638648
684,732.1754896501017
685,732.210371083963
686,732.245839699367
687,732.2818412420528
688,732.3183198291827
689,732.3552183510698
690,732.3924788793546
691,732.4300430720198
692,732.4678525672336
693,732.5058493598481
694,732.5439761558822
695,732.5821767014221
696,732.6203960833815
697,732.6585810005417
698,732.696680003769
699,732.7346437040406
700,732.7724249464782
701,732.8099789488546
702,732.8472634043832
703,732.8842385506065
704,732.9208672082133
705,732.9571147950059
706,732.9929493206517
707,733.0283413673193
708,733.0632640602223
709,733.0976930309761
710,733.1316063756659
711,733.1649846085489
712,733.197810611183
713,733.230069575446
714,733.2617489374986
715,733.2928382985784
716,733.3233293280714
717,733.3532156449515
718,733.3824926753941
719,733.4111574865894
720,733.4392085987937
721,733.466645779006
722,733.4934698203076
723,733.5196823109368
724,733.5452853968989
725,733.5702815419313
726,733.594673289177
727,733.6184630292647
728,733.6416527785584
729,733.6642439692162
730,733.6862372507662
731,733.7076323023496
732,733.7284276553827
733,733.748620527166
734,733.7682066663502
735,733.7871802113596
736,733.805533563149
737,733.823257273994
738,733.840339954182
739,733.8567681985344
740,733.872526534924
741,733.8875973974233
742,733.9019611270629
743,733.9155960029553
744,733.9284783057828
745,733.9405824148652
746,733.9518809397036
747,733.9623448868099
748,733.9719438620082
749,733.9806463069979
750,733.9884197673579
751,733.9952311878822
752,734.0010472300769
753,734.0058346056904
754,734.009560419552
755,734.0121925151304
756,734.0136998170817
757,734.0140526661737
758,734.013223142859
759,734.0111853760637
760,734.0079158333095
761,734.003393587406
762,733.9976005543125
763,733.9905216968504
764,733.9821451897681
765,733.9724625429833
766,733.9614686813663
767,733.9491619810873
768,733.9355442643317
769,733.9206207559971
770,733.9044000072244
771,733.8868937906637
772,733.868116971333
773,733.848087355857
774,733.8268255225834
775,733.804354635435
776,733.780700244826
777,733.7558900791322
778,733.7299538299515
779,733.7029229339628
780,733.674830354103
781,733.6457103631736
782,733.6155983334492
783,733.5845305360529
784,733.5525439540204
785,733.519676113322
786,733.4859649363237
787,733.4514486217533
788,733.4161655542268
789,733.3801542452246
790,733.3434533062506
791,733.3061014534625
792,733.2681375412363
793,733.2296006204488
794,733.1905300164824
795,733.1509654222764
796,733.1109470026498
797,733.0705155068193
798,733.0297123860735
799,732.9885799132046
800,732.9471613000152
801,732.9055008091287
802,732.863643856193
803,732.821637098277
804,732.7795285040821
805,732.7373674018178
806,732.6952045013373
807,732.6530918883387
808,732.6110829899427
809,732.5692325124184
810,732.5275963526669
811,732.4862314850441
812,732.4451958247507
813,732.4045480692592
814,732.3643475204223
815,732.3246538914764
816,732.2855271041175
817,732.2470270805677
818,732.209213534307
819,732.1721457618286
820,732.1358824371548
821,732.1004814109172
822,732.0659995161128
823,732.0324923828373
824,732.0000142642097
825,731.9686178750482
826,731.9383542433334
827,731.9092725722988
828,731.8814201089148
829,731.8548420135768
830,731.8295812264848
831,731.8056783281693
832,731.7831713939439
833,731.7620958439602
834,731.7424842916707
835,731.7243663939354
836,731.7077687058602
837,731.6927145429987
838,731.6792238531002
839,731.6673130990727
840,731.6569951536808
841,731.6482792046777
842,731.6411706675037
843,731.6356711021997
844,731.631778131534
845,731.6294853580404
846,731.6287822786569
847,731.6296541970054
848,731.6320821346849
849,731.6360427439947
850,731.6415082253395
851,731.648446253441
852,731.6568199175263
853,731.6665876820009
854,731.677703375434
855,731.6901162162294
856,731.7037708827233
857,731.7186076340871
858,731.7345624869105
859,731.7515674508709
860,731.7695508253671
861,731.7884375573854
862,731.8081496590755
863,731.8286066813547
864,731.8497262372236
865,731.8714245657147
866,731.8936171252637
867,731.9162192044648
868,731.9391465384866
869,731.9623159199662
870,731.9856457931905
871,732.0090568199679
872,732.0324724055721
873,732.0558191743245
874,732.0790273869859
875,732.1020312955778
876,732.1247694343588
877,732.1471848477747
878,732.1692252574426
879,732.1908431709295
880,732.2119959353869
881,732.232645739161
882,732.2527595646665
883,732.2723090963885
884,732.2912705890626
885,732.3096247023781
886,732.3273563089951
887,732.3444542817751
888,732.3609112645148
889,732.3767234291377
890,732.391890221724
891,732.4064140997017
892,732.4203002624515
893,732.4335563774582
894,732.44619230437
895,732.4582198201814
896,732.4696523498671
897,732.4805047075107
898,732.4907928529198
899,732.5005336679392
900,732.509744755458
901,732.5184442629902
902,732.5266507323513
903,732.5343829775379
904,732.54165999358
905,732.548500898563
906,732.5549249089297
907,732.5609513456056
908,732.5665996666497
909,732.5718895213631
910,732.5768408206029
911,732.5814738176446
912,732.5858091931223
913,732.5898681370644
914,732.5936724215717
915,732.5972444590851
916,732.6006073425586
917,732.6037848644428
918,732.6068015112066
