acceleration,velocity,displacement
0.03358543621473127,0.0,0.0
0.032091840277663555,1.6419319123098708e-05,4.104829780774677e-09
0.030602135762690146,3.209281313318713e-05,1.6232862844846136e-08
0.029120185756217783,4.702339351291411e-05,3.601191450637145e-08
0.02764979706230623,6.121588921754511e-05,6.307173518898625e-08
0.026194693008895157,7.467701173534546e-05,9.70449604272089e-08
0.02475848733107877,8.741530682033894e-05,1.3756804006613e-07
0.02334465940795715,9.944109350509792e-05,1.8428214014748923e-07
0.021956531077966867,0.00011076639112657892,2.3683401130540845e-07
0.02059724521015424,0.0001214048351986092,2.948768178867055e-07
0.019269746176707365,0.0001313715830453246,3.5807092244768893e-07
0.01797676235717736,0.0001406832101787958,4.26084620753719e-07
0.016720790797904738,0.0001493575984675663,4.985948229153096e-07
0.015504084138398164,0.00015741381720164204,5.752876768326117e-07
0.014328639887769537,0.00016487199820818397,6.558591306850682e-07
0.013196192084894623,0.00017175320620135002,7.400154317874517e-07
0.012108205318622266,0.00017807930555222923,8.274735597258465e-07
0.011065871041212665,0.00018387282464218797,9.179615922744508e-07
0.010070106088572115,0.00018915681892463416,1.0112190031661563e-06
0.009121553312865412,0.00019395473377499355,1.1069968913410631e-06
0.008220584222732587,0.00019829026815889304,1.2050581418245347e-06
0.0073673035132516464,0.00020218724009288909,1.3051775188874802e-06
0.00656155535917715,0.00020566945481099628,1.4071416926134516e-06
0.0058029313407730295,0.00020876057648598381,1.5107492004376966e-06
0.00509077986481837,0.00021148400428738166,1.615810345631038e-06
0.004424216931982994,0.00021386275348658199,1.722147035074529e-06
0.0038021380938367965,0.00021591934224303693,1.8295925590069336e-06
0.0032232314489438695,0.0002176756846287321,1.937991315724876e-06
0.002685991546921451,0.0002191529903776984,2.0471984844764836e-06
0.0021887340860923346,0.00022037167178595187,2.157079650017396e-06
0.001729611290707944,0.00022135125813015194,2.267510382496422e-06
0.001306627839048239,0.00022211031791259097,2.378375776507108e-06
0.0009176571965845992,0.00022266638917149917,2.4895699532781305e-06
0.0005604582010144751,0.00022303591802089895,2.60099553007623e-06
0.00023269175487296165,0.0002232342055098708,2.712563060958922e-06
-6.806249631357598e-05,0.00022327536282451066,2.8241904530425177e-06
-0.0003442895977323227,0.0002231722748009992,2.935802362448895e-06
-0.0005985229126467788,0.00022293657167340444,3.047329574067496e-06
-0.0008333280204879574,0.00022257860894012076,3.1587083692208775e-06
-0.0010512869616897235,0.00022210745519457635,3.2698798852545516e-06
-0.0012549828996919737,0.00022153088772923092,3.3807894709855034e-06
-0.0014469852578566852,0.00022085539568984376,3.491386041840272e-06
-0.0016298353713921799,0.00022008619053253154,3.601621438395866e-06
-0.0018060326750265682,0.00021922722352092684,3.7114497919092306e-06
-0.001978021430104601,0.00021828120999464406,3.820826900288123e-06
-0.002148177983079119,0.00021724966014134814,3.929709617822121e-06
-0.002318798542789963,0.00021613291600988086,4.038055261859929e-06
-0.0024920874700388117,0.00021493019450667366,4.1458210394890675e-06
-0.002670146095698678,0.0002136396361152393,4.252963497144546e-06
-0.002854962120553706,0.0002122583590611762,4.35943799593865e-06
-0.0030483996848345656,0.00021078251860982911,4.465198215356401e-06
-0.0032521902129746625,0.00020920737113537682,4.5701956877927026e-06
-0.003467924139231074,0.00020752734254732538,4.674379366213378e-06
-0.003697043611146065,0.0002057361006097311,4.7776952270026425e-06
-0.003940836254312276,0.0002038266306433665,4.880085909815917e-06
-0.004200430062664461,0.0002017913140641223,4.981490395992789e-06
-0.00447678945518762,0.0001996220091846593,5.081843726804984e-06
-0.00477071251687082,0.0001973101336916447,5.181076762524061e-06
-0.0050828294218077975,0.00019484674820697504,5.279115982998715e-06
-0.005413602021018388,0.0001922226403462685,5.375883330137026e-06
-0.00576332456765785,0.00018942840869909944,5.471296092398368e-06
-0.006132125545424246,0.00018645454617082893,5.565266831115851e-06
-0.006519970556841841,0.00018329152214526242,5.657703348194873e-06
-0.006926666215296424,0.00017992986295222786,5.748508694469246e-06
-0.00735186497329079,0.00017636023015508105,5.837581217746073e-06
-0.007795070813225764,0.0001725734962084519,5.924814649336956e-06
-0.00825564572690262,0.0001685608170734198,6.0100982276574245e-06
-0.00873281691808263,0.00016431370141217348,6.093316857278823e-06
-0.009225684678901981,0.00015982407601292732,6.1743513016350985e-06
-0.009733230905920305,0.00015508434711672175,6.253078407417511e-06
-0.010254328220812436,0.00015008745733503857,6.3293713585304506e-06
-0.010787749642478833,0.00014482693786921575,6.403099957331514e-06
-0.011332178734280447,0.00013929695577502593,6.474130930742574e-06
-0.011886220135636694,0.00013349235605754665,6.542328258700717e-06
-0.012448410383975645,0.00012740869842764357,6.607553522322015e-06
-0.013017228936702804,0.00012104228859747396,6.669666269078294e-06
-0.01359110931088062,0.0001143902040355781,6.728524392236557e-06
-0.014168450270558778,0.00010745031414021826,6.783984521780506e-06
-0.014747627005880877,0.00010022129482110834,6.835902424020837e-06
-0.015327002258024408,9.270263750513201e-05,6.884133407102397e-06
-0.015904937347636722,8.489465260371673e-05,6.92853272962961e-06
-0.016479803066842106,7.679846750009703e-05,6.968956009655563e-06
-0.01704999040022986,6.841601913332904e-05,7.00525963131392e-06
-0.01761392104325157,5.975004127245868e-05,7.037301146415367e-06
-0.018170057679183248,5.080404659184998e-05,7.0649396683814446e-06
-0.018716913958408157,4.1582303682452126e-05,7.08803625595002e-06
-0.019253064105206975,3.2089809166548345e-05,7.10645428416227e-06
-0.019777152063981913,2.233225512425112e-05,7.12005980023497e-06
-0.02028790008881262,1.2315992086052488e-05,7.1287218620375455e-06
-0.020784116676989057,2.0479878946020694e-06,7.132312857032709e-06
-0.021264703752980715,-8.464217212890373e-06,7.130708799703137e-06
-0.021728663027200973,-1.9212558907935793e-05,7.12378960567293e-06
-0.02217510147791423,-3.0188500034214592e-05,7.111439340937393e-06
-0.022603235921703442,-4.138308438411901e-05,7.09354644483281e-06
-0.023012396643286758,-5.278699252536656e-05,7.070003925605439e-06
-0.023402030058940988,-6.43905992009235e-05,7.040709527673866e-06
-0.023771700400749596,-7.618403181584614e-05,7.005565869919674e-06
-0.02412109043140578,-8.815722952388498e-05,6.964480554584741e-06
-0.024450001221446836,-0.00010030000243709813,6.917366246594495e-06
-0.024758351033318058,-0.00011260209050078935,6.864140723360023e-06
-0.025046173358474033,-0.00012505322159873738,6.804726895335141e-06
-0.02531361415124577,-0.00013764316847616733,6.7390527978164154e-06
-0.025560928301483845,-0.00015036180408934974,6.6670515546750364e-06
-0.025788475389197575,-0.0001631991550120201,6.588661314899694e-06
-0.025996714771717735,-0.0001761454525522489,6.503825163008626e-06
-0.02618620007126624,-0.0001891911812629949,6.412491004554815e-06
-0.026357573154022814,-0.00020232712456931716,6.314611428096737e-06
-0.02651155771013624,-0.0002155444072853569,6.210143545133069e-06
-0.026648952550208237,-0.00022883453485044304,6.099048809599119e-06
-0.026770624729385493,-0.00024218942917034149,5.981292818593923e-06
-0.026877502602714397,-0.00025560146100336644,5.856845096050496e-06
-0.02697056890697033,-0.0002690634788807876,5.725678861079458e-06
-0.027050853950977078,-0.0002825688345952745,5.587770782710442e-06
-0.027119428976312088,-0.00029611140532709675,5.44310072272985e-06
-0.027177399727288894,-0.000309685612502997,5.291651468272326e-06
-0.02722590024514355,-0.00032328643749610515,5.1334084557725505e-06
-0.027266086874495134,-0.0003369094342760148,4.96835948782952e-06
-0.02729913244155587,-0.00035055073910502754,4.79649444448426e-06
-0.02732622053943716,-0.0003642070773502758,4.617804990370434e-06
-0.027348539842242177,-0.0003778757674456956,4.432284279171441e-06
-0.027367278368981018,-0.0003915547219985014,4.239926656810392e-06
-0.027383617629837567,-0.0004052424459982061,4.040727364811215e-06
-0.027398726607965215,-0.00041893803205765676,3.83468224529725e-06
-0.027413755556979152,-0.0004326411525988928,3.6217874491331124e-06
-0.027429829622791987,-0.0004463520488938356,3.4020391487599303e-06
-0.02744804232156703,-0.00046007151687992536,3.17543325731649e-06
-0.027469448919137104,-0.0004738008896901014,2.941965155673983e-06
-0.02749505976241644,-0.00048754201686048977,2.701629429036335e-06
-0.027525833613014944,-0.0005012972402043477,2.4544196147701257e-06
-0.027562671030480428,-0.0005150693663652215,2.2003279631277332e-06
-0.027606407853394903,-0.0005288616360861904,1.9393452125148803e-06
-0.027657808836806644,-0.0005426776902587408,1.6714603809286474e-06
-0.02771756152153277,-0.0005565215328483256,1.3966605751518808e-06
-0.027786270425186516,-0.0005703974908350054,1.114930819231048e-06
-0.02786445165116992,-0.0005843101713540945,8.262539036837729e-07
-0.027952528010974545,-0.0005982644162696307,5.306102567778416e-07
-0.028050824746448235,-0.0006122652544589864,2.279778390956873e-07
-0.02815956592294614,-0.000626317852126335,-8.166793755064304e-08
-0.0282788715481142,-0.0006404274614941001,-3.983542659557519e-07
-0.028408755462681942,-0.0006545993682467992,-7.221109733909768e-07
-0.028549124050094916,-0.0006688388381249934,-1.052970524983925e-06
-0.028699775814607233,-0.0006831510630911689,-1.3909680002879657e-06
-0.028860401877153007,-0.0006975411075141089,-1.7361410429392852e-06
-0.02903058743516673,-0.0007120138548421888,-2.08852978352836e-06
-0.02920981422421336,-0.0007265739552570338,-2.4481767360531657e-06
-0.0293974639963459,-0.0007412257748121737,-2.8151266685704675e-06
-0.029592822989041548,-0.0007559733465585205,-3.189426448913141e-06
-0.02979508731392291,-0.0007708203241342617,-3.5711248665863367e-06
-0.030003369166437605,-0.0007857699382543519,-3.96027243218349e-06
-0.030216703749251138,-0.0008008249564832741,-4.3569211558678966e-06
-0.030434056800199283,-0.0008159876466206367,-4.7611243066438745e-06
-0.030654332610701072,-0.0008312597439733617,-5.172936154292374e-06
-0.03087638241586688,-0.0008466424227300038,-5.592411695968216e-06
-0.031099013038584783,-0.0008621362715936166,-6.019606369549121e-06
-0.03132099567670543,-0.0008777412737724392,-6.454575755890635e-06
-0.03154107473135422,-0.0008934567913744541,-6.897375272177359e-06
-0.03175797658284995,-0.0009092815542030052,-7.348059858571723e-06
-0.03197041822967406,-0.0009252136529061362,-7.80668366034901e-06
-0.032177115718701445,-0.0009412505363932301,-8.27329970767385e-06
-0.032376792312465326,-0.0009573890134010218,-8.747959595122414e-06
-0.03256818635861332,-0.0009736252580687915,-9.230713162989868e-06
-0.03275005884368598,-0.0009899548193693663,-9.721608182349407e-06
-0.032921200624849475,-0.0010063726342365003,-1.0220690045750875e-05
-0.03308043933951997,-0.0010228730442275926,-1.0728001465366898e-05
-0.03322664599798022,-0.0010394498155619676,-1.1243582180314288e-05
-0.03335874127164104,-0.0010560961623793728,-1.1767468674799624e-05
-0.03347570149648473,-0.0010728047730714043,-1.2299693908662318e-05
-0.03357656440726109,-0.0010895678395473408,-1.2840287061817004e-05
-0.0336604345952198,-0.001106377089297961,-1.338927329402833e-05
-0.03372648864572095,-0.0011232238201081962,-1.394667352137987e-05
-0.03377397988057079,-0.001140098937239769,-1.451250421071686e-05
-0.03380224261832913,-0.001156992992864494,-1.5086777193242926e-05
-0.033810695873540506,-0.0011738962274874616,-1.5669499498330916e-05
-0.03379884643243975,-0.0011907986130639567,-1.6260673208468772e-05
-0.033766291263690865,-0.0012076898974879894,-1.6860295336106758e-05
-0.03371271925046997,-0.0012245596501165297,-1.746835772300789e-05
-0.03363791226304896,-0.0012413973079949095,-1.8084846962535748e-05
-0.033541745618571484,-0.0012581922224653146,-1.8709744345150803e-05
-0.03342418798642877,-0.0012749337058665646,-1.934302582723377e-05
-0.033285300794868876,-0.001291611078061889,-1.9984662023215884e-05
-0.03312523718795604,-0.0013082137125575953,-2.0634618220870756e-05
-0.032944240578704584,-0.0013247310819992605,-2.129285441950997e-05
-0.03274264283912329,-0.0013411528028537175,-2.1959325390723214e-05
-0.03252086215327658,-0.0013574686791018174,-2.2633980761212097e-05
-0.032279400539715467,-0.0013736687447750654,-2.3316765117181317e-05
-0.03201884103699685,-0.0013897433051692435,-2.4007618129667395e-05
-0.031739844546472246,-0.0014056829765651108,-2.4706474700100985e-05
-0.0314431463343643,-0.00142147872428532,-2.5413265125313592e-05
-0.031129552200226847,-0.0014371218989189677,-2.6127915281114665e-05
-0.03079993431635918,-0.0014526042705481142,-2.6850346823481435e-05
-0.030455226737494227,-0.0014679180608115775,-2.7580477406321358e-05
-0.030096420582378575,-0.0014830559726415457,-2.831822091468464e-05
-0.02972455890418319,-0.0014980112175131861,-2.9063487712223322e-05
-0.029340731288634733,-0.0015127775400613907,-2.9816184901616967e-05
-0.028946068233996147,-0.0015273492399420483,-3.0576216596617825e-05
-0.02854173536733862,-0.001541721190842382,-3.1343484204313934e-05
-0.028128927540414916,-0.0015558888565693205,-3.211788671616686e-05
-0.027708862836856578,-0.0015698483041636385,-3.28993210063501e-05
-0.027282776517967094,-0.0015835962140023443,-3.368768213589159e-05
-0.02685191493575143,-0.001597129886865774,-3.4482863661108626e-05
-0.026417529443554428,-0.0016104472479606005,-3.528475794481522e-05
-0.02598087033459989,-0.0016235468479051391,-3.609325646878165e-05
-0.0255431808381377,-0.0016364278606983236,-3.690825014593252e-05
-0.02510569120339189,-0.001649090078708706,-3.7729629630784275e-05
-0.024669612905397452,-0.0016615339047359034,-3.855728562664543e-05
-0.024236133014180438,-0.0016737603412157979,-3.939110918813335e-05
-0.023806408773623194,-0.0016857709766627488,-4.0230992017602984e-05
-0.023381562433348973,-0.0016975679694644918,-4.1076826754134796e-05
-0.0229626763702921,-0.0017091540291654021,-4.192850725379227e-05
-0.022550788533201346,-0.0017205323953912756,-4.278592885993144e-05
-0.022146888239716903,-0.001731706814584505,-4.3648988662425385e-05
-0.021751912340198815,-0.001742681514729484,-4.451758574475388e-05
-0.021366741734512574,-0.0017534611782481617,-4.5391621417998296e-05
-0.02099219820029297,-0.001764050913231863,-4.6270999440868305e-05
-0.020629041475370383,-0.0017744562231507789,-4.7155626224963966e-05
-0.020277966532781976,-0.001784682975152817,-4.804541102453986e-05
-0.019939600988764353,-0.0017947373670332036,-4.894026611008637e-05
-0.019614502590005384,-0.001804625892927896,-4.9840106925076646e-05
-0.019303156739734175,-0.0018143553077603308,-5.0744852225248705e-05
-0.019005974047067976,-0.0018239325904570313,-5.165442419980305e-05
-0.01872328791712104,-0.0018333649059480786,-5.256874857390432e-05
-0.018455352230710483,-0.0018426595659850364,-5.34877546918876e-05
-0.018202339185006664,-0.0018518239888389656,-5.44113755805936e-05
-0.01796433737870078,-0.0018608656579798925,-5.5339547992298315e-05
-0.017741350227828544,-0.001869792079881525,-5.627221242676367e-05
-0.017533294791533514,-0.0018786107411363653,-5.7209313132018145e-05
-0.017340001071248605,-0.001887329065102061,-5.815079808357775e-05
-0.017161211828263266,-0.0018959543683269389,-5.9096618941935e-05
-0.016996582952255757,-0.0019044938170220686,-6.004673098827225e-05
-0.016845684408105216,-0.001912954383862159,-6.100109303849331e-05
-0.01670800178208222,-0.0019213428054097059,-6.195966733581128e-05
-0.016582938439435847,-0.0019296655404650853,-6.292241942227998e-05
-0.01646981830187341,-0.0019379287296504126,-6.388931798980885e-05
-0.0163678892589463,-0.0019461381565406175,-6.486033471135661e-05
-0.016276327231471134,-0.0019542992106632217,-6.583544405315758e-05
-0.016194240895319362,-0.0019624168526949193,-6.681462306899711e-05
-0.016120677048599964,-0.001970495582180899,-6.779785117771607e-05
-0.01605462657408822,-0.001978539408086571,-6.878510992528293e-05
-0.015995030924324714,-0.0019865518224611743,-6.977638273291986e-05
-0.015940789044547026,-0.001994535777453392,-7.077165463289851e-05
-0.01589076464415549,-0.0020024936658755675,-7.177091199373075e-05
-0.015843793726320058,-0.0020104273054681863,-7.277414223656669e-05
-0.015798692291580207,-0.002018337926972661,-7.37813335446769e-05
-0.015754264149186167,-0.0020262261660828527,-7.479247456794077e-05
-0.015709308790815245,-0.002034092059317853,-7.580755412429094e-05
-0.015662629287969722,-0.0020419350438375494,-7.682656090007979e-05
-0.015613040159582134,-0.0020497539611994374,-7.784948315133904e-05
-0.015559375132078673,-0.002057547065022353,-7.887630840789449e-05
-0.015500494697516838,-0.0020653120324797517,-7.990702318227e-05
-0.015435293371676961,-0.0020730459794970502,-8.094161268526421e-05
-0.015362706557772485,-0.0020807454794794125,-8.198006055000832e-05
-0.015281716928632543,-0.002088406585351014,-8.302234856621594e-05
-0.015191360250071752,-0.00209602485464569,-8.406845642621511e-05
-0.01509073057848617,-0.0021035953773528293,-8.511836148421473e-05
-0.014978984772221145,-0.0021111128061905063,-8.617203853010057e-05
-0.014855346259031475,-0.0021185713889483194,-8.722945957888527e-05
-0.014719108005879679,-0.0021259650025145472,-8.829059367675099e-05
-0.014569634646733519,-0.0021332871881777006,-8.935540672442405e-05
-0.014406363740364726,-0.002140531187774475,-9.04238613184121e-05
-0.014228806152072882,-0.0021476899802475844,-9.149591661041762e-05
-0.014036545576210938,-0.0021547563181796552,-9.257152818502442e-05
-0.01382923723740531,-0.0021617227638830593,-9.36506479555401e-05
-0.013606605830606749,-0.0021685817246500623,-9.473322407767338e-05
-0.013368442785705932,-0.0021753254868041405,-9.581920088053693e-05
-0.013114602965203951,-0.0021819462482418677,-9.690851881429844e-05
-0.012845000915421623,-0.002188436149212024,-9.800111441366191e-05
-0.012559606792725367,-0.002194787301139061,-9.909692027624968e-05
-0.012258442083057285,-0.0022009918133580066,-0.00010019586505487395
-0.011941575231729775,-0.0022070418176867034,-0.00010129787346263512
-0.01160911730361851,-0.0022129294908205402,-0.00010240286628976193
-0.011261217802572426,-0.002218647074597088,-0.00010351076043111634
-0.010898060792050983,-0.002224186894245744,-0.00010462146892332705
-0.010519861468348858,-0.0022295413748108436,-0.00010573490099059119
-0.010126863331165643,-0.0022347030560107223,-0.00010685096209829659
-0.009719336068797468,-0.002239664605860713,-0.00010796955401376445
-0.009297574234748624,-0.0022444188334365994,-0.00010909057487358878
-0.008861896751528263,-0.0022489587011831685,-0.00011021391925724373
-0.008412647243473868,-0.0022532773371819192,-0.000111339478266835
-0.007950195170151372,-0.0022573680477853257,-0.00011246713961307682
-0.007474937697048121,-0.0022612243310021255,-0.00011359678770777368
-0.006987302199258748,-0.0022648398909762024,-0.00011472830376326827
-0.006487749256726016,-0.0022682086538401984,-0.00011586156589947238
-0.005976775978274743,-0.002271324785148949,-0.00011699644925921966
-0.005454919489800264,-0.0022741827090159675,-0.00011813282613276089
-0.004922760433449145,-0.0022767771289967796,-0.00011927056609226408
-0.004380926342130353,-0.0022791030506906745,-0.00012040953613718594
-0.003830094773518279,-0.0022811558059695866,-0.000121549600851351
-0.003270996107360196,-0.002282931078689806,-0.00012269062257251584
-0.002704415925783297,-0.002284424931698092,-0.0001238324615751128
-0.002131196906681421,-0.0022856338349062084,-0.00012497497626676388
-0.001552240167756126,-0.002286554694174818,-0.00012611802339903414
-0.0009685060075431398,-0.002287184880718643,-0.0001272614582927575
-0.0003810140009422627,-0.002287522260720764,-0.00012840513507811734
0.00020915758145814334,-0.002287565224825635,-0.00012954890694950394
0.0008008730506712359,-0.0022873127171676028,-0.00013069262643500225
0.0013929412867199672,-0.0022867642635832548,-0.00013183614568018997
0.001984118448476932,-0.0022859199986494556,-0.00013297931674574815
