frame_number,force
0,653.695370000045
1,653.8099711964601
2,653.9256875154241
3,654.0430211613947
4,654.1613588512863
5,654.2786893333184
6,654.3916263688617
7,654.4957607276443
8,654.5862790381601
9,654.6587085516024
10,654.7096078601433
11,654.7370426396732
12,654.740752097739
13,654.7219954438197
14,654.6831409997038
15,654.6271099037216
16,654.5568072802016
17,654.474665392229
18,654.3823891785972
19,654.2809424256488
20,654.1707519683115
21,654.0520524716703
22,653.925261589208
23,653.7912691668388
24,653.6515462766225
25,653.5080363986832
26,653.3628677698829
27,653.2179831843792
28,653.074796694974
29,652.9339653568013
30,652.7953269320625
31,652.6580108502459
32,652.5206889655966
33,652.3819073822445
34,652.2404360290734
35,652.0955836965238
36,651.9474442867456
37,651.797056201368
38,651.6464660132103
39,651.498691871234
40,651.3575834299348
41,651.2275733676009
42,651.113319579481
43,651.0192578755311
44,650.9491119036098
45,650.9054168189936
46,650.8891055525547
47,650.8992013435098
48,650.9326608322393
49,650.9844012982013
50,651.0475186030569
51,651.1136772967818
52,651.173646971125
53,651.2179615565001
54,651.2376711346005
55,651.225131824911
56,651.1747502946968
57,651.0835847588756
58,650.9517163558863
59,650.7823406352877
60,650.5815740068615
61,650.3580084859293
62,650.122071116293
63,649.8852555227165
64,649.6593003108751
65,649.4553902483477
66,649.2834449953602
67,649.1515423812114
68,649.0655074634275
69,649.028681820143
70,649.0418654613771
71,649.103402665372
72,649.2093725670961
73,649.3538498179893
74,649.529215921853
75,649.726515912887
76,649.9358612968315
77,650.1468828137471
78,650.3492320537651
79,650.5331089713053
80,650.6897647056603
81,650.8119241288044
82,650.8940972521539
83,650.9327823253013
84,650.9265806934696
85,650.8762320878868
86,650.784551017883
87,650.6562321330172
88,650.4975168680845
89,650.3157602428962
90,650.1189654292447
91,649.9153435118923
92,649.7129240562185
93,649.5192155175007
94,649.3409009164534
95,649.1835521577609
96,649.0513601397505
97,648.9469057072289
98,648.8710206625534
99,648.8227882059587
100,648.7997035240528
101,648.7979705134269
102,648.8128703373707
103,648.839121631291
104,648.8711727289174
105,648.9034152480463
106,648.9303583231562
107,648.9468269321451
108,648.9482319481415
109,648.9309058426583
110,648.892435975828
111,648.8319019446428
112,648.7499502545008
113,648.6486905603937
114,648.5314366016659
115,648.4023306661226
116,648.2658962397278
117,648.1265730378598
118,647.988298725653
119,647.8542028936664
120,647.7264671336229
121,647.6063751734492
122,647.4945292563563
123,647.3911622211306
124,647.2964499071777
125,647.2107293146275
126,647.1345511699093
127,647.0685391510137
128,647.0130837840516
129,646.9679517215861
130,646.9319226290766
131,646.9025606191908
132,646.8761873066619
133,646.8480731668677
134,646.8128259389509
135,646.7649326532544
136,646.6993961547352
137,646.6123922877389
138,646.5018658938367
139,646.3679875330293
140,646.213398733439
141,646.0431736267172
142,645.8644381244948
143,645.6856411996109
144,645.515559014296
145,645.3621912968556
146,645.2317444648885
147,645.1278769787732
148,645.0513207123552
149,644.9999105479509
150,644.9689776472921
151,644.9520096199665
152,644.9414610233938
153,644.9296040372254
154,644.9093283832178
155,644.8748186580441
156,644.8220493345933
157,644.7490493871763
158,644.65591625183
159,644.5446086958444
160,644.4186011192139
161,644.2825052219349
162,644.1417403659838
163,644.0022717556321
164,643.8703688987343
165,643.7523056253574
166,643.6539486968675
167,643.58024788642
168,643.5347038804082
169,643.5189170338597
170,643.5323061743259
171,643.5720551506204
172,643.6333156216178
173,643.7096640845622
174,643.7937708148002
175,643.8781966956652
176,643.9562049028431
177,644.0224639671168
178,644.0735321435958
179,644.1080552727914
180,644.1266714059917
181,644.1316727782172
182,644.1265157891518
183,644.1152912008504
184,644.1022639147172
185,644.0915568282037
186,644.0869952329375
187,644.0920702589266
188,644.1099450497161
189,644.1434302297184
190,644.19488929966
191,644.2660693087355
192,644.3578665430642
193,644.4700469191562
194,644.6009675024039
195,644.7473766254465
196,644.9043765515142
197,645.0656043665431
198,645.2236366485877
199,645.37057545476
200,645.4987478849907
201,645.6014498666271
202,645.6736691505107
203,645.7127166492681
204,645.7186806059632
205,645.6946124183615
206,645.6463739453974
207,645.5821264993907
208,645.5115090207646
209,645.4446131021133
210,645.3908902604876
211,645.3581207669986
212,645.3515567425518
213,645.3733362628802
214,645.4222387037587
215,645.4938122857803
216,645.5808656052168
217,645.6742770248935
218,645.7640281296665
219,645.8403166502817
220,645.8945810331221
221,645.9202954880968
222,645.9134602636432
223,645.8727875233752
224,645.7996400013061
225,645.6977953857638
226,645.5730847635865
227,645.4329239395792
228,645.2857558229409
229,645.1404405816371
230,645.0056367153809
231,644.889205306346
232,644.7976632290793
233,644.7357239670715
234,644.705984798903
235,644.7088202445566
236,644.742511012663
237,644.803585794245
238,644.8873045419468
239,644.9881925794803
240,645.10055456312
241,645.2189332753804
242,645.3384948620117
243,645.4553127821339
244,645.5665169921211
245,645.6702992463487
246,645.7658105121809
247,645.8530180118494
248,645.932584089169
249,646.005796467324
250,646.0745456336331
251,646.1413206293706
252,646.2091744192898
253,646.2815993020457
254,646.362266042941
255,646.4546185766096
256,646.5613639952285
257,646.6839387919481
258,646.8220577753326
259,646.9734581993081
260,647.1339350465616
261,647.2977181315622
262,647.4581681421076
263,647.6086872049341
264,647.7436852448508
265,647.85943625967
266,647.9546869131401
267,648.0309240756866
268,648.0922620328893
269,648.1449680106583
270,648.196691450607
271,648.2554914434053
272,648.3287776169408
273,648.4222984453656
274,648.5393134925343
275,648.6800578016056
276,648.8415594464639
277,649.0178321103036
278,649.2004379474822
279,649.3793807887442
280,649.5442364790445
281,649.685377040605
282,649.7951248672639
283,649.868684949787
284,649.9047321327464
285,649.9055688700323
286,649.8768229245347
287,649.8267264388008
288,649.7650912457322
289,649.7021409984791
290,649.6473624347858
291,649.608508882004
292,649.590853766048
293,649.5967598940541
294,649.625596587174
295,649.6739991113907
296,649.7364277873825
297,649.8059520926707
298,649.875159393874
299,649.9370706113731
300,649.9859443400238
301,650.017874511508
302,650.031127880986
303,650.0262111287398
304,650.0056929127383
305,649.9738277468186
306,649.9360367516657
307,649.8983054585083
308,649.8665652744828
309,649.8461232117096
310,649.8411878150362
311,649.8545176439977
312,649.8872088188658
313,649.9386458418809
314,650.0066467895626
315,650.0878109587309
316,650.1780229493797
317,650.2730182584932
318,650.3689067711988
319,650.4625815586663
320,650.5519814913873
321,650.6361997542368
322,650.7154347785206
323,650.7907854267781
324,650.8639153022176
325,650.9366467888428
326,651.0105699687491
327,651.0867443184495
328,651.1655376431474
329,651.2466130430255
330,651.3290558302464
331,651.411620077525
332,651.4930588886901
333,651.5724880481151
334,651.6497270166248
335,651.725560287952
336,651.8018591044677
337,651.8815071842839
338,651.9681035462359
339,652.0654739720488
340,652.1770851158839
341,652.305487117014
342,652.4518974650418
343,652.6159947245604
344,652.7959359414194
345,652.9885571924334
346,653.1896781670773
347,653.3944319169531
348,653.5975788423882
349,653.7938039128676
350,653.9780081037242
351,654.1455934740063
352,654.2927268128822
353,654.4165598392715
354,654.5153800065756
355,654.5886590987612
356,654.6369632397594
357,654.6617004264224
358,654.6647168678589
359,654.64780812015
360,654.6122661912062
361,654.5586039737341
362,654.4865590434704
363,654.3953945644121
364,654.2844241957971
365,654.1536171700012
366,654.0041021467486
367,653.8384024442508
368,653.6603146884337
369,653.4744674780342
370,653.2857077265046
371,653.0984994681623
372,652.9164705217205
373,652.7421539455568
374,652.5769078834929
375,652.4209861867364
376,652.2737498296107
377,652.1340153312259
378,652.0005140703643
379,651.8723989966331
380,651.7497067603246
381,651.6336764124279
382,651.5268359992639
383,651.4327928743959
384,651.355716058616
385,651.2995848005013
386,651.2673645966847
387,651.2603081516329
388,651.2775389795653
389,651.315984946755
390,651.3706369106346
391,651.4350433057714
392,651.5019192751856
393,651.5637485982834
394,651.6132886401791
395,651.6439435713846
396,651.6500267827613
397,651.6269635915626
398,651.571479198467
399,651.4817889710404
400,651.3577817613443
401,651.201169377026
402,651.0155584856718
403,650.8063858186638
404,650.5806607823037
405,650.3464933944967
406,650.1124408287864
407,649.8867613543619
408,649.6766978493257
409,649.4879084089606
410,649.3241189505338
411,649.1870123221144
412,649.0763200507981
413,648.9900657311463
414,648.9249168633315
415,648.8766111205779
416,648.8404199755535
417,648.8116053598002
418,648.7858245368978
419,648.7594438356346
420,648.7297313567308
421,648.6949151872919
422,648.6541117168131
423,648.6071372962876
424,648.5542206465359
425,648.4956487004342
426,648.4314033454887
427,648.3608618187711
428,648.2826257857989
429,648.1945148953641
430,648.0937224785711
431,647.9771008287088
432,647.8415318311132
433,647.6843436026651
434,647.5037429027459
435,647.2992329312868
436,647.0719725137922
437,646.8250127512871
438,646.5633355678235
439,646.2936319362293
440,646.0238016074064
441,645.7622159537964
442,645.5168392486172
443,645.2943400303701
444,645.0993361756271
445,644.9338951375091
446,644.7973582185017
447,644.6865000449033
448,644.5959919941059
449,644.5191052730172
450,644.4485539159998
451,644.3773503237327
452,644.2995481349119
453,644.2107846823063
454,644.108590657946
455,643.9924815821539
456,643.8638650280982
457,643.7257901835742
458,643.5825535749481
459,643.4391805574975
460,643.3008298956423
461,643.1721949107118
462,643.056974437852
463,642.9574670032621
464,642.874331370327
465,642.8065638523592
466,642.751738278654
467,642.7065070755323
468,642.6672829913215
469,642.6309612326932
470,642.5955379934968
471,642.5605207231904
472,642.5270718240276
473,642.4978639654
474,642.4766585655522
475,642.4676604334691
476,642.4747537752412
477,642.5007716158534
478,642.5469596829417
479,642.6127475031157
480,642.6958515757833
481,642.7926483823129
482,642.8987009371067
483,643.009313127531
484,643.1200152147107
485,643.226931239104
486,643.3270167365764
487,643.4181678637028
488,643.499202558514
489,643.5697202184308
490,643.6298605937583
491,643.679999163223
492,643.7204360980494
493,643.7511542683384
494,643.7717191223206
495,643.7813557052459
496,643.7791792974326
497,643.7645103446066
498,643.7371956931156
499,643.6978788508803
500,643.6481826861635
501,643.5907711224224
502,643.5292553307938
503,643.4679296547763
504,643.4113671848278
505,643.3639517764965
506,643.329444074318
507,643.31066128294
508,643.309304230141
509,643.3259168066018
510,643.3599359542148
511,643.4097902280708
512,643.4730205534202
513,643.5464159580779
514,643.6261742500558
515,643.7081093180595
516,643.7879275095235
517,643.861581546225
518,643.9256831186758
519,643.9779225871825
520,644.0174204836103
521,644.0449345005812
522,644.0628692989372
523,644.0750743252593
524,644.0864531360545
525,644.1024353574064
526,644.128376280576
527,644.1689577752953
528,644.2276762619872
529,644.30651040496
530,644.4058408460081
531,644.5246355576645
532,644.6608379353352
533,644.811844838065
534,644.9749683135117
535,645.1478219318985
536,645.3286147940414
537,645.516347321855
538,645.7108978234145
539,645.9129915658236
540,646.1240556906458
541,646.3459728034031
542,646.5807537785627
543,646.8301637200021
544,647.0953512185755
545,647.3765388864882
546,647.6728286596262
547,647.9821606869709
548,648.3014392809251
549,648.6268089553643
550,648.9540433978349
551,649.2790046088875
552,649.5981240122518
553,649.9088435113356
554,650.2099441766443
555,650.501699061019
556,650.7858146587776
557,651.0651615643898
558,651.3433320828987
559,651.624096191598
560,651.9108431030967
561,652.206085478327
562,652.5110850133672
563,652.8256494251087
564,653.1481366131103
565,653.4756628810605
566,653.8044671023404
567,654.130362423499
568,654.449208452282
569,654.7573361532937
570,655.0518534784362
571,655.3307762619237
572,655.5929803267148
573,655.8380357182874
574,656.0660220817904
575,656.2774168828471
576,656.4731105244181
577,656.6545537303003
578,656.8239894071125
579,656.9846744099736
580,657.1409782460465
581,657.2982697264182
582,657.4625610633923
583,657.6399474470544
584,657.8359333569439
585,658.0547634425492
586,658.2988782265575
587,658.5685967598192
588,658.8620892021958
589,659.1756447947315
590,659.5041771610238
591,659.8418574351657
592,660.1827405486098
593,660.5212576165839
594,660.8524901987024
595,661.1722168489015
596,661.4768084091883
597,661.76310716558
598,662.0284216081714
599,662.2707019045888
600,662.4888685548161
601,662.6831954560378
602,662.8556217434067
603,663.0098772864445
604,663.1513413396202
605,663.286609086883
606,663.4228106628541
607,663.5667893117441
608,663.7242756741371
609,663.8991930556997
610,664.0932101535102
611,664.3056271187231
612,664.5336295346472
613,664.7728787050742
614,665.0183465239196
615,665.2652615001825
616,665.5100093165793
617,665.7508277737942
618,665.9881566585148
619,666.2245526196934
620,666.4641610770796
621,666.7118408386534
622,666.9721266860693
623,667.2482522541462
624,667.5414315108284
625,667.8505312603348
626,668.172180487074
627,668.5012682383018
628,668.8316990326272
629,669.1572350782454
630,669.4722772246688
631,669.7724998238727
632,670.0553114096763
633,670.320134296092
634,670.5684874096447
635,670.8038446029598
636,671.0312532100704
637,671.256739197796
638,671.4865691229711
639,671.7264586999041
640,671.9808169672173
641,672.2521122763023
642,672.5404453698156
643,672.8434053835769
644,673.1562572227526
645,673.472459985913
646,673.7844534583401
647,674.0845943779092
648,674.3660960910671
649,674.6238296406979
650,674.8548777640192
651,675.0587845848142
652,675.2374897178261
653,675.394962090825
654,675.536575679687
655,675.6683216366315
656,675.796008509201
657,675.9246099726131
658,676.0578561048058
659,676.1980704391739
660,676.3461923547741
661,676.5019186176618
662,676.6639265689423
663,676.8301656599687
664,676.998202333017
665,677.1655801541651
666,677.3301337518857
667,677.4901921494155
668,677.6446287737876
669,677.7927531276797
670,677.9340855937313
671,678.0681001210893
672,678.1940317894213
673,678.3108076744427
674,678.4170904634409
675,678.511373058056
676,678.592061662769
677,678.6575261158304
678,678.7061414363386
679,678.7363619565604
680,678.7468563623402
681,678.7367042462207
682,678.7056278010738
683,678.6542165426486
684,678.5841038821192
685,678.4980703583676
686,678.4000701178878
687,678.2951885625276
688,678.1895253587865
689,678.0899654204138
690,678.0037855513506
691,677.9380751105026
692,677.8990145281147
693,677.8911182359316
694,677.9165800824002
695,677.9748513747163
696,678.0625400664485
697,678.1736594196249
698,678.3001908727696
699,678.4328669174737
700,678.5620346881018
701,678.678445121674
702,678.7738388543409
703,678.8412700521268
704,678.8752029201097
705,678.8714879983487
706,678.827339296905
707,678.7413943637018
708,678.6138806645262
709,678.4468551574369
710,678.2444358941941
711,678.012917100364
712,677.7606719078526
713,677.4977993373057
714,677.2355312191534
715,676.9854454198065
716,676.7585363604583
717,676.5642052029332
718,676.4092665979153
719,676.2971060787432
720,676.2271350908985
721,676.1946704826381
722,676.1913115413956
723,676.205804437156
724,676.225289961092
725,676.2367526079645
726,676.2284498459327
727,676.1911133167245
728,676.1187733139981
729,676.0091378722498
730,675.8635321047025
731,675.6864630281608
732,675.4849189696168
733,675.2675335694079
734,675.0437338663162
735,674.8229556608044
736,674.6139677752043
737,674.4243187297118
738,674.2599089372055
739,674.124690259645
740,674.0204938382282
741,673.946985999752
742,673.9017521158937
743,673.8805062408153
744,673.8774194934164
745,673.8855568265263
746,673.8974064704163
747,673.9054657053856
748,673.9028108033623
749,673.883555991965
750,673.8431279812478
751,673.778346670909
752,673.6873686213448
753,673.569575823685
754,673.4254719335693
755,673.2566088175076
756,673.0655357767233
757,672.8557472341242
758,672.6315930440741
759,672.3981071218559
760,672.1607163293049
761,671.9248223862628
762,671.6952953820388
763,671.4759541311604
764,671.2691218680067
765,671.0753399816582
766,670.8933033738168
767,670.7200450615437
768,670.5513480128112
769,670.3823195680274
770,670.2080452523745
771,670.0242376663532
772,669.8277978399747
773,669.6172128422729
774,669.3927350605376
775,669.156321052116
776,668.9113370705034
777,668.6620635520655
778,668.413061904869
779,668.1685015531526
780,667.9315634947835
781,667.7040192053161
782,667.4860328994868
783,667.2761775559186
784,667.0716206613323
785,666.8684344400876
786,666.6620030851406
787,666.4475124596876
788,666.2205029275735
789,665.9774474082288
790,665.7162952376535
791,665.4369061953847
792,665.141295247333
793,664.8336239654595
794,664.5199060916251
795,664.2074286289452
796,663.9039243392907
797,663.6165826701447
798,663.3510521514122
799,663.1106275461217
800,662.8957882124728
801,662.7041667239733
802,662.5309279917119
803,662.3694711971942
804,662.2123339155531
805,662.052165607451
806,661.882639541375
807,661.6991829592507
808,661.4994187297665
809,661.2832388213122
810,661.0524910608376
811,660.8103515526867
812,660.5605393920042
813,660.306565884965
814,660.0511798697167
815,659.7960942409292
816,659.5419972410617
817,659.2887922010093
818,659.0359731333017
819,658.7830271564923
820,658.5297615133919
821,658.276486340649
822,658.0240379519007
823,657.7736809697632
824,657.5269535394211
825,657.2855065193526
826,657.0509561453093
827,656.8247514248193
828,656.6080584371615
829,656.4016683768548
830,656.205936138938
831,656.020754789175
832,655.8455684016775
833,655.6794166680713
834,655.5209926517043
835,655.3686923200687
836,655.2206452090991
837,655.0747297563786
838,654.9285863227773
839,654.779647495378
840,654.6252090961246
841,654.4625599023061
842,654.2891715620801
843,654.1029326714626
844,653.9024051103231
845,653.6870855796928
846,653.4576546550264
847,653.2161788795628
848,652.966211287125
849,652.7127364705071
850,652.4619354826702
851,652.220785846828
852,651.996540124623
853,651.7961363304888
854,651.6255904162539
855,651.4894122298704
856,651.3900840546202
857,651.3276550047627
858,651.2995246450012
859,651.3004912575262
860,651.3231099128935
861,651.3583470969203
862,651.3964527279936
863,651.4279236769097
864,651.4444187043543
865,651.4394986517954
866,651.4091024640695
867,651.3517274038918
868,651.2683456046263
869,651.1621277554694
870,651.0380373203571
871,650.9023204374204
872,650.7618901920459
873,650.6236200162671
874,650.4936090985616
875,650.3765241379982
876,650.2751286029691
877,650.1900850980023
878,650.1200713712744
879,650.0621900570029
880,650.012586852301
881,649.9671500202576
882,649.9221641405534
883,649.8748181625211
884,649.8235012213505
885,649.7678586775849
886,649.7086258014549
887,649.6472923232643
888,649.5856659796503
889,649.5254023559013
890,649.467563860135
891,649.4122709000161
892,649.3585101460292
893,649.3041512532595
894,649.2461818533682
895,649.1811152936381
896,649.105489888823
897,649.0163801179409
898,648.911863594202
899,648.7914040822849
900,648.6561056639514
901,648.5087730417833
902,648.3537063704554
903,648.1962022617234
904,648.0418250557069
905,647.8955961693005
906,647.7612667811266
907,647.6407965585328
908,647.5341056190782
909,647.439121450151
910,647.3520981508725
911,647.2681417408259
912,647.1818509286142
913,647.0879858393041
914,646.9820928214888
915,646.8610227261271
916,646.7232799114938
917,646.5691448944825
