frame_number,force
0,606.1862200000272
1,606.2356721784402
2,606.2848857740594
3,606.3331793205234
4,606.379057676492
5,606.4199716342993
6,606.4522490345418
7,606.4712200783893
8,606.4715350936895
9,606.447644682796
10,606.3943862996963
11,606.3076009884255
12,606.1846948329658
13,606.0250703012431
14,605.8303803917483
15,605.6045859606825
16,605.3538102581646
17,605.0859877671584
18,604.8103109740547
19,604.5365000069452
20,604.273954857101
21,604.0308876032927
22,603.8135618465785
23,603.6257730643747
24,603.4686659006915
25,603.3409008416137
26,603.2390895134489
27,603.1583662901988
28,603.0929779902413
29,603.0368302324885
30,602.9839808260165
31,602.929088723532
32,602.867816877339
33,602.7971652588714
34,602.7156903874451
35,602.6235658265477
36,602.5224618451705
37,602.4152574037868
38,602.30562143431
39,602.1975103574823
40,602.0946417426452
41,602.000025492687
42,601.9156446130823
43,601.8423569517872
44,601.780037026614
45,601.7279110915382
46,601.6849840365552
47,601.6504327616151
48,601.6238542542711
49,601.6053078104924
50,601.5951677558577
51,601.593870876222
52,601.6016645778554
53,601.6184340111813
54,601.6436385194163
55,601.6763516562897
56,601.7153856210113
57,601.7594778527177
58,601.8075072244935
59,601.8586896748353
60,601.9126928585073
61,601.9696188983017
62,602.0298389233276
63,602.0937168656751
64,602.1613082855406
65,602.2321322459555
66,602.3050808899341
67,602.3784731925734
68,602.4502106463225
69,602.5179750659538
70,602.579419671301
71,602.6323277838901
72,602.674734393104
73,602.7050179200719
74,602.7219748968429
75,602.724895194038
76,602.7136569249141
77,602.6888455235537
78,602.6518703015537
79,602.6050249486508
80,602.5514350869133
81,602.494854843722
82,602.4393053441611
83,602.3885872007608
84,602.3457415670539
85,602.312563206056
86,602.2892677755447
87,602.2743854366817
88,602.2649073675962
89,602.2566629600067
90,602.2448646546703
91,602.2247358684828
92,602.1921367148392
93,602.1441100416105
94,602.0792759553652
95,601.9980108720738
96,601.9023693939522
97,601.7957498953261
98,601.6823612865103
99,601.5665947962844
100,601.4524084707963
101,601.34279280611
102,601.2393479245936
103,601.1420012615465
104,601.0489113653559
105,600.9565989103879
106,600.8603108475799
107,600.7545765247053
108,600.6338758985298
109,600.4933228854242
110,600.3292783291419
111,600.1398394446511
112,599.9251836444687
113,599.6877598444448
114,599.4323259596414
115,599.165833379738
116,598.8971511518337
117,598.6366087252486
118,598.395340535485
119,598.1844508357403
120,598.0140665938038
121,597.8923885282331
122,597.8248749158167
123,597.8136878179827
124,597.8574863281877
125,597.951578590064
126,598.0883751438753
127,598.2580446530168
128,598.4492639654225
129,598.6499727825066
130,598.848082699267
131,599.0321360616351
132,599.1919340006916
133,599.3191370256067
134,599.4078012208364
135,599.4547833885475
136,599.4599488954731
137,599.4261395028182
138,599.358889144252
139,599.2659050824832
140,599.156360338256
141,599.0400730268186
142,598.9266751428842
143,598.8248822710458
144,598.7419516902876
145,598.6833657326982
146,598.6527271983542
147,598.6518227926208
148,598.6807934584691
149,598.7383387035657
150,598.8218838243748
151,598.9276667499676
152,599.0507529695333
153,599.1850453755884
154,599.3233946906433
155,599.4579107070086
156,599.5805207103567
157,599.6837416119452
158,599.7615553754813
159,599.8102227859656
160,599.8288546629362
161,599.8195959200328
162,599.787360656257
163,599.7391562847586
164,599.6831197566154
165,599.6274410897462
166,599.5793583261349
167,599.5443682158664
168,599.5257218233638
169,599.5242019129524
170,599.5381453179579
171,599.5636784685346
172,599.595146678984
173,599.6257121640785
174,599.6480743019257
175,599.6552468072409
176,599.6413192503908
177,599.6021278525961
178,599.5357577797403
179,599.4428055656282
180,599.3263598257146
181,599.1917091842279
182,599.0458342049136
183,598.8967634928581
184,598.7528755306806
185,598.6222197433262
186,598.5119170840686
187,598.4276813157827
188,598.3734793195046
189,598.3513294905855
190,598.3612287324688
191,598.4011995499777
192,598.4674505423786
193,598.5546393735588
194,598.6562207232347
195,598.764864620837
196,598.8729441619363
197,598.9730956719303
198,599.058830539252
199,599.1251364795236
200,599.1689764503294
201,599.18959770572
202,599.1886008320457
203,599.1697665813956
204,599.1386727926226
205,599.1021510163168
206,599.0676418465908
207,599.0425107060271
208,599.0333786012947
209,599.0455121595736
210,599.0823167306526
211,599.144984384135
212,599.2323476779167
213,599.3409686701135
214,599.4654581330055
215,599.5989845665036
216,599.7339047573138
217,599.8624372336081
218,599.977312370233
219,600.0723550007913
220,600.1429645528738
221,600.1864492599422
222,600.2021648646163
223,600.1914235519791
224,600.1571747242841
225,600.1035062712781
226,600.0350647945031
227,599.9565242450088
228,599.8722147408702
229,599.7859564730782
230,599.7010679404583
231,599.6204759537104
232,599.5468545235849
233,599.482738351541
234,599.4305727244853
235,599.3926719039292
236,599.3710706296596
237,599.3672768740345
238,599.3819694873335
239,599.4147177727596
240,599.4638089322941
241,599.526242922808
242,599.5979046106745
243,599.6738772280984
244,599.7488422796932
245,599.8175244755012
246,599.875171111621
247,599.9180751042572
248,599.9441330344166
249,599.9533721607103
250,599.9483162244704
251,599.9340378322836
252,599.917794832129
253,599.9082556184921
254,599.9144326045217
255,599.9445118684375
256,600.004774131276
257,600.0987659491916
258,600.2268216534048
259,600.385971338899
260,600.5702162345234
261,600.7711211642143
262,600.9786564406623
263,601.1822040495231
264,601.371621331129
265,601.5382377668601
266,601.6756620037919
267,601.7803064932102
268,601.8515879331383
269,601.8918137889535
270,601.9058037329984
271,601.9003147075895
272,601.8833441111192
273,601.863385547111
274,601.8487036811914
275,601.8466728177374
276,601.8631981154443
277,601.9022293188816
278,601.9653888756782
279,602.0517530696893
280,602.1578274534787
281,602.2777411140027
282,602.4036591385676
283,602.5263932524757
284,602.6361777069632
285,602.7235606857472
286,602.7803355435766
287,602.800406922221
288,602.7804669974271
289,602.7203637347511
290,602.6230879221532
291,602.4943811205289
292,602.342047223548
293,602.1751096628536
294,602.0029730708569
295,601.8347104362412
296,601.6785209948799
297,601.5413364152544
298,601.4285296052153
299,601.3436962881698
300,601.2885049388007
301,601.2626276409102
302,601.263770635562
303,601.2878171345841
304,601.3290775648784
305,601.3806271464111
306,601.4347127118237
307,601.4832279765519
308,601.518268282904
309,601.532762239002
310,601.5211408715486
311,601.4799681108611
312,601.4084418269333
313,601.3086865974699
314,601.1857879397869
315,601.0475488312477
316,600.9039707882238
317,600.7664737273819
318,600.6468892707461
319,600.5563082237039
320,600.5039259366393
321,600.4960719778427
322,600.5355953409286
323,600.6217048441638
324,600.7502760115525
325,600.9145592438099
326,601.1061586599585
327,601.316099883405
328,601.535791675383
329,601.7577294030449
330,601.9758749181968
331,602.1857345998183
332,602.384208078266
333,602.5692943428163
334,602.7397393004263
335,602.8946958733992
336,603.033441849272
337,603.1551736447299
338,603.2588846299807
339,603.3433443739203
340,603.4072004831721
341,603.4492089829977
342,603.4685581397082
343,603.4652022332668
344,603.4401031201843
345,603.3953132147424
346,603.333903609789
347,603.2597933203981
348,603.1775353206996
349,603.0920753487061
350,603.0084630190796
351,602.9314922489904
352,602.8652788388252
353,602.8128284047098
354,602.7756857112599
355,602.7537630911027
356,602.7454056046568
357,602.7476797617168
358,602.7568124769527
359,602.7686819198066
360,602.7792635460481
361,602.7849537625129
362,602.7827344254678
363,602.7701951410818
364,602.7454714581372
365,602.7071696138611
366,602.6543345707281
367,602.586484280567
368,602.5036890596357
369,602.4066409197807
370,602.2966555128752
371,602.1755799419536
372,602.0456196769162
373,601.9091233256022
374,601.7683678776308
375,601.625373119489
376,601.4817522564749
377,601.3385921926405
378,601.1963606947899
379,601.0548517088811
380,600.9131905469873
381,600.7699199259305
382,600.623177714802
383,600.4709656770885
384,600.3115001479646
385,600.1436250734073
386,599.9672494331834
387,599.7837485040407
388,599.5962474253868
389,599.4096931532483
390,599.2306370411895
391,599.0667131077795
392,598.9258871669236
393,598.815615602454
394,598.7420543586077
395,598.7094164522691
396,598.7195317353057
397,598.7716362182673
398,598.8624042549759
399,598.9862224522714
400,599.1356810478302
401,599.3022288889258
402,599.4769148111113
403,599.6511326530725
404,599.8172973655999
405,599.9693934420251
406,600.1033481186113
407,600.2171987571577
408,600.3110546613939
409,600.3868890755366
410,600.4482178394983
411,600.4997176754083
412,600.5468176477218
413,600.5952797232273
414,600.6507794847289
415,600.7185010889557
416,600.8027611579865
417,600.9066732492511
418,601.0318649354085
419,601.1782664088579
420,601.3439971621249
421,601.5253808701843
422,601.7171190497655
423,601.9126470731484
424,602.1046699020574
425,602.2858282182614
426,602.449400158183
427,602.5899310062796
428,602.7037114943527
429,602.7890636187021
430,602.846405170234
431,602.8780604350765
432,602.8878092293887
433,602.8802364254751
434,602.8600226174648
435,602.8313498025989
436,602.7975613398492
437,602.7611332698199
438,602.7239221758796
439,602.6875822007162
440,602.6540064446318
441,602.6256517595065
442,602.6056441691364
443,602.5976166490432
444,602.6052865292172
445,602.631833065093
446,602.6791835822203
447,602.7473449493824
448,602.8339154637596
449,602.9338912480542
450,603.0398554003671
451,603.1425949288965
452,603.2321068212597
453,603.2988438604172
454,603.3349647617446
455,603.3353368071363
456,603.2981016202812
457,603.2247320131237
458,603.1196335205565
459,602.9894305497293
460,602.8421041860416
461,602.6861309637709
462,602.5297320935192
463,602.3802920162127
464,602.2439523898847
465,602.1253497968845
466,602.027458146536
467,601.9515183124169
468,601.8970668474232
469,601.8620866174984
470,601.8432863380839
471,601.8364875061135
472,601.837075074883
473,601.8404624241396
474,601.8425312668744
475,601.8400213067395
476,601.8308481891207
477,601.814321019878
478,601.7912268950773
479,601.7637628267651
480,601.7353222862921
481,601.7101645532084
482,601.6929946901812
483,601.6884724045751
484,601.7006763783899
485,601.7325816465378
486,601.7856362717479
487,601.8595234481052
488,601.9521604598748
489,602.0599322246053
490,602.1781108507236
491,602.3013905226333
492,602.4244612841387
493,602.5425385486761
494,602.6517593169705
495,602.7493733771823
496,602.8337118243811
497,602.9039887437691
498,602.9600450754116
499,603.0021445802928
500,603.0308819192053
501,603.0471954775204
502,603.0524311385185
503,603.0483955562062
504,603.0373608222874
505,603.0220130645811
506,603.005352680223
507,602.9905514601232
508,602.9807706302752
509,602.9789563082928
510,602.987645067959
511,603.0088184386555
512,603.0438407480126
513,603.0935014289835
514,603.1581545868868
515,603.2379049604888
516,603.3327502720572
517,603.4425863567461
518,603.5670287576811
519,603.7050834360011
520,603.8547684897269
521,604.0128157032042
522,604.1745591235779
523,604.3340664385723
524,604.484515851536
525,604.6187805466736
526,604.7301495185591
527,604.8130830236422
528,604.8638823704116
529,604.881158787124
530,604.8660160674447
531,604.8219110101779
532,604.754216158268
533,604.6695659734047
534,604.575103083482
535,604.4777498022074
536,604.3836154297745
537,604.2976129107064
538,604.2233017796116
539,604.162916338702
540,604.1175077027183
541,604.0871360452753
542,604.0710716592599
543,604.0679712192963
544,604.0759899115787
545,604.0927986429389
546,604.1155182189872
547,604.1406429439328
548,604.1640602138283
549,604.1812485994365
550,604.1876664000268
551,604.1792707330226
552,604.1530733034799
553,604.1076454903775
554,604.0435047662024
555,603.9633249268458
556,603.8719177239348
557,603.7759493989505
558,603.6833906978666
559,603.6027456442355
560,603.5421443009469
561,603.5084032102064
562,603.5061568159596
563,603.5371608012565
564,603.5998710459329
565,603.6893919319737
566,603.7978444009657
567,603.9151353552778
568,604.0300440845081
569,604.1314962413942
570,604.2098709849138
571,604.258176158143
572,604.2729268727996
573,604.254581395048
574,604.2074412899374
575,604.1390157353121
576,604.0589569211182
577,603.9777528653011
578,603.905392536637
579,603.8502001343944
580,603.8179855498369
581,603.8115908870976
582,603.8308422648851
583,603.8728519163567
584,603.9325666060215
585,604.0034399091802
586,604.0781275225703
587,604.1491489294677
588,604.2094916759901
589,604.2531402033213
590,604.2754998420553
591,604.2736759478464
592,604.246571947021
593,604.1947939487935
594,604.1203836893811
595,604.0264278125221
596,603.9166038364617
597,603.7947267584395
598,603.6643542073808
599,603.5284882833702
600,603.3893867946
601,603.2484801252635
602,603.1063870909534
603,602.9630284366726
604,602.8178418851259
605,602.670099142996
606,602.519308669085
607,602.3656607502633
608,602.2104371336543
609,602.0562754303437
610,601.9071748018521
611,601.7681784780774
612,601.6447592404048
613,601.5420250271302
614,601.4639173159578
615,601.4125779575285
616,601.3880098302869
617,601.3880728709214
618,601.4087769725245
619,601.4447887254298
620,601.4900654334446
621,601.5385449901938
622,601.5848240858963
623,601.6247446740183
624,601.6558057044697
625,601.6773416854675
626,601.6904452917944
627,601.6976395782342
628,601.7023356168925
629,601.7081545133356
630,601.71823260641
631,601.7346385599728
632,601.7580014180318
633,601.7873919396964
634,601.8204414180905
635,601.8536468325455
636,601.8828034579032
637,601.903510713587
638,601.9117008489629
639,601.9041446876275
640,601.8788935584134
641,601.835609789162
642,601.7757219264614
643,601.7023436564814
644,601.6199360848898
645,601.53375178307
646,601.4491431474582
647,601.370838351212
648,601.3022956395209
649,601.245243819588
650,601.1994951935983
651,601.1630739534312
652,601.1326471054451
653,601.1041872028131
654,601.0737451929474
655,601.0381813057957
656,600.9957104336387
657,600.946171780368
658,600.8910097914203
659,600.8330168385902
660,600.7759125339236
661,600.7238274548062
662,600.6807498388981
663,600.6499985603178
664,600.6337900628237
665,600.6329506991501
666,600.6467938601215
667,600.6731593260643
668,600.7086163141593
669,600.7488434694235
670,600.7891825939537
671,600.8253105011568
672,600.8539179400033
673,600.8732603413594
674,600.8834588988852
675,600.8864751087942
676,600.8857520214789
677,600.885597874216
678,600.8904520131192
679,600.9041880210026
680,600.9295714164989
681,600.9679279782337
682,601.019027533773
683,601.0811591123029
684,601.1513601068172
685,601.2257598587234
686,601.3000050803563
687,601.3697380139763
688,601.4310866044983
689,601.4811100707625
690,601.5181417370417
691,601.5419842129496
692,601.5539276533852
693,601.556577605821
694,601.5535052930912
695,601.5487701319547
696,601.5463907697653
697,601.5498415878767
698,601.5616372697978
699,601.5830534303419
700,601.614014324461
701,601.6531534764579
702,601.6980227660908
703,601.7453973159018
704,601.7916087513271
705,601.8328508094269
706,601.8654338925596
707,601.8859932950555
708,601.8916634033629
709,601.8802278453758
710,601.8502565707361
711,601.8012389300552
712,601.7337074609715
713,601.6493284715757
714,601.550927219024
715,601.4424196819423
716,601.3286337642162
717,601.2150177137853
718,601.1072522156877
719,601.0108026820253
720,600.9304668723483
721,600.8699846970994
722,600.8317702197726
723,600.8167935068133
724,600.8245944439713
725,600.8533772643722
726,600.9001328671633
727,600.9607688085022
728,601.0302750392824
729,601.1029803006354
730,601.1729328190492
731,601.2343828449749
732,601.2822951024891
733,601.3128032657354
734,601.3235305529312
735,601.3137221922751
736,601.2841600495262
737,601.2368635596292
738,601.1746269154288
739,601.1004882375397
740,601.0172518674977
741,600.9271724223576
742,600.8318563301452
743,600.732365438179
744,600.6294530550399
745,600.5238445430188
746,600.416483633505
747,600.3086850133735
748,600.2021590614859
749,600.0989069071485
750,600.0010138421852
751,599.9103852670969
752,599.8284743879352
753,599.7560536533848
754,599.6930813388547
755,599.6387000644479
756,599.5913694229072
757,599.5490927587045
758,599.5096745234695
759,599.4709530384223
760,599.4309794489549
761,599.3881339888808
762,599.3411810079743
763,599.2892765877267
764,599.2319593672552
765,599.1691590037099
766,599.1012321664987
767,599.0289946911475
768,598.9536953682183
769,598.8768995139869
770,598.8003083234685
771,598.7255867771751
772,598.654268096721
773,598.5877487627899
774,598.5273269828936
775,598.4742154465224
776,598.4294891599402
777,598.3939829010902
778,598.3681885296776
779,598.3521996880431
780,598.3457234973974
781,598.3481535553418
782,598.3586907786922
783,598.3765033767409
784,598.4009220359094
785,598.4316616725456
786,598.4690446630268
787,598.5141787156934
788,598.5690243147808
789,598.6362820753442
790,598.7190577274604
791,598.8203325762779
792,598.9423526727315
793,599.0860954913054
794,599.2509477919803
795,599.4346521144998
796,599.633496330755
797,599.8426645572877
798,600.0566527647375
799,600.2696776894459
800,600.4760524811667
801,600.6705327544714
802,600.8486374353986
803,601.0069372136549
804,601.1432953547538
805,601.2570358095976
806,601.34900063794
807,601.4214576502287
808,601.4778393613612
809,601.5223300129365
810,601.5593553596261
811,601.5930514633017
812,601.6267801308152
813,601.6627312889226
814,601.7016352072334
815,601.742612544759
816,601.7832013365733
817,601.8195925810321
818,601.8470723835828
819,601.8606223940585
820,601.8555909380112
821,601.8283283875148
822,601.776691655902
823,601.7003630103397
824,601.600972614976
825,601.4820329070936
826,601.3486901318806
827,601.2073060314975
828,601.0649139119773
829,600.9286229378257
830,600.8050436382199
831,600.6997824098848
832,600.617033691031
833,600.5592998687079
834,600.527277588652
835,600.5199441396024
836,600.534849116751
837,600.5685722579624
838,600.6172670880144
839,600.6771888269632
840,600.745114063948
841,600.818598486375
842,600.8960684475007
843,600.9767761186386
844,601.0606593464419
845,601.1481475586996
846,601.2399511688258
847,601.3368633059848
848,601.4395884992344
849,601.5485910836843
850,601.6639343079635
851,601.7850846605096
852,601.910698162935
853,602.0384606081933
854,602.1650775483479
855,602.2864789499021
856,602.3982329420062
857,602.496092364696
858,602.57655944603
859,602.6373553718751
860,602.6777131345807
861,602.6984603528401
862,602.7019076978123
863,602.6915900749055
864,602.6719130155423
865,602.6477465680028
866,602.6240015667938
867,602.6052205275447
868,602.5952087737397
869,602.5967274670659
870,602.611282455761
871,602.6390584191239
872,602.6790356702554
873,602.7292816520066
874,602.7873610736557
875,602.8507859650949
876,602.9174268030904
877,602.9858134767749
878,603.0552712509666
879,603.1258694267643
880,603.198200550708
881,603.2730389428474
882,603.3509446923431
883,603.4318890845642
884,603.5149801618711
885,603.5983568695025
886,603.6792937139838
887,603.7545151881359
888,603.8206637935582
889,603.8748115840764
890,603.9148791502969
891,603.9398521014302
892,603.9497631110953
893,603.9455001505703
894,603.9285541221024
895,603.900802538823
896,603.8643593114256
897,603.8214559837031
898,603.7743004171825
899,603.724886486264
900,603.6747715990839
901,603.624868713579
902,603.5753052007437
903,603.5253888649686
904,603.4737061000263
905,603.4183590077351
906,603.3573137367657
907,603.2887872924703
908,603.2115742283553
909,603.1252256044901
910,603.0300354838317
911,602.9268504383787
912,602.8167703696646
913,602.7008293944295
914,602.5797341964488
915,602.4537156444795
916,602.3225278579533
917,602.1856025273846
