frame_number,force
0,657.9271900000233
1,657.3284684701508
2,656.7500573580179
3,656.2103040263825
4,655.7240003437189
5,655.3014125108025
6,654.948000811562
7,654.6647248702036
8,654.4487310861962
9,654.2942092758864
10,654.1932569040948
11,654.1366615508831
12,654.1145775406036
13,654.1171128120204
14,654.134848562123
15,654.1592982336564
16,654.1832977174505
17,654.2013148747988
18,654.2096622542734
19,654.206582866948
20,654.1921653257647
21,654.1680522895405
22,654.1369459298204
23,654.1019743843542
24,654.0660351337328
25,654.0312490731179
26,653.9986345098611
27,653.9680529807096
28,653.9384090180956
29,653.9080280796398
30,653.8751097800001
31,653.8381577319009
32,653.7963051579312
33,653.7494755298844
34,653.6983490686974
35,653.6441596033575
36,653.588408709535
37,653.532618942594
38,653.4782232959824
39,653.4266094104642
40,653.3792528135417
41,653.3378347887543
42,653.3042591947578
43,653.2805330356656
44,653.2685278675704
45,653.2696788356225
46,653.2846979746697
47,653.3133714037049
48,653.3544828370085
49,653.4058777759666
50,653.4646592676205
51,653.5274761316914
52,653.5908324175407
53,653.6513403520435
54,653.7058751069312
55,653.7516485993547
56,653.7862605961043
57,653.8077840997795
58,653.8149089771205
59,653.8071306388928
60,653.7849450426949
61,653.7499993899821
62,653.7051507720398
63,653.6544009544034
64,653.6026954766414
65,653.555592028439
66,653.5188165271777
67,653.4977383901387
68,653.4968133480248
69,653.5190636853612
70,653.5656820652786
71,653.6358400222244
72,653.7267471422467
73,653.8339493704381
74,653.9517975852356
75,654.0739865394837
76,654.1940732212303
77,654.3059251687282
78,654.4040945295856
79,654.4841318932214
80,654.5428428762925
81,654.5784757077132
82,654.5908275768251
83,654.5812645411675
84,654.552650969093
85,654.5091776509206
86,654.4560747614822
87,654.3992117231651
88,654.3446167928665
89,654.2979721388376
90,654.264144107111
91,654.2468035787269
92,654.2481847467819
93,654.2690147249976
94,654.3086147062013
95,654.3651324676177
96,654.4358331941181
97,654.5173701672508
98,654.6059872471068
99,654.6976583332314
100,654.7882137992334
101,654.8735104568794
102,654.9496670264407
103,655.0133403834741
104,655.0619928511927
105,655.0941060353987
106,655.1093162857653
107,655.1084627507221
108,655.0935459101065
109,655.0675989145656
110,655.034482006307
111,654.9986181686648
112,654.9646887468157
113,654.9373002661746
114,654.9206263978814
115,654.9180359639516
116,654.9317440674556
117,654.9625489130891
118,655.0097110095483
119,655.0709902165951
120,655.1428091486728
121,655.2204904504233
122,655.2985310401106
123,655.3709167465562
124,655.4315129248695
125,655.4745548250268
126,655.4952082624569
127,655.4901234884301
128,655.4578980150839
129,655.3993818745935
130,655.3177721250365
131,655.2184562372394
132,655.1085991918851
133,654.9965241459795
134,654.890978584077
135,654.8003826557557
136,654.7321315699697
137,654.6919938572877
138,654.6836317955245
139,654.7082739707805
140,654.7645800927027
141,654.848736016778
142,654.9547940433107
143,655.075235550825
144,655.2016928236205
145,655.325739415345
146,655.439655387779
147,655.5370969462456
148,655.6136353631448
149,655.6671510643714
150,655.6980583624996
151,655.7093134954843
152,655.7061629653562
153,655.6956321291348
154,655.6858063802663
155,655.6849857556754
156,655.7007935272168
157,655.7393133672091
158,655.8043405949545
159,655.8968527173497
160,656.0148003726288
161,656.1532715893712
162,656.3050045565848
163,656.4611567592273
164,656.6122146254544
165,656.748942671938
166,656.863288616253
167,656.9491592289904
168,657.002975047848
169,657.0239256291151
170,657.0138886579207
171,656.9770354346084
172,656.919203281367
173,656.8471513766269
174,656.767814562572
175,656.6876329769306
176,656.6119917151619
177,656.5447863030515
178,656.4881432225322
179,656.4423433058791
180,656.4059836881335
181,656.3763635705652
182,656.3500209366747
183,656.3233185551087
184,656.2929852650205
185,656.2565420778546
186,656.2125665596012
187,656.160776547727
188,656.101945788393
189,656.0376882229042
190,655.9701621158197
191,655.9017578988036
192,655.8348370273887
193,655.7715616948864
194,655.7137997559006
195,655.6630479774631
196,655.6203283779153
197,655.586064424356
198,655.5599850178592
199,655.5411021077041
200,655.5277806240732
201,655.517903465505
202,655.5091336466099
203,655.4992629519083
204,655.4865955972456
205,655.4702669825077
206,655.4503810054116
207,655.4278887448905
208,655.4042172316535
209,655.3807508121064
210,655.3583224262417
211,655.3368643201802
212,655.3153117852488
213,655.2917813118156
214,655.2639783456731
215,655.2297398612919
216,655.1875898595227
217,655.1371863116718
218,655.0795663064255
219,655.0171445245373
220,654.9534723703537
221,654.8928059324638
222,654.839556493985
223,654.7977125519823
224,654.7703312171365
225,654.7591933439626
226,654.7646880411182
227,654.7859377367944
228,654.821111431437
229,654.8678195366905
230,654.9234565777044
231,654.9853794351586
232,655.0508814538034
233,655.1170124394316
234,655.1803572678343
235,655.2369034332163
236,655.2821034241722
237,655.3111772096055
238,655.3196213498492
239,655.303829682101
240,655.2617065704123
241,655.1931536681817
242,655.1003194234199
243,654.9875264813674
244,654.8608483828177
245,654.7273824443726
246,654.5943345459596
247,654.4680761502523
248,654.3533474006024
249,654.2527580984803
250,654.1666823666467
251,654.0935653139759
252,654.0305780784947
253,653.9744888845859
254,653.9225798935636
255,653.8734400713643
256,653.8274922496315
257,653.7871545800251
258,653.7565939904918
259,653.7411045318522
260,653.7462187676208
261,653.7767068632736
262,653.8356244192753
263,653.9235514819337
264,654.0381412933939
265,654.1740672252098
266,654.3234035238988
267,654.4763950656984
268,654.6224853924098
269,654.7514216697915
270,654.8542676175265
271,654.9242136060473
272,654.9571290688225
273,654.9518299193967
274,654.9100483649711
275,654.8361185783784
276,654.7364300131421
277,654.6187336979128
278,654.4914008023181
279,654.3627230144335
280,654.2403169566104
281,654.1306634311277
282,654.0387905093557
283,653.9681034001773
284,653.920367684671
285,653.8958494710025
286,653.8935916961083
287,653.9117658262702
288,653.9480101723938
289,653.9996746771408
290,654.0639345858913
291,654.1377879807837
292,654.2179957688196
293,654.3010484845573
294,654.3832391166042
295,654.4608765296375
296,654.5306101489734
297,654.589791395821
298,654.6367886670829
299,654.6711899987135
300,654.6938554661597
301,654.7068096589583
302,654.7129868213069
303,654.7158609447671
304,654.7190175249153
305,654.7257440704012
306,654.7387112168128
307,654.7597787798182
308,654.7899110476245
309,654.8291528317
310,654.8766233548776
311,654.9305283675174
312,654.9882394185482
313,655.0464978883215
314,655.101759249882
315,655.1506329395746
316,655.1903314396546
317,655.2190324064834
318,655.2360796678215
319,655.2419941106542
320,655.2383144582396
321,655.2273206115705
322,655.2117037870148
323,655.1942463819809
324,655.1775649379148
325,655.1639489361173
326,655.1552988237951
327,655.1531397273723
328,655.1586720210447
329,655.1728172719627
330,655.1962227511868
331,655.2291945124908
332,655.2715429967565
333,655.3223584273903
334,655.3797823044116
335,655.4408745630925
336,655.5016593769801
337,655.5573693087183
338,655.6028402949436
339,655.6329770244345
340,655.643212180556
341,655.6299071266027
342,655.5906698462536
343,655.5245820794968
344,655.432325520622
345,655.316190393255
346,655.179951034674
347,655.0286010977114
348,654.8679591902295
349,654.7041897446637
350,654.5433170156258
351,654.3908137384849
352,654.25131335269
353,654.1284479049814
354,654.0247813596294
355,653.9418018539643
356,653.8799487820484
357,653.8386701163054
358,653.8165258694225
359,653.8113644916671
360,653.8205830536169
361,653.8414389360245
362,653.8713433165931
363,653.9080709158042
364,653.9498612815839
365,653.9954238004761
366,654.0438624522536
367,654.0945191953879
368,654.1467336082172
369,654.1995494466062
370,654.2514442103674
371,654.3001788824747
372,654.342847500451
373,654.3761596409109
374,654.3969245059099
375,654.4026354143565
376,654.3920060165844
377,654.3653152909626
378,654.3244779128751
379,654.2728356799786
380,654.2147264285957
381,654.1549154471099
382,654.0979813966084
383,654.047747628968
384,654.0068391881719
385,653.9764214575846
386,653.9561488538412
387,653.9443313833706
388,653.9383047941649
389,653.9349547469502
390,653.9313018653554
391,653.9250228636511
392,653.9147883222367
393,653.9003513852045
394,653.8824007264121
395,653.862250965266
396,653.8414605003826
397,653.8214567655905
398,653.8032412501859
399,653.7872451887719
400,653.7733871213435
401,653.7613266738717
402,653.7508323418963
403,653.7421297043331
404,653.7361048186497
405,653.73430146751
406,653.7387316270325
407,653.7515710640045
408,653.7748189131278
409,653.809982767294
410,653.8578382466756
411,653.9183030812037
412,653.9904428200155
413,654.0725914286616
414,654.1625437181908
415,654.2577661721399
416,654.35557744639
417,654.4532682620049
418,654.5481585208015
419,654.6376173329861
420,654.7190840799234
421,654.7901165682979
422,654.84846774695
423,654.8921776105853
424,654.9196686379711
425,654.9298414671624
426,654.9221731715202
427,654.8968216709732
428,654.8547350641495
429,654.797749297965
430,654.728636311674
431,654.6510577145715
432,654.5693974135227
433,654.488475750739
434,654.4131704128823
435,654.3479875538605
436,654.2966465313989
437,654.2617545883805
438,654.2446370374751
439,654.2453489692796
440,654.2628405033383
441,654.295205756643
442,654.3399386237688
443,654.3941466301739
444,654.4547147659864
445,654.5184406308836
446,654.5821735651449
447,654.6429867353403
448,654.6983928696989
449,654.746581911304
450,654.7866232443379
451,654.8185589147823
452,654.8433345364789
453,654.862563840152
454,654.8781739471987
455,654.8920086941255
456,654.905471603142
457,654.9192755571104
458,654.9333419193799
459,654.9468621482015
460,654.9585020848751
461,654.9667005085248
462,654.969999658556
463,654.9673499631982
464,654.9583495214855
465,654.9433994690579
466,654.9237646506008
467,654.9015253283901
468,654.8794127957427
469,654.8605536656429
470,654.8481810205801
471,654.8453710280747
472,654.8548302811877
473,654.8787224867723
474,654.9185050206504
475,654.9747465458518
476,655.0469149265598
477,655.1331609247148
478,655.2301664421071
479,655.3331530082357
480,655.4361346840714
481,655.5324433144108
482,655.6154724987491
483,655.679514341541
484,655.7205269567237
485,655.7366840785068
486,655.7286209538582
487,655.6993750816077
488,655.6540760777581
489,655.5994416960075
490,655.5431160902657
491,655.4928864299469
492,655.4558455094689
493,655.4376049211251
494,655.4416742448724
495,655.4690968459856
496,655.5183870259533
497,655.5857650704312
498,655.6656428252982
499,655.7512781606575
500,655.8355045408849
501,655.91145456821
502,655.973218296972
503,656.0163928004184
504,656.0384870478489
505,656.0391528611201
506,656.020223624981
507,655.9855527261769
508,655.9406489046756
509,655.8921169029228
510,655.8469411472988
511,655.8116869815435
512,655.7917175193916
513,655.7905331610635
514,655.809347393007
515,655.8470066593894
516,655.9003087507041
517,655.964665978826
518,656.0349491701639
519,656.1063021556711
520,656.1747504707502
521,656.2375090634499
522,656.2929814382644
523,656.3405155223479
524,656.3800321634213
525,656.4116616992113
526,656.435499529746
527,656.451524119288
528,656.4596429213783
529,656.4597901435812
530,656.4520136129111
531,656.4365299191536
532,656.4137560532528
533,656.384325305081
534,656.3490798855518
535,656.3090222724306
536,656.265206559232
537,656.2185600098938
538,656.1696512139886
539,656.1184648944902
540,656.0642771808139
541,656.0057116882215
542,655.9409920626515
543,655.8683317661555
544,655.7863624794277
545,655.6945073344712
546,655.5932327444461
547,655.4841426259541
548,655.3699022162508
549,655.2539929186264
550,655.1403109952903
551,655.0326435456319
552,654.9340890931448
553,654.8465262484362
554,654.7702511825648
555,654.703884078107
556,654.6445860084771
557,654.5885527682328
558,654.5316871351667
559,654.4703114467499
560,654.4017761395335
561,654.3248491663131
562,654.2398264107775
563,654.1483636248034
564,654.0530778816469
565,653.9569992246239
566,653.8629790101843
567,653.7731788715769
568,653.6887585969467
569,653.6098392196199
570,653.5357421687972
571,653.4654218494204
572,653.3979564479201
573,653.3329660876256
574,653.2708791324998
575,653.2130284803001
576,653.161596393727
577,653.1194347788035
578,653.0897864574456
579,653.0759374170957
580,653.0808385528218
581,653.1067348314482
582,653.154823453242
583,653.2249455282393
584,653.3153242836567
585,653.4224014762681
586,653.5408592516512
587,653.6639040268383
588,653.783825403427
589,653.8927648689678
590,653.98357927602
591,654.0506740559172
592,654.0906932272369
593,654.1029688597106
594,654.0896521704977
595,654.0554865946456
596,654.0072479546751
597,653.9529525160674
598,653.9009839096918
599,653.8592852472266
600,653.8347097363859
601,653.8325594324383
602,653.8563018432002
603,653.9074431116645
604,653.9855372392399
605,654.0883101857698
606,654.2118788639416
607,654.3510532923765
608,654.4997184112418
609,654.6512891394372
610,654.7992184841983
611,654.9375223018345
612,655.0612687029405
613,655.166966257546
614,655.25278418106
615,655.3185628676604
616,655.3656201636336
617,655.3964048654809
618,655.4140739756782
619,655.4220722053938
620,655.4237808858962
621,655.4222852192354
622,655.4202818937981
623,655.4201138738091
624,655.4238860724332
625,655.4335968933914
626,655.4512198271394
627,655.478682199147
628,655.5177088832145
629,655.5695260633055
630,655.6344590273584
631,655.7115071621798
632,655.7980188105221
633,655.8895934838534
634,655.9803022247747
635,656.0632490006568
636,656.1314100229525
637,656.178602457919
638,656.2003824397423
639,656.194684275214
640,656.1620820288971
641,656.1056431455119
642,656.03041790643
643,655.9426582736038
644,655.8488898679008
645,655.7549796740028
646,655.6653506756808
647,655.5824800002962
648,655.5067651588204
649,655.436761084133
650,655.369707540613
651,655.3022099605988
652,655.2309203188343
653,655.1530885065397
654,655.0669091435971
655,654.9716559260471
656,654.8676513240222
657,654.7561416235251
658,654.6391321819576
659,654.5192053730626
660,654.3993186925308
661,654.2825719009284
662,654.1719355254119
663,654.0699454103477
664,653.9783932610104
665,653.8980790097057
666,653.8287110732042
667,653.769009947076
668,653.7169924011032
669,653.6703423024487
670,653.6267615266482
671,653.5842390341395
672,653.5412358757022
673,653.4968170471253
674,653.4507519958767
675,653.4035715068171
676,653.3565448660745
677,653.3115479622335
678,653.2708232856347
679,653.2366694671613
680,653.2111251099432
681,653.1957149556998
682,653.1913042786068
683,653.1980746007491
684,653.2156036628318
685,653.2430079060999
686,653.279090172735
687,653.3224394298105
688,653.3714604981294
689,653.4243603985333
690,653.4791562560439
691,653.5337703093301
692,653.5862375086813
693,653.6349973013263
694,653.6792066008769
695,653.7190058330324
696,653.7556804930174
697,653.7916735552483
698,653.8304228173804
699,653.876030699353
700,653.9328169031045
701,654.004837148513
702,654.0954559796903
703,654.2070337465308
704,654.3407388346567
705,654.4964511604544
706,654.672709190361
707,654.866679619571
708,655.0741754044501
709,655.2897770860782
710,655.5071016000529
711,655.7192191551743
712,655.9191693003378
713,656.1004978656395
714,656.2577359634766
715,656.3867637170058
716,656.4850339507799
717,656.5516632915846
718,656.5874179059841
719,656.5946231055291
720,656.5770119187505
721,656.5395030572148
722,656.4878817423862
723,656.4283707123267
724,656.3671199807658
725,656.3096819975771
726,656.2605537343302
727,656.2228637169072
728,656.1982651497938
729,656.187057799211
730,656.1884989451082
731,656.2011995112366
732,656.2234743212088
733,656.2535537451115
734,656.2896534067352
735,656.329978146812
736,656.3727494097328
737,656.4162933077678
738,656.4591595407587
739,656.5002076326808
740,656.538613716919
741,656.5737994909978
742,656.6053239016134
743,656.6327758881505
744,656.655668805153
745,656.6733048647391
746,656.6845928678931
747,656.6878657281216
748,656.6808045071722
749,656.6605704193481
750,656.6241651961701
751,656.5689371493588
752,656.4930889183694
753,656.3960481106682
754,656.2786203466885
755,656.142922871445
756,655.9921594288916
757,655.8303219998542
758,655.6618951516456
759,655.4916078297218
760,655.3242385992604
761,655.164452496997
762,655.0166470846642
763,654.8848035708922
764,654.7723517237409
765,654.6820519529937
766,654.6158799671344
767,654.5748889231879
768,654.5590419379075
769,654.5670476554841
770,654.5962590549889
771,654.6426885670861
772,654.7011622357959
773,654.7656059114087
774,654.829440153851
775,654.8860573189052
776,654.9293526395484
777,654.9542669577489
778,654.9572765246304
779,654.9367564762322
780,654.8931580399203
781,654.8289637414032
782,654.7484112627476
783,654.6570080256106
784,654.5608959222825
785,654.4661604527191
786,654.3781964386656
787,654.3012318270529
788,654.2380752286094
789,654.1901080483481
790,654.1574986667003
791,654.1395747734618
792,654.1352589133356
793,654.1434693032622
794,654.1634165066098
795,654.1947640496944
796,654.2376438120217
797,654.2925277869161
798,654.3599747471598
799,654.4403004369319
800,654.5332550689483
801,654.6378135894308
802,654.7521667758382
803,654.8739329392581
804,655.000515824981
805,655.1294671135967
806,655.2587159055226
807,655.3866042245808
808,655.5117703257004
809,655.6329877492155
810,655.7490639051049
811,655.8588427572522
812,655.9612885124657
813,656.0555899972173
814,656.1412230937801
815,656.2179242640697
816,656.2855544983572
817,656.3438754494922
818,656.392312973668
819,656.4298194098407
820,656.4549304726289
821,656.4660408864855
822,656.461832894269
823,656.4417334212386
824,656.4062716822554
825,656.3572491416513
826,656.2976927805009
827,656.2316149770196
828,656.1636321266627
829,656.0985016057757
830,656.0406417639811
831,655.9937127676889
832,655.960338052123
833,655.9420083058129
834,655.9391400884857
835,655.9512101112892
836,655.9768960735706
837,656.0142115176849
838,656.0606692276656
839,656.1135057183566
840,656.1699603154568
841,656.227564486932
842,656.284379847327
843,656.3391239844814
844,656.3911453103921
845,656.4402578121136
846,656.4865040831542
847,656.5299425595502
848,656.5705382757058
849,656.6081955111492
850,656.6429264696238
851,656.6751051415038
852,656.7057138954651
853,656.7364723025229
854,656.7697600657044
855,656.8083046980294
856,656.8546793342038
857,656.9107197976492
858,656.9769994267959
859,657.0524864012308
860,657.1344595753674
861,657.2186937926283
862,657.2998663185016
863,657.372099130514
864,657.4295405127554
865,657.4668983524872
866,657.4798636053785
867,657.4653998332412
868,657.4219063903194
869,657.349273219541
870,657.2488425418424
871,657.1233008987111
872,656.9765454296582
873,656.8135703080121
874,656.64038260042
875,656.4639010143751
876,656.291751857407
877,656.1318759957002
878,655.9919051160398
879,655.8783470791942
880,655.7957088238431
881,655.7457405294829
882,655.7269830307353
883,655.7347467930198
884,655.7615644820348
885,655.7980603575837
886,655.8340916461264
887,655.8599657976442
888,655.8675370021379
889,655.8510293612487
890,655.8075047178712
891,655.7369654783316
892,655.6421307984297
893,655.5279429367097
894,655.4008716940737
895,655.2681046034855
896,655.1367244284158
897,655.0129673793199
898,654.9016353053279
899,654.8057177609588
900,654.7262624299469
901,654.66250882776
902,654.6122704548628
903,654.5725118904357
904,654.5400236269104
905,654.5120706774193
906,654.4869002770783
907,654.4640332354196
908,654.4443117093945
909,654.4297201587091
910,654.4230357775583
911,654.4273981209484
912,654.445898410837
913,654.481260287182
914,654.5356296794026
915,654.6104505725087
916,654.7063925826402
917,654.8232974982197
