acceleration,velocity,displacement
-0.03309524952612924,0.0,0.0
-0.03348911013192358,-1.6646089914513206e-05,-4.161522478628302e-09
-0.03392533046599819,-3.3499700063993645e-05,-1.6697969973255013e-08
-0.0344058454996756,-5.058249405541209e-05,-3.771851850310645e-08
-0.034932120473915654,-6.791698554880991e-05,-6.734338840416196e-08
-0.03550498679423193,-8.552626236584682e-05,-1.0570420038282614e-07
-0.0361244890422953,-0.00010343363132497862,-1.529441738055325e-07
-0.0367897567167728,-0.00012166219276474564,-2.0921812982796357e-07
-0.03749891123028211,-0.00014023435975150938,-2.746922679570273e-07
-0.038249014145499256,-0.00015917134109545472,-3.4954369316876834e-07
-0.03903605766556939,-0.0001784926090482219,-4.3395968070468753e-07
-0.039854994552538214,-0.0001982153721027488,-5.281366759924302e-07
-0.040699803225339934,-0.00021835407154721832,-6.32279036904922e-07
-0.041563584392594416,-0.0002389199184517019,-7.46597534404652e-07
-0.04243868627212471,-0.0002599204861178817,-8.71307635547048e-07
-0.043316854794605196,-0.0002813593713845642,-1.0066275999226595e-06
-0.0441894038174418,-0.0003032359360375759,-1.1527764267781946e-06
-0.04504740017910004,-0.00032554513703671135,-1.3099716950467665e-06
-0.04588186002503027,-0.00034827745208774395,-1.4784273423278803e-06
-0.04668395451235787,-0.000371418905722091,-1.658351431780339e-06
-0.04744522253278114,-0.0003949511999833758,-1.8499439582067058e-06
-0.04815778499721904,-0.0004188519518658758,-2.0533947461690185e-06
-0.04881455111919739,-0.0004430950358949799,-2.2688814931092326e-06
-0.04940940457636043,-0.00046765102481886937,-2.496568008287695e-06
-0.04993735818737271,-0.0004924877155098027,-2.736602693369863e-06
-0.05039466971481152,-0.0005175707224853487,-2.9891173028686507e-06
-0.05077891693322332,-0.0005428641191473575,-3.2542260132768272e-06
-0.051089034778124306,-0.0005683311070751944,-3.532024819832465e-06
-0.05132531912170743,-0.0005939346955501523,-3.822591270488802e-06
-0.051489400325730704,-0.0006196383754120117,-4.125984538229343e-06
-0.05158418739307956,-0.0006454067723417143,-4.4422458251677745e-06
-0.051613782851319526,-0.000671206264902814,-4.771399084478907e-06
-0.051583370084611446,-0.0006970055531367968,-5.1134520389888094e-06
-0.051499077239154596,-0.0007227761649677383,-5.468397468514943e-06
-0.05136782330480628,-0.0007484928901037286,-5.83621473228281e-06
-0.05119715204189123,-0.0007741341339404029,-6.216871488293843e-06
-0.0509950588077694,-0.0007996821866528181,-6.610325568442148e-06
-0.05076981474827879,-0.0008251234050418301,-7.01652696636581e-06
-0.05052979224720319,-0.0008504483067907007,-7.435419894323943e-06
-0.05028329473516176,-0.0008756515785362919,-7.866944865655691e-06
-0.05003839323589875,-0.000900732000529057,-8.311040760422028e-06
-0.0498027721080753,-0.0009256922918650505,-8.767646833520554e-06
-0.04958358738159395,-0.0009505388817374678,-9.236704626921184e-06
-0.04938734164807656,-0.0009752816139948854,-9.718159750854271e-06
-0.049219778432544915,-0.0009999333940150408,-1.0211963502856752e-05
-0.04908579680918444,-0.001024509787825473,-1.0718074298316881e-05
-0.04898938534998971,-0.0010490285833652667,-1.1236458891114566e-05
-0.048933574176532296,-0.0010735093232468972,-1.1767093367767606e-05
-0.048920404295103484,-0.001097972817864806,-1.2309963903045533e-05
-0.048950913453173185,-0.0011224406473018752,-1.2865067269337203e-05
-0.04902513713571363,-0.001146934659949097,-1.3432411096149946e-05
-0.04914212251305815,-0.00117147647486129,-1.4012013879852543e-05
-0.049299952822829694,-0.0011960869936952618,-1.460390474699168e-05
-0.049495780288365356,-0.0012207859269730604,-1.5208122977158761e-05
-0.0497258672758221,-0.0012455913388641072,-1.5824717293618053e-05
-0.0499856373704225,-0.0012705192150256684,-1.6453744932090497e-05
-0.0502697396468893,-0.0012955830592799964,-1.7095270500666915e-05
-0.05057213030546931,-0.001320793526768086,-1.7749364647178937e-05
-0.05088617591939838,-0.001346158103324303,-1.8416102554702033e-05
-0.05120478137206717,-0.0013716808426471694,-1.90955622911949e-05
-0.0515205428689416,-0.0013973621737074216,-1.978782304528355e-05
-0.05182592288833907,-0.0014231987901467417,-2.049296328624709e-05
-0.052113440947906375,-0.0014491836311058032,-2.1211058891560225e-05
-0.0523758722739367,-0.0014753059594112639,-2.1942181289189492e-05
-0.052606445516853305,-0.0015015515388589614,-2.2686395663757047e-05
-0.0527990303401562,-0.0015279029078232138,-2.344375927542759e-05
-0.05294830646752189,-0.0015543397420251332,-2.4214319937889677e-05
-0.05304990791626391,-0.0015808392956210796,-2.499811469730123e-05
-0.05310053922525046,-0.0016073769074064581,-2.5795168748058115e-05
-0.053098063514792404,-0.0016339265580914688,-2.6605494614432596e-05
-0.05304156422818855,-0.001660461465027214,-2.7429091620212266e-05
-0.05293138297727308,-0.0016869547018285795,-2.8265945661926216e-05
-0.0527691352751002,-0.0017133798313916729,-2.9116029295231277e-05
-0.05255770453558604,-0.0017397115413443445,-2.9979302138415282e-05
-0.052301213003397726,-0.0017659262707290903,-3.085571159143364e-05
-0.05200496693246762,-0.0017920028157130566,-3.174519386304418e-05
-0.051675373049033274,-0.0018179229007084317,-3.264767529214955e-05
-0.051319824038863246,-0.0018436716999804057,-3.356307394232176e-05
-0.05094655161500171,-0.001869238293893872,-3.449130144079033e-05
-0.05056444607932189,-0.001894616043317453,-3.543226502509316e-05
-0.0501828416487378,-0.001919802865249468,-3.638586975223489e-05
-0.04981126796074599,-0.001944801392651839,-3.735202081671022e-05
-0.04945917037385082,-0.001969619002235488,-3.833062591543205e-05
-0.04913560500817859,-0.0019942676960809954,-3.9321597590011165e-05
-0.04884891891824694,-0.002018763827062602,-4.032485547079707e-05
-0.04860643039879455,-0.0020431276643918623,-4.1340328343660685e-05
-0.04841412748289688,-0.0020673828038622853,-4.2367955960724225e-05
-0.048276403233489536,-0.0020915554365413818,-4.3407690520825144e-05
-0.04819584457351094,-0.002115673498493132,-4.4459497754583775e-05
-0.04817308754564306,-0.0021397657315229204,-4.552335756208779e-05
-0.04820674686626486,-0.0021638606901258975,-4.6599264167499994e-05
-0.04829342300669006,-0.0021879857325941363,-4.7687225773180004e-05
-0.04842778690434296,-0.0022121660350718944,-4.878726371509651e-05
-0.048602740280810325,-0.0022364236668681826,-4.989941114058153e-05
-0.04880964720266339,-0.002260776763739051,-5.102371124823334e-05
-0.0490386295060079,-0.002285238832916219,-5.216021514739716e-05
-0.04927891530419413,-0.0023098182191187695,-5.3308979410405904e-05
-0.04951922635311039,-0.0023345177545330957,-5.447006340381887e-05
-0.049748187128306566,-0.00235933460790345,-5.5643526494428006e-05
-0.04995473701861535,-0.0023842603389401806,-5.6829425231138917e-05
-0.05012852762894075,-0.0024092811551020697,-5.8027810604649476e-05
-0.05026028954116267,-0.0024343783593945957,-5.9238725483273646e-05
-0.05034215625270432,-0.0024595289708430625,-6.0462202315833064e-05
-0.05036793634908277,-0.0024847064939935094,-6.169826118204221e-05
-0.05033332716055226,-0.0025098818098709184,-6.294690825800832e-05
-0.05023606392862324,-0.002535024157643212,-6.420813474988685e-05
-0.05007599883993093,-0.0025601021733353507,-6.548191633263148e-05
-0.04985510541886907,-0.002585084949400051,-6.676821311331533e-05
-0.049577406098202846,-0.0026099430772793188,-6.806697011998518e-05
-0.04924882387371596,-0.0026346496347722983,-6.937811829799808e-05
-0.04887696232674365,-0.0026591810813224133,-7.070157597702176e-05
-0.048470821845245905,-0.0026835180273654105,-7.203725075419371e-05
-0.04804046326899525,-0.002707645848643971,-7.338504172319605e-05
-0.047596632410489705,-0.002731555122563842,-7.474484196599801e-05
-0.04715035909185374,-0.002755241870439428,-7.611654121424882e-05
-0.0467125430631143,-0.00277870759597817,-7.750002858085322e-05
-0.04629353799568678,-0.0028019591162428705,-7.889519525890848e-05
-0.04590274456861925,-0.002825008186883947,-8.030193708469019e-05
-0.045548224473401684,-0.002847870929144452,-8.17201568636973e-05
-0.045236348960311236,-0.0028705670725028805,-8.314976636410912e-05
-0.04497149797604215,-0.0028931190342369687,-8.459068789079408e-05
-0.04475582751192611,-0.0029155508656089606,-8.604285536575556e-05
-0.04458912194712479,-0.0029378871029737234,-8.750621485790123e-05
-0.04446874464269275,-0.0029601515696211778,-8.898072452604996e-05
-0.04438969439312063,-0.002982366179380131,-9.046635396330029e-05
-0.04434476838356843,-0.0030045497950743033,-9.19630829569139e-05
-0.04432482530587238,-0.0030267171934966635,-9.347089970405664e-05
-0.04431913663464193,-0.003048878183981792,-9.498979854842626e-05
-0.044315810077458495,-0.003071036920659817,-9.651977732458666e-05
-0.04430226608383677,-0.003093191439700141,-9.806083441467664e-05
-0.04426574535625431,-0.0031153334425601635,-9.961296563524172e-05
-0.044193822682176316,-0.0031374483345697713,-0.00010117616107952421
-0.04407490085484147,-0.0031595155154540257,-0.00010275040204203016
-0.04389865925323202,-0.003181508905481044,-0.00010433565814726394
-0.04365643586289381,-0.0032033976792600755,-0.00010593188479344921
-0.043341528628182156,-0.0032251471703828444,-0.00010753902100585995
-0.04294940997613613,-0.003246719905033924,-0.00010915698777471414
-0.0424778550856679,-0.0032680767212993752,-0.00011078568693129747
-0.04192698897305389,-0.0032891779323140557,-0.00011242500059470082
-0.04129925951199922,-0.003309984494435319,-0.00011407479120138817
-0.040599343436736365,-0.0033304591451725025,-0.00011573490211129013
-0.03983399138422986,-0.003350567478877744,-0.0001174051587673027
-0.03901181781891895,-0.003370278931178531,-0.00011908537036981677
-0.038143042943054074,-0.0033895676463690243,-0.00012077533201420365
-0.037239195432710995,-0.0034084132059629658,-0.00012247482722728666
-0.03631278564732229,-0.003426801201232974,-0.00012418363082908565
-0.03537695845878138,-0.0034447236372594997,-0.00012590151203870878
-0.034445133828977875,-0.0034621791603314397,-0.0001276282377381065
-0.03353064289209855,-0.0034791731045117087,-0.0001293635758043173
-0.03264636801485388,-0.003495717357238447,-0.00013110729841975483
-0.031804396521504935,-0.0035118300483725365,-0.00013285918527115758
-0.03101569883674247,-0.0035275350722120983,-0.00013461902655130374
-0.03028984262223735,-0.003542861457576843,-0.00013638662568375096
-0.029634754597103297,-0.0035578426068816785,-0.0001381618016998656
-0.02905653999413323,-0.0035725154305294876,-0.0001399443912092184
-0.028559365577588217,-0.003586919406922418,-0.00014173424991858138
-0.028145406955437414,-0.0036010956000556743,-0.0001435312536703259
-0.027814856378430924,-0.0036150856658891412,-0.0001453352989868121
-0.027565984551920695,-0.0036289308761217292,-0.0001471463031223148
-0.027395249252371093,-0.003642671184572802,-0.00014896420363748846
-0.027297443933279306,-0.0036563443578692145,-0.00015078895752309896
-0.02726587980432783,-0.003669985188803616,-0.00015262053990976716
-0.027292593883149467,-0.0036836248072254856,-0.00015445894240877445
-0.02736857314423554,-0.0036972900989823317,-0.0001563041711353264
-0.027483982636666193,-0.003711003237927557,-0.00015815624446955388
-0.027628385101369415,-0.003724781329862066,-0.00016001519061150128
-0.027790941893425514,-0.0037386361616107647,-0.00016188104498436948
-0.027960589691181745,-0.0037525740445069167,-0.0001637538475358989
-0.02812619348074738,-0.003766595740299899,-0.00016563363998210062
-0.028276681463602304,-0.0037806964590359864,-0.0001675204630319346
-0.028401169808451313,-0.003794865921854,-0.0001694143536271571
-0.028489084347963434,-0.0038090884853931037,-0.0001713153422289689
-0.028530283816002984,-0.0038233433274340953,-0.00017322345018217568
-0.028515186530031773,-0.003837604695020604,-0.00017513868718778937
-0.02843490016234126,-0.0038518422166936976,-0.00017706104891571794
-0.028281352369363858,-0.003866021279826624,-0.00017899051478984803
-0.028047418730717824,-0.003880103472601644,-0.0001809270459779551
-0.02772704430632276,-0.0038940470883609044,-0.00018287058361819575
-0.027315356266580593,-0.0039078076885041306,-0.00018482104731241202
-0.02680876637286586,-0.003921338719163992,-0.00018677833391432904
-0.026205062167679975,-0.003934592176299129,-0.00018874231663819482
-0.02550348440444384,-0.00394751931294216,-0.00019071284451050515
-0.024704786609479792,-0.003960071380695641,-0.0001926897421839146
-0.023811271812997515,-0.00397220039530126,-0.00019467281012791382
-0.022826801758263553,-0.0039838599136940754,-0.00019666182520516266
-0.021756775024720246,-0.003995005807889821,-0.00019865654163555863
-0.02060807182170037,-0.004005597019601426,-0.00020065669234243144
-0.019388964129322932,-0.004015596278589182,-0.0002026619906669791
-0.018108990437882683,-0.004024970767230983,-0.00020467213242843414
-0.016778795248977456,-0.004033692713652698,-0.00020668679829865505
-0.015409935327935652,-0.004041739896296926,-0.00020870565645114247
-0.014014657224944157,-0.004049096044435146,-0.0002107283654363255
-0.012605652854663085,-0.004055751121955047,-0.00021275457722792304
-0.011195800938635574,-0.004061701485403372,-0.00021478394037976266
-0.009797901631214632,-0.0040669499110458345,-0.00021681610322887496
-0.008424410604128593,-0.00407150548910467,-0.00021885071707891259
-0.00708717867676005,-0.004075383386424892,-0.000220887439297795
-0.005797204040313187,-0.004078604482104161,-0.00022292593626492725
-0.00456440504415682,-0.0040811948843752785,-0.00022496588610654712
-0.0033974213268273628,-0.004083185340968024,-0.00022700698116288296
-0.0023034498510643904,-0.004084610558762497,-0.0002290489301378156
-0.0012881207571382777,-0.004085508451414548,-0.00023109145989035987
-0.00035541645198972364,-0.00408591933571683,-0.00023313431683714273
0.0004923638820575404,-0.004085885098859313,-0.00023517726794578675
0.001254593901405971,-0.004085448359413447,-0.00023722010131035494
0.001932266441725244,-0.004084651644327664,-0.00023926262631129023
0.002527903052997568,-0.004083536601953984,-0.00024130467337286064
0.003045435952821317,-0.004082143267202529,-0.00024334609334014976
0.003490071402678749,-0.004080509390363654,-0.0002453867565045413
0.003868139935605606,-0.0040786698375290835,-0.0002474265513115145
0.004186933714121699,-0.004076656069116651,-0.0002494653827881759
0.004454527545325975,-0.0040744957038017894,-0.00025150317073140556
0.0046795795256163696,-0.004072212177034054,-0.0002535398477016145
0.004871109517650731,-0.004069824504773237,-0.00025557535687206637
0.005038257472074947,-0.004067347163025805,-0.0002576096497890161
0.005190028331566085,-0.004064790091574895,-0.0002596426841026663
0.005335035239829099,-0.004062158825682046,-0.0002616744213319805
0.005481256698026183,-0.004059454752697582,-0.0002637048247265754
0.005635824843710497,-0.004056675482312148,-0.00026573385728532784
0.005804860678171992,-0.004053815310931677,-0.0002677614799836388
0.005993368048016682,-0.00405086575375013,-0.00026978765024980925
0.006205192199104378,-0.00404781611368835,-0.00027181232071666884
0.006443042148946017,-0.004044654055101337,-0.00027383543825886626
0.006708570595666209,-0.004041366151915184,-0.00027585694331062037
0.007002501302642552,-0.004037938383940606,-0.0002778767694445843
0.007324791404854896,-0.004034356560763732,-0.0002798948431807604
0.007674814357947568,-0.004030606659323031,-0.00028191108398578207
0.00805154844748122,-0.004026675068621674,-0.00028392540441776824
0.00845375621645456,-0.00402254874245569,-0.00028593771037053756
0.008880141743533484,-0.0040182152679656925,-0.0002879479013731429
0.009329475025056258,-0.004013662863773545,-0.0002899558709060777
0.009800675608771625,-0.004008880326115088,-0.00029196150670354987
0.010292851123896371,-0.004003856944431922,-0.00029396469102118664
0.010805290078426422,-0.003998582409131341,-0.00029596530085957746
0.011337411388928279,-0.003993046733764502,-0.00029796320814530144
0.011888675207405493,-0.0039872402121154185,-0.0002999582798817714
0.012458461543072,-0.003981153427927799,-0.0003019503782917822
0.013045925988884247,-0.00397477733104481,-0.00030393936098152536
0.013649845353171854,-0.003968103388209296,-0.0003059250811613389
0.014268468766227263,-0.003961123809679446,-0.0003079073879608111
0.01489939043391848,-0.00395383184487941,-0.0003098861268744508
0.015539458138292994,-0.003946222132736357,-0.00031186114036885475
0.016184727734741985,-0.003938291086268098,-0.0003138322686736059
0.016830469802244126,-0.003930037286883851,-0.00031579935076689385
0.017471230930065945,-0.0039214618617007735,-0.00031776222555404
0.018100948623945404,-0.0039125688168122705,-0.00031972073322366826
0.018713115517408133,-0.0039033653007769322,-0.0003216747167530656
0.019300985864124067,-0.003893861775431549,-0.0003236240235221177
0.019857815066010975,-0.003884072075199015,-0.0003255685069847753
0.02037712072322096,-0.003874013341251707,-0.000327508028338888
0.02085295134420391,-0.0038637058232348508,-0.0003294424581300096
0.021280147271945164,-0.0038531725485808133,-0.00033137167772296353
0.02165457835437162,-0.003842438867174234,-0.0003332955805769023
0.021973344208540153,-0.003831531886533506,-0.00033521407326532926
0.022234925016778897,-0.003820479819227176,-0.0003371270761917694
0.02243927370691641,-0.003809311269546252,-0.00033903452396396276
0.022587844342158797,-0.0037980544900339834,-0.0003409363654038578
0.022683556034903116,-0.0037867366399397177,-0.00034283256318635123
0.02273069575622505,-0.0037753830769919356,-0.00034472309311558416
0.022734766579903885,-0.0037640167114079033,-0.0003466079430626841
0.02270229012994521,-0.003752657447230441,-0.0003484871116023437
0.022640573238780177,-0.0037413217313882596,-0.0003503606063969984
0.02255744915856458,-0.0037300222257889235,-0.0003522284423862927
0.022461003537050193,-0.00371876761261502,-0.00035409063984589366
0.022359295353877377,-0.003707562537892288,-0.00035594722238352047
0.022260083477619406,-0.003696407693184414,-0.00035779821494128964
0.022170570212827236,-0.0036853000297618023,-0.0003596436418720262
0.022097173304560347,-0.0036742330938824555,-0.00036148352515293726
0.022045336743254595,-0.0036631974663705017,-0.0003633178827930005
0.022019388617615515,-0.003652181285030284,-0.0003651467274808507
0.022022451354964934,-0.003641170825037139,-0.00036697006550836755
0.022056405473856424,-0.0036301511108299336,-0.00036878789599233434
0.02212190294440835,-0.0036191065337253673,-0.0003706002104034732
0.02221842258749947,-0.0036080214523423904,-0.00037240699239999013
0.022344359320841785,-0.003596880756865305,-0.00037420821795229207
0.02249714099581437,-0.003585670381786141,-0.00037600385573695495
0.022673369260020105,-0.003574377754222182,-0.00037779386777095705
0.022868982655762905,-0.0035629921662432363,-0.00037957821025107343
0.023079440312224756,-0.0035515050605012394,-0.00038135683455775955
0.02329992333202892,-0.0035399102195901757,-0.0003831296883777824
0.023525548784404444,-0.0035282038515610675,-0.0003848967168955702
0.023751588613340417,-0.0035163845672116314,-0.0003866578640002634
0.023973683560938586,-0.0035044532491680614,-0.00038841307345435837
0.024188041023001126,-0.0034924128180220766,-0.0003901622899711559
0.0243916056565822,-0.003480267906352181,-0.0003919054601522495
0.024582192804152563,-0.0034680244567369973,-0.00039364253324302177
0.024758577910886485,-0.0034556892640582376,-0.00039537346167322057
0.024920539472795447,-0.0034432694847123173,-0.0003970982013604132
0.02506885674574649,-0.0034307721356576816,-0.00039881671176550566
0.025205265255573407,-0.0034182036051573516,-0.0004005289557007094
0.02533237384339195,-0.0034055691953826105,-0.0004022348989008444
0.02545354813224082,-0.0033928727148887024,-0.0004039345093784122
0.02557276734569923,-0.0033801161360192174,-0.0004056277565911392
0.025694463162200285,-0.0033672993283922425,-0.0004073146104572421
0.025823349361171623,-0.0033544198752613994,-0.0004089950402581555
0.025964249403878478,-0.0033414729755701367,-0.0004106690134708634
0.02612192692382388,-0.003328451431488211,-0.000412336494572628
