acceleration,velocity,displacement
-0.03699132599184728,0.0,0.0
-0.037467523032285635,-1.8614712256033228e-05,-4.653678064008307e-09
-0.037937963138683715,-3.746608379877556e-05,-1.8673877077710505e-08
-0.03840245186558801,-5.655118754984349e-05,-4.217819491486526e-08
-0.03886079740823278,-7.586699986829868e-05,-7.52827417694008e-08
-0.039312810463399656,-9.541040183620679e-05,-1.1810209219552718e-07
-0.03975830416707491,-0.00011517818049382543,-1.7074923777803523e-07
-0.04019709411772395,-0.00013516703006502515,-2.3333554041774788e-07
-0.04062899849080366,-0.00015537355321715705,-3.0597068623829343e-07
-0.04105383824594482,-0.00017579426240134417,-3.8876264014291875e-07
-0.041471437423749306,-0.00019642558131876772,-4.818176010729467e-07
-0.04188162352558731,-0.00021726384655610187,-5.852399580416641e-07
-0.042284227967908206,-0.00023830530942947574,-6.991322470380584e-07
-0.042679086602278975,-0.00025954613807202255,-8.23595108913433e-07
-0.043066040292148826,-0.0002809824197956295,-9.58727248380346e-07
-0.04344493553637489,-0.0003026101637527604,-1.1046253942674434e-06
-0.04381562512808646,-0.00032442530391887573,-1.2613842611853525e-06
-0.04417796883705695,-0.0003464237024101616,-1.4290965127676118e-06
-0.04453183410467155,-0.00036860115314559373,-1.6078527266565506e-06
-0.04487709674168195,-0.0003909533858571821,-1.7977413614072445e-06
-0.04521364161868534,-0.00041347607044727396,-1.9988487254833584e-06
-0.04554136333728907,-0.0004361648216862676,-2.211258948516744e-06
-0.04586016686737189,-0.00045901520423743286,-2.435053954997669e-06
-0.04616996813451372,-0.00048202273798790427,-2.6703134405540033e-06
-0.046470694542723394,-0.0005051829036572136,-2.917114850965283e-06
-0.04676228542105664,-0.0005284911486481586,-3.175533364041626e-06
-0.04704469238728671,-0.0005519428931002445,-3.4456418744787267e-06
-0.04731787962588116,-0.0005755335361035365,-3.727510981779672e-06
-0.04758182407965093,-0.0005992584620299195,-4.021208981313036e-06
-0.047836515554339876,-0.0006231130469384172,-4.32680185855512e-06
-0.048081956734739244,-0.0006470926650106871,-4.644353286542397e-06
-0.04831816311139832,-0.0006711926949722215,-4.973924626538124e-06
-0.04854516281901654,-0.0006954085264548253,-5.315574931894886e-06
-0.04876299639025015,-0.000719735566257142,-5.669360955072878e-06
-0.04897171643054211,-0.0007441692444623401,-6.0353371577527485e-06
-0.049171387220481685,-0.000768705020375096,-6.413555723962108e-06
-0.04936208425253741,-0.0007933383882433508,-6.804066576116719e-06
-0.04954389370923732,-0.0008180648827337944,-7.206917393861005e-06
-0.04971691189010701,-0.0008428800841336306,-7.622153635577861e-06
-0.04988124459461264,-0.0008677796232548104,-8.049818562424972e-06
-0.05003700646823856,-0.0008927591860205232,-8.489953264743805e-06
-0.050184320319180284,-0.000917814517717378,-8.94259669067828e-06
-0.05032331641397793,-0.0009429414269006675,-9.407785676832792e-06
-0.05045413176090196,-0.0009681357889443874,-9.885554980794056e-06
-0.05057690938913179,-0.0009933935492318958,-1.0375937315338126e-05
-0.05069179763015843,-0.0010187107259867184,-1.087896338414278e-05
-0.050798949406434285,-0.0010440834127458665,-1.1394661918825926e-05
-0.05089852153176932,-0.0010695077804804174,-1.1923059717132497e-05
-0.050990674027897524,-0.001094980079370334,-1.2464181682095185e-05
-0.051075569461229466,-0.0011204966402426158,-1.3018050861998422e-05
-0.05115337230288825,-0.0011460538756836451,-1.3584688490979988e-05
-0.05122424831401206,-0.0011716482808378703,-1.4164114030110367e-05
-0.05128836395752019,-0.0011972764339057533,-1.4756345208796272e-05
-0.05134588583742088,-0.0012229349963544885,-1.536139806636133e-05
-0.051396980167241826,-0.001248620712855654,-1.5979286993663867e-05
-0.051441812270019746,-0.0012743304109649695,-1.6610024774619024e-05
-0.05148054611282138,-0.0013000610005606797,-1.7253622627500436e-05
-0.051513343878944386,-0.0013258094730586212,-1.791009024590526e-05
-0.051540365580491965,-0.0013515729004234802,-1.8579435839275785e-05
-0.05156176871280137,-0.0013773484339968036,-1.9261666172880857e-05
-0.05157770795001102,-0.0014031333031625066,-1.9956786607170686e-05
-0.051588334878260936,-0.0014289248138695746,-2.0664801136428705e-05
-0.05159379776077885,-0.0014547203470293346,-2.1385712426653433e-05
-0.05159424132770899,-0.0014805173568014566,-2.211952185261113e-05
-0.05158980658283824,-0.0015063133687790934,-2.2866229534006268e-05
-0.051580630619197314,-0.0015321059780796023,-2.362583437072094e-05
-0.05156684643608786,-0.0015578928473434237,-2.4398334077076698e-05
-0.05154858275184824,-0.0015836717046404077,-2.5183725215072656e-05
-0.05152596380902132,-0.001609440341280625,-2.5982003226552915e-05
-0.05149910917095757,-0.0016351966095256196,-2.6793162464254478e-05
-0.05146813351063485,-0.0016609384201960178,-2.7617196221684886e-05
-0.05143314639325505,-0.0016866637401719902,-2.8454096761776887e-05
-0.051394252054100496,-0.0017123705897838291,-2.930385534426584e-05
-0.051351549172495056,-0.0017380570400904781,-3.0166462251734417e-05
-0.05130513064195718,-0.0017637212100440913,-3.104190681426806e-05
-0.051255083335951634,-0.0017893612635385685,-3.193017743266372e-05
-0.05120148786884841,-0.0018149754063397686,-3.2831261600133304e-05
-0.051144418352435134,-0.0018405618828950894,-3.374514592244202e-05
-0.05108394214913197,-0.0018661189730204812,-3.467181613642091e-05
-0.05102011962347478,-0.0018916449884636328,-3.561125712679194e-05
-0.05095300389374594,-0.001917138269342938,-3.656345294124358e-05
-0.05088264058648113,-0.0019425971804629947,-3.752838680369507e-05
-0.050809067598042545,-0.0019680201075091257,-3.85060411256881e-05
-0.05073231486963257,-0.0019934054531260447,-3.9496397515846895e-05
-0.05065240418499448,-0.0020187516328897016,-4.049943678735083e-05
-0.05056934900297593,-0.0020440570711866943,-4.151513896336993e-05
-0.05048315433891333,-0.0020693201970221667,-4.2543483280422146e-05
-0.050393816708703715,-0.002094539439784071,-4.358444818962371e-05
-0.05030132414766732,-0.002119713224998164,-4.463801135581927e-05
-0.05020565631304106,-0.0021448399701133407,-4.570414965459715e-05
-0.05010678467490483,-0.002169918080360327,-4.678283916721556e-05
-0.05000467279649373,-0.002194945944728177,-4.787405517348769e-05
-0.04989927670211494,-0.002219921932102829,-4.897777214269544e-05
-0.04979054532885209,-0.002244844387610571,-5.009396372262379e-05
-0.04967842105606585,-0.0022697116292068006,-5.122260272682813e-05
-0.04956284030413498,-0.0022945219445468508,-5.2363661120266544e-05
-0.04944373419110858,-0.0023192735881706616,-5.3517110003445923e-05
-0.049321029233162186,-0.0023439647790267294,-5.468291959524527e-05
-0.049194648072484096,-0.002368593698353141,-5.586105921459024e-05
-0.04906451021502442,-0.002393158487925018,-5.705149726115978e-05
-0.0489305327608885,-0.002417657248668996,-5.8254201195308286e-05
-0.048792631111857984,-0.0024420880396371827,-5.946913751738483e-05
-0.04865071964290335,-0.002466448877325873,-6.06962717466256e-05
-0.04850471232720783,-0.0024907377353184006,-6.193556839978667e-05
-0.048354523305928786,-0.0025149525442266845,-6.318699096967294e-05
-0.04820006739487558,-0.0025390911919018857,-6.445050190370509e-05
-0.048041260520899014,-0.0025631515238808294,-6.572606258265077e-05
-0.0478780200820234,-0.00258713134403156,-6.701363329962887e-05
-0.04771026522747576,-0.002611028415358935,-6.83131732394765e-05
-0.047537917056399835,-0.002634840460929904,-6.962464045854871e-05
-0.04736089873693843,-0.0026585651648782386,-7.094799186500075e-05
-0.04717913555026468,-0.0026822001734500395,-7.228318319958282e-05
-0.046992554867035,-0.0027057430960543646,-7.363016901695893e-05
-0.046801086065682576,-0.002729191506287544,-7.498890266754441e-05
-0.0466046604024529,-0.002752542942904578,-7.635933627984244e-05
-0.046403210842508105,-0.002775794910715818,-7.774142074324753e-05
-0.046196671860868135,-0.002798944881391662,-7.91351056912744e-05
-0.04598497922200033,-0.0028219902941623793,-8.05403394851629e-05
-0.045768069747534626,-0.002844928556404763,-8.195706919780469e-05
-0.04554588108293231,-0.00286775704411238,-8.338524059793397e-05
-0.04531835147562858,-0.00289047310225202,-8.482479813452506e-05
-0.04508541957821722,-0.0029130740450154812,-8.627568492134194e-05
-0.04484702428960439,-0.0029355571559824367,-8.773784272159142e-05
-0.04460310464446986,-0.0029579196882159554,-8.921121193264102e-05
-0.04435359975733588,-0.0029801588643164068,-9.06957315707741e-05
-0.044098448822571724,-0.0030022718764613834,-9.219133925596856e-05
-0.04383759116667633,-0.0030242558864586955,-9.369797119669858e-05
-0.043570966345158425,-0.003046108025836654,-9.521556217477242e-05
-0.04329851427354441,-0.0030678253959913297,-9.674404553022942e-05
-0.04302017537992005,-0.003089405068404696,-9.828335314632842e-05
-0.0427358907644287,-0.003110844084940783,-9.983341543466478e-05
-0.04244560234948661,-0.003132139458219262,-0.0001013941613204548
-0.04214925300364305,-0.003153288172057544,-0.000102965518228024
-0.04184678662287882,-0.0031742871819641747,-0.00010454741206652943
-0.04153814815642841,-0.0031951334156590013,-0.00010613976721593523
-0.04122328356963459,-0.003215823773590517,-0.0001077425065132476
-0.04090213974237196,-0.0032363551294185187,-0.00010935555123899987
-0.04057466430676299,-0.0032567243304308024,-0.0001109788211039622
-0.04024080543159814,-0.0032769281978653926,-0.00011261223423603625
-0.039900511562795386,-0.003296963527113991,-0.0001142557071672811
-0.03955373112971399,-0.0033168270877871183,-0.00011590915482100637
-0.03920041222684006,-0.003336515623626257,-0.00011757249049885971
-0.03884050228065709,-0.0033560258522531312,-0.00011924562586782955
-0.03847394771269187,-0.0033753544647514683,-0.00012092847094708071
-0.03810069361119442,-0.0033944981250824398,-0.00012262093409453917
-0.03772068342460001,-0.0034134534693413886,-0.00012432292199314514
-0.037333858689539284,-0.0034322171048699235,-0.00012603433963669796
-0.036940158805389575,-0.0034507856092436556,-0.00012775509031522637
-0.03653952086679619,-0.003469155529161702,-0.0001294850755998277
-0.03613187956569162,-0.003487323379269824,-0.00013122419532693558
-0.035717167174678086,-0.0035052856409549162,-0.00013297234758199175
-0.03529531362368537,-0.003523038761154507,-0.0001347294286825191
-0.03486624668157495,-0.003540579151230822,-0.00013649533316061543
-0.034429892253503416,-0.0035579031859645917,-0.0001382699537449143
-0.033986174802620214,-0.003575007202728623,-0.0001400531813420876
-0.03353501790070144,-0.003591887500904453,-0.00014184490501799587
-0.033076344907477254,-0.003608540341606498,-0.0001436450119786236
-0.032610079773953325,-0.0036249619477768556,-0.00014545338755096943
-0.03213614796185594,-0.0036411485047108077,-0.00014726991516409135
-0.031654477469517106,-0.003657096161068651,-0.00014909447633053622
-0.031164999953439694,-0.0036728010304243903,-0.00015092695062840947
-0.0306676519337811,-0.0036882591933961955,-0.00015276721568436462
-0.03016237607006214,-0.0037034667003971564,-0.00015461514715781296
-0.02964912249061926,-0.003718419575037327,-0.0001564706187266716
-0.029127850156684485,-0.0037331138181991527,-0.00015833350207498072
-0.02859852824089201,-0.0037475454127985468,-0.00016020366688273015
-0.028061137500772115,-0.0037617103292339627,-0.00016208098081823828
-0.027515671630486977,-0.0037756045315167773,-0.00016396530953342596
-0.026962138577803205,-0.00378922398406885,-0.00016585651666232236
-0.026400561816623598,-0.0038025646591674563,-0.00016775446382313143
-0.025830981566888393,-0.0038156225450133342,-0.00016965901062417662
-0.02525345595319091,-0.003828393654393354,-0.0001715700146740283
-0.024668062091976875,-0.0038408740339046458,-0.00017348733159610282
-0.02407489709574677,-0.0038530597737015766,-0.00017541081504800438
-0.023474078981785943,-0.0038649470177209598,-0.00017734031674586002
-0.02286574747240384,-0.003876531974334507,-0.00017927568649387388
-0.02225006467372685,-0.0038878109273710396,-0.00018121677221930027
-0.0216272156211553,-0.00389878024744476,-0.00018316342001300422
-0.02099740868161447,-0.003909436403520453,-0.0001851154741757455
-0.020360875805048244,-0.003919775974642118,-0.00018707277727028615
-0.01971787261914895,-0.003929795661748167,-0.00018903517017938374
-0.019068678361961428,-0.003939492299493445,-0.00019100249216969414
-0.01841359564741039,-0.003948862867995788,-0.00019297458096156645
-0.017752950059914455,-0.003957904504422619,-0.00019495127280467106
-0.017087089576060064,-0.003966614514331612,-0.00019693240255935963
-0.016416383813753925,-0.003974990382679066,-0.0001989178037836123
-0.01574122311179621,-0.003983029784410453,-0.00020090730882538468
-0.01506201744503166,-0.00399073059454966,-0.0002029007489201247
-0.014379195182066883,-0.0039980908977064345,-0.00020489795429318871
-0.013693201694571699,-0.0040051089969255944,-0.00020689875426684672
-0.01300449782966702,-0.004011783421806654,-0.00020890297737152978
-0.012313558259797248,-0.00401811293582902,-0.0002109104514609387
-0.011620869727020887,-0.004024096542825725,-0.0002129210038306024
-0.010926929200100043,-0.004029733492557505,-0.0002149344613394482
-0.010232241963073735,-0.004035023285348298,-0.00021695065053392465
-0.009537319653648998,-0.004039965675752479,-0.00021896939777419985
-0.008842678269882389,-0.004044560675233361,-0.0002209905293619463
-0.008148836164308004,-0.004048808553841909,-0.00022301387166921512
-0.007456312045210332,-0.004052709840894289,-0.00022503925126789916
-0.0067656230042537485,-0.004056265324656655,-0.00022706649505928688
-0.00607728258836155,-0.004059476051054808,-0.00022909543040321474
-0.005391798931984659,-0.004062343321434895,-0.00023112588524633717
-0.004709672964014951,-0.004064868689408895,-0.00023315768824904812
-0.0040313967019102144,-0.004067053956825376,-0.00023519066891060668
-0.0033574516433240516,-0.004068901168911685,-0.00023722465769204093
-0.00268830726231927,-0.0040704126086380955,-0.00023925948613642836
-0.002024419613391577,-0.004071590790357023,-0.00024129498698617714
-0.0013662300434150157,-0.004072438452771224,-0.0002433309942969592
-0.000714164010501785,-0.0040729585512847034,-0.0002453673435479732
-6.86300100956692e-05,-0.004073154249789853,-0.00024740387174824183
0.0005699813890372516,-0.004073028911945117,-0.0002494404175386756
0.0012012983947331138,-0.004072586091999174,-0.00025147682128966165
0.0018249687239001336,-0.004071829525219516,-0.0002535129251939663
0.0024406602167192084,-0.004070763117984362,-0.0002555485733547673
0.003048061335434682,-0.0040693909375963235,-0.00025758361186866243
0.0036468815547505648,-0.0040677172018737775,-0.00025961788890352996
0.004236851655107284,-0.004065746268571313,-0.00026165125477114126
0.004817723933569725,-0.004063482624674144,-0.0002636835619944526
0.005389272348641388,-0.004060930875603591,-0.0002657146653695221
0.005951292614824085,-0.0040580957343627246,-0.0002677444220220137
0.006503602260249076,-0.004054982010643957,-0.00026977269145826537
0.007046040656709282,-0.004051594599914717,-0.00027179933561090504
0.007578469026956166,-0.004047938472493801,-0.0002738242188790072
0.008100770430205358,-0.004044018662629511,-0.000275847208162788
0.008612849724087825,-0.004039840257590938,-0.0002778681728928431
0.009114633499371015,-0.004035408386785073,-0.00027988698505393715
0.009606069982234077,-0.004030728210914671,-0.00028190351920336207
0.010087128898090693,-0.00402580491119459,-0.00028391765248388936
0.01055780129077089,-0.004020643678647375,-0.00028592926463134985
0.011018099291633618,-0.0040152497035017744,-0.0002879382379768871
0.011468055834274989,-0.004009628164720298,-0.00028994445744394263
0.011907724312045075,-0.004003784219683717,-0.00029194781054004364
0.012337178177524007,-0.003997722994061325,-0.0002939481873434799
0.012756510485180025,-0.003991449571895649,-0.0002959454804849691
0.013165833380071953,-0.003984968985929336,-0.00029793958512442536
0.013565277536407114,-0.003978286208200216,-0.0002999303989229578
0.013954991550615014,-0.00397140614092846,-0.00030191782201023995
0.014335141295113384,-0.003964333607717028,-0.00030390175694740133
0.014705909240900643,-0.003957073345083025,-0.00030588210868560137
0.015067493758671818,-0.003949629994333132,-0.00030785878452045543
0.015420108408201655,-0.003942008093791413,-0.00030983169404248656
0.015763981223993476,-0.003934212071383365,-0.00031180074908378024
0.01609935400223049,-0.0039262462375768085,-0.0003137658636610203
0.016426481591071386,-0.003918114778678483,-0.0003157269539150841
0.016745631183623166,-0.00390982175048481,-0.0003176839380473749
0.017057081610430607,-0.003901371072286296,-0.00031963673625306767
0.01736112262609935,-0.0038927665212271636,-0.000321585270651446
0.017658054182909246,-0.0038840117270249113,-0.000323529465213509
0.0179481856829211,-0.0038751101670584536,-0.00032546924568702985
0.01823183519881495,-0.0038660651618380197,-0.000327404539519254
0.018509328652397145,-0.0038568798708752167,-0.0003293352757774323
0.018780998939097654,-0.003847557288977343,-0.0003312613850673954
0.019047184987275815,-0.0038381002429957495,-0.00033318279945038866
0.019308230742660137,-0.0038285113890632657,-0.0003350994523584034
0.01956448407035423,-0.003818793210360012,-0.0003370112785082592
0.019816295569516643,-0.0038089480154500444,-0.0003389182138147117
0.020064017299364013,-0.003798977937232824,-0.0003408201953028824
0.02030800141897291,-0.00378888493255324,-0.00034271716102032894
0.020548598746906472,-0.0037786707825117703,-0.0003446090499490952
0.020786157249662596,-0.003768337093512628,-0.0003464958019181013
0.021021020470105956,-0.0037578852990826856,-0.00034837735751625014
0.021253525908641935,-0.0037473166624879986,-0.0003502536580066428
0.021484003370676834,-0.0037366322801681688,-0.00035212464524230684
0.021712773294328608,-0.0037258330860019174,-0.00035399026158384935
0.02194014507285242,-0.003714919856410122,-0.00035585044981945236
0.022166415386919856,-0.003703893216295179,-0.00035770515308762867
0.022391866562744327,-0.003692753645807763,-0.0003595543148031544
0.022616764972280226,-0.003681501487924007,-0.00036139787858658734
0.022841359491102876,-0.0036701369568081614,-0.0003632357881977704
0.02306588002818212,-0.0036586601469283404,-0.00036506798747370454
0.023290536139714473,-0.0036470710428863663,-0.0003668944202711582
0.02351551573604539,-0.003635369529917426,-0.00036871503041435916
0.023740983887112807,-0.0036235554050116367,-0.0003705297616480914
0.023967081728974868,-0.003611628388607615,-0.0003723385575964962
0.02419392547329487,-0.0035995881368070474,-0.00037414136172784986
0.0244216055226354,-0.003587434254058065,-0.0003759381173255661
0.024650185695904214,-0.00357516630625343,-0.000377728767465644
0.02487970256912866,-0.003562783834187172,-0.0003795132550007542
0.02511016493638304,-0.003550286367310794,-0.0003812915225511287
0.025341553394330658,-0.0035376734377281153,-0.0003830635125023884
0.025573820051865218,-0.0035249445943665663,-0.00038482916701041206
0.02580688836392705,-0.0035120994172626184,-0.00038658842801331933
0.026040653086598566,-0.003499137531899987,-0.00038834123725061
0.02627498034921774,-0.003486058623541033,-0.00039008753628947025
0.026509707838682096,-0.003472862451494058,-0.000391827266558229
0.026744645091462117,-0.003459548863261522,-0.0003935603693869179
0.026979573890479745,-0.0034461178085160365,-0.0003952867860548623
0.027214248766589927,-0.003432569352851769,-0.0003970064578452043
0.027448397606411868,-0.0034189036912585184,-0.0003987193261062319
0.027681722368983995,-0.0034051211612646693,-0.00040042533231936266
0.027913899913651806,-0.0033912222556940104,-0.0004021244181736023
0.028144582941834174,-0.003377207634980139,-0.00040381652564627085
0.02837340105611485,-0.0033630781389806515,-0.00040550159708976105
0.028599961940727614,-0.0033488347982314408,-0.0004071795753240641
0.02882385266687883,-0.003334478844579539,-0.0004088504037347668
0.029044641124572664,-0.0033200117211316764,-0.0004105140263761946
0.029261877580383414,-0.003305435091455437,-0.00041217038807934135
