frame_number,force
0,737.8789688076386
1,737.8430151116418
2,737.8074960740614
3,737.7724263758648
4,737.7378204986429
5,737.7036927351152
6,737.670057193837
7,737.6369277974429
8,737.6043182739998
9,737.572242141365
10,737.5407126847774
11,737.5097429281813
12,737.479345599925
13,737.4495330934978
14,737.4203174239831
15,737.3917101809809
16,737.3637224788633
17,737.3363649052537
18,737.3096474685551
19,737.2835795452689
20,737.258169827863
21,737.2334262740974
22,737.2093560589101
23,737.1859655300644
24,737.1632601686823
25,737.1412445555244
26,737.1199223435327
27,737.0992962368423
28,737.0793679763116
29,737.0601383316254
30,737.0416071000778
31,737.0237731121066
32,737.0066342434934
33,736.9901874339529
34,736.9744287116831
35,736.9593532233883
36,736.9449552692568
37,736.9312283423585
38,736.9181651719131
39,736.905757769878
40,736.8939974803212
41,736.8828750310121
42,736.8723805866023
43,736.8625038027318
44,736.8532338804513
45,736.844559620478
46,736.8364694769039
47,736.8289516100166
48,736.8219939379002
49,736.8155841865108
50,736.8097099379956
51,736.8043586771032
52,736.7995178355962
53,736.795174834585
54,736.791317124662
55,736.7879322236531
56,736.7850077517621
57,736.7825314638703
58,736.7804912787883
59,736.7788753053467
60,736.7776718653822
61,736.776869513881
62,736.7764570567148
63,736.7764235665096
64,736.7767583972377
65,736.7774511981406
66,736.7784919275429
67,736.7798708669882
68,736.7815786359506
69,736.7836062071917
70,736.7859449227045
71,736.7885865101277
72,736.7915230995184
73,736.7947472404175
74,736.798251919205
75,736.8020305767855
76,736.8060771266355
77,736.8103859731877
78,736.8149520304634
79,736.8197707408359
80,736.8248380937838
81,736.8301506444247
82,736.8357055315176
83,736.8415004944503
84,736.8475338885129
85,736.8538046975392
86,736.860312542863
87,736.86705768754
88,736.8740410349247
89,736.8812641209322
90,736.8887290996216
91,736.8964387220328
92,736.9043963084072
93,736.9126057140835
94,736.9210712895198
95,736.9297978350866
96,736.9387905514895
97,736.948054986884
98,736.9575969819182
99,736.9674226140314
100,736.977538142308
101,736.9879499540592
102,736.9986645141216
103,737.0096883176677
104,737.0210278471877
105,737.0326895342344
106,737.0446797264751
107,737.057004660501
108,737.0696704406838
109,737.0826830241732
110,737.0960482119062
111,737.1097716452825
112,737.123858807942
113,737.138315031934
114,737.1531455075298
115,737.1683552959743
116,737.1839493445153
117,737.1999325030455
118,737.2163095416396
119,737.233085168172
120,737.2502640450676
121,737.267850804162
122,737.285850058694
123,737.3042664116522
124,737.3231044599966
125,737.3423687946581
126,737.3620639965918
127,737.3821946294617
128,737.4027652297489
129,737.4237802952352
130,737.4452442729613
131,737.4671615478843
132,737.4895364335265
133,737.5123731658368
134,737.5356759012418
135,737.55944871945
136,737.583695631121
137,737.6084205901188
138,737.6336275097887
139,737.6593202825516
140,737.685502802079
141,737.7121789873258
142,737.7393528076827
143,737.7670283084165
144,737.7952096354584
145,737.8239010585494
146,737.8531069917749
147,737.8828320105868
148,737.9130808644486
149,737.9438584842328
150,737.9751699834748
151,738.007020652586
152,738.0394159451427
153,738.0723614554338
154,738.1058628866223
155,738.1399260091707
156,738.1745566095514
157,738.2097604295936
158,738.2455430970642
159,738.2819100482121
160,738.3188664430879
161,738.356417074528
162,738.3945662718362
163,738.4333178004082
164,738.4726747587407
165,738.5126394743522
166,738.5532134000815
167,738.594397012029
168,738.6361897101239
169,738.6785897220454
170,738.7215940111184
171,738.7651981888357
172,738.8093964327729
173,738.8541814107685
174,738.8995442123136
175,738.9454742881328
176,738.9919593989343
177,739.0389855742267
178,739.0865370819481
179,739.1345964094784
180,739.1831442564862
181,739.2321595400186
182,739.2816194122033
183,739.3314992908557
184,739.3817729031445
185,739.4324123422814
186,739.4833881370151
187,739.5346693335392
188,739.5862235892865
189,739.6380172779299
190,739.690015604719
191,739.7421827310675
192,739.7944819071124
193,739.8468756108574
194,739.8993256924888
195,739.9517935224802
196,740.0042401420916
197,740.056626414815
198,740.1089131772831
199,740.1610613881861
200,740.2130322738485
201,740.2647874692456
202,740.316289153384
203,740.3675001780991
204,740.4183841894899
205,740.4689057414569
206,740.5190304011005
207,740.5687248459719
208,740.6179569532509
209,740.6666958808282
210,740.7149121400889
211,740.7625776600837
212,740.8096658428318
213,740.8561516096946
214,740.9020114390348
215,740.9472233956915
216,740.9917671531238
217,741.0356240093337
218,741.0787768977997
219,741.1212103946159
220,741.1629107228426
221,741.2038657547743
222,741.2440650124901
223,741.2834996667599
224,741.322162534172
225,741.3600480722033
226,741.3971523718424
227,741.4334731473065
228,741.4690097223904
229,741.5037630130338
230,741.5377355057814
231,741.570931231925
232,741.6033557372626
233,741.6350160475683
234,741.665920629988
235,741.6960793506497
236,741.7255034288402
237,741.7542053882127
238,741.7821990056417
239,741.8094992584564
240,741.8361222707877
241,741.8620852596329
242,741.8874064810203
243,741.9121051764255
244,741.9362015193882
245,741.9597165620946
246,741.9826721815166
247,742.0050910245682
248,742.0269964516382
249,742.048412477762
250,742.0693637105971
251,742.089875284322
252,742.1099727886118
253,742.1296821919616
254,742.1490297587858
255,742.1680419599246
256,742.1867453764553
257,742.2051665969943
258,742.2233321089473
259,742.2412681843828
260,742.2590007613778
261,742.276555321794
262,742.2939567665071
263,742.3112292891467
264,742.3283962494363
265,742.3454800472778
266,742.3625019987862
267,742.3794822155025
268,742.3964394879611
269,742.4133911746856
270,742.4303530975301
271,742.44733944405
272,742.4643626773104
273,742.481433453327
274,742.498560546281
275,742.5157507817221
276,742.5330089780877
277,742.5503378969307
278,742.567738202219
279,742.5852084289671
280,742.6027449613135
281,742.6203420199731
282,742.6379916588475
283,742.6556837704696
284,742.6734060999196
285,742.6911442668711
286,742.7088817955578
287,742.7266001526355
288,742.7442787930748
289,742.7618952142698
290,742.7794250185443
291,742.7968419842573
292,742.8141181457659
293,742.8312238825536
294,742.848128017785
295,742.8647979264118
296,742.8811996527866
297,742.8972980375888
298,742.9130568537615
299,742.9284389511255
300,742.9434064093592
301,742.9579206989972
302,742.9719428499709
303,742.9854336270621
304,742.9983537115183
305,743.0106638880047
306,743.0223252360227
307,743.033299324886
308,743.0435484112578
309,743.0530356380987
310,743.0617252337116
311,743.0695827094504
312,743.0765750545994
313,743.0826709269321
314,743.0878408375114
315,743.0920573284126
316,743.0952951422203
317,743.0975313823315
318,743.0987456632324
319,743.098920249985
320,743.0980401861891
321,743.0960934097167
322,743.0930708555202
323,743.0889665447842
324,743.0837776596344
325,743.077504602598
326,743.0701510400345
327,743.0617239288504
328,743.0522335259998
329,743.0416933805899
330,743.0301203087902
331,743.0175343520789
332,743.0039587195944
333,742.989419715513
334,742.973946652504
335,742.9575717524027
336,742.9403300352403
337,742.9222591976447
338,742.9033994814233
339,742.883793532944
340,742.863486253851
341,742.8425246436794
342,742.8209576349823
343,742.7988359215979
344,742.7762117807101
345,742.7531388894682
346,742.7296721371607
347,742.7058674341971
348,742.6817815193308
349,742.6574717666294
350,742.6329959936944
351,742.6084122725771
352,742.583778744747
353,742.5591534413617
354,742.534594110041
355,742.5101580493603
356,742.4859019522969
357,742.4618817597903
358,742.4381525254308
359,742.4147682921256
360,742.3917819814075
361,742.3692452958104
362,742.3472086344293
363,742.3257210214689
364,742.3048300473148
365,742.2845818214565
366,742.2650209364522
367,742.246190442057
368,742.2281318286307
369,742.2108850189102
370,742.1944883671065
371,742.1789786640501
372,742.1643911468843
373,742.1507595117037
374,742.1381159275811
375,742.1264910505777
376,742.1159140364991
377,742.106412551357
378,742.0980127787266
379,742.0907394234723
380,742.0846157115557
381,742.0796633857583
382,742.0759026971559
383,742.0733523921266
384,742.0720296946961
385,742.0719502841688
386,742.0731282682553
387,742.0755761521988
388,742.0793048046258
389,742.0843234209619
390,742.090639485255
391,742.0982587311726
392,742.1071851027751
393,742.1174207154877
394,742.1289658175378
395,742.141818752044
396,742.1559759199021
397,742.1714317436083
398,742.1881786321454
399,742.2062069470985
400,742.2255049702882
401,742.2460588733995
402,742.2678526902752
403,742.2908682926852
404,742.3150853704592
405,742.3404814168335
406,742.3670317197395
407,742.3947093596041
408,742.4234852141531
409,742.4533279706955
410,742.484204146374
411,742.5160781168287
412,742.5489121536017
413,742.5826664704296
414,742.6172992783553
415,742.6527668494327
416,742.6890235887317
417,742.7260221144128
418,742.763713345757
419,742.8020465991121
420,742.8409696916711
421,742.8804290528554
422,742.9203698428915
423,742.9607360779881
424,743.0014707613781
425,743.0425160194122
426,743.0838132419054
427,743.1253032260155
428,743.166926323036
429,743.2086225875528
430,743.2503319284273
431,743.2919942610273
432,743.3335496600257
433,743.374938511977
434,743.4161016668112
435,743.4569805873631
436,743.4975174960819
437,743.5376555181463
438,743.5773388203621
439,743.6165127454118
440,743.6551239411933
441,743.6931204850681
442,743.7304520028194
443,743.7670697820655
444,743.8029268798397
445,743.8379782240571
446,743.872180708587
447,743.9054932816107
448,743.9378770268746
449,743.969295237365
450,743.9997134808854
451,744.0290996570999
452,744.0574240458266
453,744.0846593466318
454,744.1107807099872
455,744.1357657603724
456,744.1595946118033
457,744.1822498763676
458,744.2037166664492
459,744.2239825914126
460,744.2430377495576
461,744.2608747161306
462,744.2774885280695
463,744.2928766660308
464,744.3070390341182
465,744.3199779375972
466,744.3316980587207
467,744.3422064306495
468,744.3515124093434
469,744.3596276432488
470,744.3665660406061
471,744.3723437342536
472,744.3769790439003
473,744.3804924359339
474,744.3829064808872
475,744.3842458086614
476,744.3845370615076
477,744.3838088446439
478,744.3820916742724
479,744.3794179226536
480,744.3758217598064
481,744.371339091353
482,744.3660074920642
483,744.3598661347432
484,744.3529557141659
485,744.3453183658312
486,744.3369975792623
487,744.3280381055556
488,744.3184858588376
489,744.3083878112922
490,744.2977918814988
491,744.2867468159683
492,744.275302063955
493,744.2635076458035
494,744.2514140152164
495,744.2390719158752
496,744.2265322328225
497,744.2138458389447
498,744.2010634368851
499,744.1882353967973
500,744.1754115905401
501,744.1626412231518
502,744.1499726626843
503,744.1374532696649
504,744.1251292275601
505,744.113045375624
506,744.1012450454353
507,744.0897699022653
508,744.0786597921837
509,744.0679525955821
510,744.0576840876577
511,744.0478878064167
512,744.0385949288343
513,744.029834155823
514,744.0216316066503
515,744.014010723457
516,744.006992186605
517,744.0005938416647
518,743.9948306388767
519,743.9897145859012
520,743.9852547145863
521,743.9814570623547
522,743.9783246686288
523,743.9758575865102
524,743.9740529097515
525,743.9729048149444
526,743.9724046187845
527,743.9725408502381
528,743.9732993373872
529,743.9746633086843
530,743.9766135082871
531,743.9791283250282
532,743.9821839344402
533,743.9857544531327
534,743.9898121047606
535,743.9943273967466
536,743.9992693067676
537,744.0046054777811
538,744.0103024201676
539,744.0163257194899
540,744.0226402484054
541,744.029210381374
542,744.0360002109355
543,744.0429737644431
544,744.0500952202051
545,744.0573291220092
546,744.0646405910217
547,744.0719955340696
548,744.079360847273
549,744.086704613888
550,744.0939962950885
551,744.1012069122964
552,744.1083092195823
553,744.1152778646185
554,744.122089536714
555,744.1287231006402
556,744.1351597152982
557,744.1413829367057
558,744.1473788051462
559,744.1531359165323
560,744.1586454780667
561,744.1639013482161
562,744.1689000609103
563,744.1736408338184
564,744.1781255605885
565,744.1823587871082
566,744.1863476720764
567,744.1901019323448
568,744.1936337734929
569,744.1969578060031
570,744.2000909473458
571,744.2030523103641
572,744.2058630785201
573,744.2085463687466
574,744.211127082722
575,744.2136317473299
576,744.2160883449682
577,744.2185261343332
578,744.2209754624033
579,744.2234675685627
580,744.2260343820815
581,744.228708314377
582,744.2315220475602
583,744.2345083208097
584,744.237699716187
585,744.2411284456324
586,744.2448261409438
587,744.2488236485148
588,744.2531508305225
589,744.257836374178
590,744.2629076105894
591,744.2683903447404
592,744.274308698021
593,744.280684964655
594,744.2875394832748
595,744.2948905247935
596,744.3027541976313
597,744.3111443711858
598,744.3200726181692
599,744.3295481761048
600,744.3395779279529
601,744.3501664015804
602,744.3613157875973
603,744.3730259748661
604,744.385294602727
605,744.3981171287221
606,744.4114869104278
607,744.4253952998862
608,744.4398317490268
609,744.4547839244013
610,744.4702378295617
611,744.4861779335008
612,744.5025873037175
613,744.5194477426188
614,744.5367399260919
615,744.5544435431864
616,744.5725374359638
617,744.5909997386949
618,744.6098080157021
619,744.6289393972096
620,744.6483707125884
621,744.6680786203965
622,744.6880397346544
623,744.7082307468326
624,744.7286285429547
625,744.7492103150165
626,744.7699536657209
627,744.7908367054807
628,744.8118381407684
629,744.8329373530593
630,744.8541144677582
631,744.8753504126392
632,744.896626965526
633,744.9179267911917
634,744.9392334676978
635,744.9605315025826
636,744.9818063394493
637,745.0030443556462
638,745.0242328518985
639,745.0453600349207
640,745.0664149941618
641,745.087387673912
642,745.1082688420001
643,745.12905005623
644,745.1497236295592
645,745.1702825949025
646,745.1907206703626
647,745.2110322256477
648,745.2312122503433
649,745.2512563245655
650,745.2711605923895
651,745.2909217383693
652,745.3105369674324
653,745.3300039884202
654,745.3493210015329
655,745.3684866899016
656,745.3875002154082
657,745.4063612187053
658,745.4250698232352
659,745.4436266429736
660,745.4620327936434
661,745.4802899071435
662,745.4984001488956
663,745.516366237718
664,745.5341914677721
665,745.5518797321167
666,745.5694355474416
667,745.5868640795354
668,745.6041711689065
669,745.6213633557605
670,745.6384479033712
671,745.6554328188137
672,745.6723268700339
673,745.6891395982551
674,745.705881324734
675,745.7225631508948
676,745.7391969508916
677,745.7557953557073
678,745.7723717280118
679,745.7889401272009
680,745.8055152642783
681,745.8221124465034
682,745.8387475119997
683,745.8554367547972
684,745.8721968410774
685,745.8890447176223
686,745.9059975136155
687,745.9230724369994
688,745.9402866665968
689,745.9576572412311
690,745.9752009471187
691,745.9929342048174
692,746.010872956955
693,746.029032557812
694,746.0474276656508
695,746.0660721384796
696,746.08497893375
697,746.1041600123368
698,746.1236262470605
699,746.1433873360255
700,746.1634517211977
701,746.1838265128986
702,746.2045174211395
703,746.2255286948434
704,746.246863069964
705,746.2685217273275
706,746.2905042607362
707,746.3128086555644
708,746.3354312778417
709,746.3583668736617
710,746.3816085786704
711,746.4051479373501
712,746.4289749317961
713,746.4530780196469
714,746.4774441807331
715,746.502058971879
716,746.5269065892036
717,746.5519699372585
718,746.5772307043342
719,746.6026694431514
720,746.6282656559653
721,746.6539978829337
722,746.6798437925164
723,746.7057802726603
724,746.731783521583
725,746.7578291370895
726,746.7838922035305
727,746.8099473756912
728,746.8359689590608
729,746.8619309861482
730,746.8878072887836
731,746.9135715665994
732,746.9391974520487
733,746.9646585723896
734,746.9899286090791
735,747.0149813550189
736,747.0397907700459
737,747.0643310349243
738,747.0885766038854
739,747.112502255617
740,747.1360831425944
741,747.1592948387413
742,747.1821133855326
743,747.2045153367694
744,747.2264778023311
745,747.2479784912257
746,747.268995754195
747,747.2895086260198
748,747.309496867567
749,747.3289410075691
750,747.3478223841194
751,747.3661231858194
752,747.3838264923877
753,747.4009163142898
754,747.4173776307381
755,747.4331964253628
756,747.448359719038
757,747.4628555995897
758,747.4766732482809
759,747.4898029630342
760,747.5022361784104
761,747.5139654824669
762,747.5249846308018
763,747.5352885583055
764,747.544873389336
765,747.5537364471332
766,747.5618762632672
767,747.5692925877853
768,747.5759864005668
769,747.581959924225
770,747.5872166386891
771,747.5917612973303
772,747.5955999442144
773,747.598739931808
774,747.6011899382477
775,747.602959983137
776,747.6040614408001
777,747.6045070500263
778,747.604310919558
779,747.6034885287954
780,747.6020567232814
781,747.6000337044383
782,747.5974390128437
783,747.5942935041713
784,747.5906193168804
785,747.5864398308232
786,747.5817796160992
787,747.5766643716513
788,747.5711208532589
789,747.5651767907038
790,747.5588607939657
791,747.5522022483669
792,747.5452311987283
793,747.5379782227985
794,747.5304742944619
795,747.5227506374669
796,747.5148385706736
797,747.5067693460779
798,747.4985739810953
799,747.490283086758
800,747.4819266935692
801,747.4735340768358
802,747.4651335833928
803,747.4567524617344
804,747.4484166976387
805,747.4401508574243
806,747.4319779409993
807,747.4239192468397
808,747.4159942509074
809,747.4082205012502
810,747.4006135296081
811,747.3931867808617
812,747.3859515606694
813,747.3789170012134
814,747.3720900446116
815,747.3654754433034
816,747.3590757765921
817,747.3528914824984
818,747.3469209041073
819,747.3411603496558
820,747.3356041656716
821,747.3302448224924
822,747.3250730114275
823,747.3200777526904
824,747.315246513055
825,747.3105653320009
826,747.3060189549093
827,747.3015909717002
828,747.2972639592299
829,747.2930196258312
830,747.2888389565493
831,747.284702357806
832,747.2805898003577
833,747.2764809594873
834,747.2723553514442
835,747.2681924652376
836,747.2639718890205
837,747.2596734304146
838,747.2552772302432
839,747.2507638692441
840,747.2461144674379
841,747.2413107758556
842,747.236335260257
843,747.231171176318
844,747.225802635629
845,747.2202146617758
846,747.21439323575
847,747.2083253299355
848,747.2019989299603
849,747.1954030437984
850,747.1885276976585
851,747.181363918386
852,747.1739037023567
853,747.1661399711656
854,747.1580665148
855,747.1496779234144
856,747.1409695092291
857,747.1319372203915
858,747.1225775488193
859,747.1128874340327
860,747.1028641647911
861,747.0925052800184
862,747.0818084701295
863,747.0707714795464
864,747.059392010959
865,747.0476676317677
866,747.0355956831172
867,747.0231731919796
868,747.0103967868002
869,746.9972626172226
870,746.9837662783376
871,746.9699027397855
872,746.9556662799255
873,746.9410504252039
874,746.9260478948243
875,746.91065055082
876,746.8948493536133
877,746.878634323012
878,746.8619945043984
879,746.8449179397059
880,746.8273916427684
881,746.8094015787041
882,746.7909326470785
883,746.7719686686527
884,746.752492375588
885,746.7324854050713
886,746.711928296458
887,746.6908004922406
888,746.6690803433727
889,746.6467451196153
890,746.6237710255774
891,746.6001332230345
892,746.5758058599679
893,746.5507621066454
894,746.5249741989879
895,746.4984134894315
896,746.4710505054644
897,746.4428550159904
898,746.4137961056354
899,746.3838422570517
900,746.3529614411743
901,746.3211212152581
902,746.2882888283989
903,746.254431334098
904,746.219515709302
905,746.1835089792866
906,746.1463783477636
907,746.1080913316353
908,746.0686158998093
909,746.0279206154498
910,745.985974780992
911,745.9427485852528
912,745.8982132519973
913,745.8523411893406
914,745.8051061393819
915,745.756483327491
916,745.7064496107039
917,745.6549836247142
