frame_number,force
0,737.8752230742232
1,737.8395006498845
2,737.8042075668303
3,737.7693568402237
4,737.7349614845721
5,737.7010345340537
6,737.667589054299
7,737.6346381447188
8,737.6021949308101
9,737.5702725462968
10,737.538884105426
11,737.5080426661118
12,737.4777611848082
13,737.4480524640283
14,737.4189290934453
15,737.3904033856157
16,737.3624873075105
17,737.3351924090857
18,737.3085297500315
19,737.2825098257216
20,737.2571424934137
21,737.2324368999555
22,737.2084014125134
23,737.1850435539794
24,737.1623699446056
25,737.1403862510564
26,737.1190971435973
27,737.0985062617195
28,737.0786161882835
29,737.0594284322729
30,737.0409434203215
31,737.0231604971275
32,737.0060779346594
33,736.9896929497877
34,736.9740017297815
35,736.9589994650189
36,736.9446803882255
37,736.9310378195281
38,736.9180642165906
39,736.9057512291037
40,736.8940897569156
41,736.8830700110489
42,736.872681576765
43,736.8629134777899
44,736.8537542408883
45,736.8451919601463
46,736.8372143604628
47,736.8298088598035
48,736.8229626297812
49,736.8166626541661
50,736.8108957850277
51,736.805648796319
52,736.8009084347972
53,736.7966614681886
54,736.7928947304513
55,736.7895951638994
56,736.7867498578985
57,736.7843460838232
58,736.7823713260162
59,736.7808133086065
60,736.7796600182767
61,736.778899723351
62,736.7785209898099
63,736.7785126949781
64,736.7788640397048
65,736.7795645598746
66,736.780604138021
67,736.78197301564
68,736.7836618065588
69,736.785661511461
70,736.7879635334941
71,736.7905596948068
72,736.7934422538658
73,736.7966039234685
74,736.8000378894494
75,736.8037378301391
76,736.8076979366203
77,736.8119129337474
78,736.8163781018092
79,736.8210892986766
80,736.8260429822378
81,736.831236232839
82,736.8366667752994
83,736.8423329998385
84,736.8482339809631
85,736.8543694930528
86,736.8607400212069
87,736.8673467659171
88,736.8741916403163
89,736.8812772590869
90,736.8886069185309
91,736.8961845676987
92,736.9040147707564
93,736.9121026609788
94,736.9204538869833
95,736.9290745520796
96,736.937971147901
97,736.9471504837651
98,736.9566196134467
99,736.9663857611697
100,736.9764562485884
101,736.9868384243584
102,736.9975395976406
103,737.0085669766228
104,737.0199276129564
105,737.0316283529158
106,737.0436757960198
107,737.0560762617292
108,737.068835764619
109,737.0819599981472
110,737.0954543268499
111,737.1093237864894
112,737.123573091387
113,737.1382066479721
114,737.1532285735286
115,737.1686427191785
116,737.1844526962018
117,737.2006619047883
118,737.2172735642429
119,737.2342907435335
120,737.2517163908917
121,737.2695533610695
122,737.287804438921
123,737.3064723582438
124,737.3255598152311
125,737.3450694763976
126,737.3650039813559
127,737.3853659412308
128,737.4061579337863
129,737.4273824965619
130,737.4490421195129
131,737.4711392388218
132,737.4936762336333
133,737.5166554273746
134,737.5400790949799
135,737.5639494767794
136,737.5882687991938
137,737.6130393018318
138,737.6382632702132
139,737.6639430731367
140,737.6900812036648
141,737.7166803227209
142,737.7437433042661
143,737.7712732808984
144,737.7992736885654
145,737.8277483090084
146,737.8567013085902
147,737.8861372722463
148,737.9160612313442
149,737.9464786842325
150,737.9773956082213
151,738.0088184617321
152,738.040754175376
153,738.0732101308087
154,738.106194126439
155,738.13971432948
156,738.1737792143244
157,738.2083974876932
158,738.2435780013226
159,738.2793296531528
160,738.3156612780814
161,738.3525815294583
162,738.3900987526932
163,738.4282208526364
164,738.4669551566639
165,738.5063082755161
166,738.5462859638578
167,738.586892982254
168,738.6281329618715
169,738.6700082728775
170,738.7125198973501
171,738.7556673075744
172,738.7994483507464
173,738.8438591412624
174,738.8888939618677
175,738.9345451749938
176,738.9808031456143
177,739.0276561768434
178,739.0750904592938
179,739.1230900349785
180,739.1716367763818
181,739.2207103812718
182,739.2702883837763
183,739.3203461821407
184,739.3708570834036
185,739.4217923649767
186,739.4731213528571
187,739.5248115159836
188,739.5768285760545
189,739.629136631925
190,739.6816982974485
191,739.7344748513294
192,739.7874263973033
193,739.8405120328044
194,739.8936900242616
195,739.9469179871955
196,740.0001530692851
197,740.0533521344952
198,740.1064719463136
199,740.1594693481877
200,740.2123014393901
201,740.264925744732
202,740.3173003767273
203,740.3693841889955
204,740.4211369199166
205,740.4725193258895
206,740.5234933039353
207,740.5740220037175
208,740.6240699291525
209,740.6736030296559
210,740.7225887808195
211,740.7709962541645
212,740.8187961756875
213,740.8659609731841
214,740.9124648127076
215,740.9582836249458
216,741.0033951227384
217,741.0477788113042
218,741.0914159929084
219,741.1342897676483
220,741.1763850317698
221,741.2176884745176
222,741.2581885740497
223,741.297875592545
224,741.336741570345
225,741.3747803187662
226,741.4119874110655
227,741.4483601709428
228,741.4838976579493
229,741.5186006492393
230,741.55247161721
231,741.5855147027332
232,741.6177356838687
233,741.6491419401648
234,741.6797424128129
235,741.7095475610118
236,741.7385693149879
237,741.7668210262572
238,741.7943174159233
239,741.8210745219542
240,741.8471096463837
241,741.8724413031979
242,741.8970891673604
243,741.9210740251121
244,741.9444177254021
245,741.9671431320459
246,741.9892740759741
247,742.0108353067476
248,742.0318524423758
249,742.0523519163393
250,742.072360920586
251,742.0919073431999
252,742.1110196994921
253,742.129727055419
254,742.148058942445
255,742.1660452632489
256,742.183716188031
257,742.201102041575
258,742.2182331815854
259,742.2351398691251
260,742.2518521322089
261,742.268399623765
262,742.2848114752647
263,742.3011161473681
264,742.3173412789829
265,742.3335135362091
266,742.3496584627317
267,742.3658003332527
268,742.3819620114957
269,742.3981648141712
270,742.4144283820856
271,742.4307705592682
272,742.4472072806111
273,742.4637524682369
274,742.480417936738
275,742.4972133075413
276,742.5141459328106
277,742.5312208293924
278,742.5484406232786
279,742.5658055049283
280,742.5833131955901
281,742.6009589245319
282,742.6187354168844
283,742.6366328916688
284,742.6546390695314
285,742.6727391897491
286,742.6909160362468
287,742.7091499726372
288,742.7274189865107
289,742.7456987432835
290,742.7639626499115
291,742.7821819288068
292,742.8003257023847
293,742.8183610887384
294,742.83625330888
295,742.8539658058071
296,742.8714603754271
297,742.888697309173
298,742.9056355479989
299,742.9222328474084
300,742.9384459531988
301,742.9542307875595
302,742.9695426449904
303,742.984336397299
304,742.9985667067709
305,743.0121882465066
306,743.0251559268592
307,743.0374251268559
308,743.048951929363
309,743.0596933585464
310,743.0696076179547
311,743.0786543273888
312,743.0867947566356
313,743.0939920541456
314,743.100211468803
315,743.1054205630996
316,743.1095894162456
317,743.1126908159988
318,743.1147004381739
319,743.1155970128784
320,743.115362476559
321,743.1139821089802
322,743.11144465426
323,743.1077424250309
324,743.1028713887168
325,743.0968312348839
326,743.0896254226503
327,743.0812612072589
328,743.0717496451703
329,743.0611055774602
330,743.0493475918123
331,743.0364979638518
332,743.0225825788752
333,743.0076308352349
334,742.9916755308091
335,742.9747527340995
336,742.9569016414925
337,742.9381644220441
338,742.9185860508613
339,742.8982141318836
340,742.8770987107541
341,742.8552920785005
342,742.8328485668055
343,742.8098243356673
344,742.786277154272
345,742.7622661760571
346,742.7378517092474
347,742.7130949844983
348,742.6880579215193
349,742.6628028966494
350,742.6373925133465
351,742.611889377475
352,742.5863558791482
353,742.5608539827385
354,742.5354450265974
355,742.5101895340495
356,742.4851470372432
357,742.4603759153434
358,742.435933248354
359,742.4118746876278
360,742.3882543438715
361,742.3651246931269
362,742.3425365007931
363,742.3205387633243
364,742.2991786668708
365,742.2785015618566
366,742.2585509522917
367,742.2393684985343
368,742.2209940322048
369,742.2034655819203
370,742.1868194083435
371,742.171090046722
372,742.1563103547961
373,742.1425115638044
374,742.129723330398
375,742.1179737874667
376,742.107289592128
377,742.0976959693875
378,742.0892167503072
379,742.081874403904
380,742.0756900623296
381,742.0706835390553
382,742.066873339783
383,742.0642766657454
384,742.0629094090805
385,742.0627861401708
386,742.0639200871996
387,742.0663231085758
388,742.0700056591888
389,742.0749767516088
390,742.081243913368
391,742.0888131413415
392,742.0976888540357
393,742.1078738423458
394,742.1193692191398
395,742.1321743679115
396,742.1462868907046
397,742.1617025554934
398,742.1784152432002
399,742.1964168945793
400,742.2156974573745
401,742.2362448344172
402,742.2580448335948
403,742.2810811208182
404,742.305335177223
405,742.3307862617968
406,742.3574113804517
407,742.3851852623636
408,742.4140803442813
409,742.444066763501
410,742.4751123602165
411,742.5071826899006
412,742.5402410462227
413,742.5742484947543
414,742.6091639174317
415,742.6449440675262
416,742.6815436347915
417,742.7189153205383
418,742.7570099225543
419,742.7957764298881
420,742.8351621274608
421,742.8751127102756
422,742.9155724067443
423,742.9564841104049
424,742.997789519114
425,743.0394292806938
426,743.081343144028
427,743.1234701147214
428,743.1657486145681
429,743.2081166441704
430,743.250511948073
431,743.2928721817161
432,743.335135079375
433,743.3772386221049
434,743.4191212046117
435,743.4607217999416
436,743.5019801209158
437,743.5428367773499
438,743.5832334282966
439,743.6231129288209
440,743.662419471036
441,743.701098719242
442,743.7390979389849
443,743.7763661197667
444,743.8128540911007
445,743.8485146316016
446,743.8833025708058
447,743.9171748833564
448,743.9500907750877
449,743.9820117604257
450,744.0129017304619
451,744.0427270111559
452,744.0714564114252
453,744.0990612612401
454,744.1255154401225
455,744.1507953966085
456,744.1748801593633
457,744.1977513407684
458,744.2193931339363
459,744.2397923042182
460,744.2589381763253
461,744.2768226181387
462,744.2934400221363
463,744.3087872851756
464,744.3228637871962
465,744.3356713692118
466,744.347214310741
467,744.3574993066235
468,744.3665354430207
469,744.374334172324
470,744.3809092866815
471,744.3862768899253
472,744.3904553678057
473,744.3934653565615
474,744.3953297099274
475,744.3960734646415
476,744.3957238043793
477,744.3943100218636
478,744.391863478745
479,744.3884175626947
480,744.3840076410257
481,744.3786710100917
482,744.3724468397531
483,744.3653761123136
484,744.357501555434
485,744.3488675685801
486,744.3395201425334
487,744.3295067714417
488,744.3188763568276
489,744.3076791029781
490,744.2959664032434
491,744.2837907169709
492,744.2712054370643
493,744.2582647484015
494,744.2450234775205
495,744.231536934048
496,744.2178607443099
497,744.2040506774766
498,744.1901624645791
499,744.1762516108499
500,744.1623732021023
501,744.1485817061916
502,744.1349307709329
503,744.1214730201143
504,744.1082598493916
505,744.0953412238673
506,744.0827654790559
507,744.0705791267202
508,744.0588266667542
509,744.0475504059743
510,744.0367902845093
511,744.0265837105067
512,744.016965403983
513,744.0079672506776
514,743.9996181667562
515,743.9919439752407
516,743.9849672951481
517,743.9787074444414
518,743.9731803579419
519,743.968398521324
520,743.9643709222134
521,743.9611030192366
522,743.9585967296335
523,743.9568504357738
524,743.9558590106817
525,743.9556138625236
526,743.9561029979388
527,743.9573111040447
528,743.9592196488944
529,743.9618070001092
530,743.9650485613234
531,743.9689169259387
532,743.9733820474931
533,743.9784114257993
534,743.9839703079198
535,743.9900219029573
536,743.9965276094262
537,744.0034472536536
538,744.0107393373939
539,744.0183612927314
540,744.0262697424032
541,744.0344207638167
542,744.0427701552094
543,744.0512737025631
544,744.0598874459632
545,744.0685679441275
546,744.0772725358468
547,744.0859595971028
548,744.0945887925659
549,744.103121320028
550,744.1115201461408
551,744.1197502316581
552,744.1277787442622
553,744.135575256992
554,744.1431119303462
555,744.1503636763762
556,744.1573083035423
557,744.1639266416813
558,744.170202646925
559,744.1761234866866
560,744.1816796048686
561,744.1868647673389
562,744.1916760875819
563,744.1961140323339
564,744.2001824070543
565,744.203888321305
566,744.2072421344274
567,744.2102573821219
568,744.2129506845364
569,744.2153416363275
570,744.2174526790803
571,744.2193089565624
572,744.2209381535255
573,744.2223703190099
574,744.2236376751954
575,744.2247744127651
576,744.2258164736065
577,744.2268013216218
578,744.2277677025419
579,744.2287553939381
580,744.2298049469936
581,744.2309574218763
582,744.2322541186667
583,744.2337363058373
584,744.2354449483848
585,744.2374204378772
586,744.23970232677
587,744.2423290693113
588,744.2453377712342
589,744.2487639503343
590,744.2526413099453
591,744.257001527263
592,744.2618740583791
593,744.2672859617685
594,744.273261741842
595,744.2798232140526
596,744.2869893929116
597,744.2947764040508
598,744.3031974211113
599,744.3122626277903
600,744.3219792049423
601,744.332351342292
602,744.3433802740573
603,744.3550643374937
604,744.3673990530137
605,744.3803772241936
606,744.3939890557431
607,744.4082222873625
608,744.4230623412802
609,744.4384924811771
610,744.4544939802195
611,744.471046296051
612,744.4881272507965
613,744.5057132143372
614,744.523779289292
615,744.5422994962889
616,744.5612469582738
617,744.58059408278
618,744.6003127412437
619,744.6203744445484
620,744.6407505140126
621,744.6614122470594
622,744.6823310768673
623,744.7034787253498
624,744.7248273487164
625,744.7463496745947
626,744.7680191294173
627,744.7898099547198
628,744.8116973111634
629,744.8336573693308
630,744.8556673865379
631,744.8777057690968
632,744.8997521197354
633,744.921787270217
634,744.9437932995393
635,744.9657535383453
636,744.9876525603725
637,745.0094761619541
638,745.0312113308211
639,745.0528462056711
640,745.0743700281503
641,745.0957730889837
642,745.1170466699982
643,745.1381829836592
644,745.1591751115528
645,745.180016943064
646,745.2007031154018
647,745.2212289560528
648,745.2415904286156
649,745.2617840827787
650,745.2818070090136
651,745.3016567984486
652,745.321331508338
653,745.3408296335228
654,745.3601500842567
655,745.3792921707176
656,745.3982555943855
657,745.4170404462321
658,745.4356472114486
659,745.4540767803454
660,745.4723304650697
661,745.4904100217914
662,745.5083176779386
663,745.5260561639391
664,745.5436287488279
665,745.56103927907
666,745.5782922199844
667,745.5953926991391
668,745.6123465508891
669,745.6291603609399
670,745.6458415095818
671,745.6623982121488
672,745.6788395552571
673,745.6951755274148
674,745.7114170426057
675,745.7275759554707
676,745.7436650667355
677,745.7596981176121
678,745.7756897720566
679,745.7916555860336
680,745.8076119632652
681,745.8235760972979
682,745.8395659000838
683,745.855599917666
684,745.8716972339448
685,745.8878773638277
686,745.9041601372636
687,745.9205655757363
688,745.9371137628038
689,745.9538247102993
690,745.9707182218641
691,745.9878137555071
692,746.0051302867905
693,746.0226861740534
694,746.0404990268248
695,746.0585855783089
696,746.0769615625692
697,746.0956415968305
698,746.1146390692045
699,746.1339660321615
700,746.1536331022829
701,746.1736493671724
702,746.1940223007491
703,746.2147576883144
704,746.2358595627381
705,746.2573301528628
706,746.2791698448337
707,746.3013771566517
708,746.323948725919
709,746.3468793105483
710,746.3701618020891
711,746.3937872512764
712,746.4177449053896
713,746.4420222569602
714,746.4666051032438
715,746.4914776156917
716,746.5166224185474
717,746.5420206756851
718,746.5676521847962
719,746.5934954778857
720,746.6195279267791
721,746.6457258521102
722,746.6720646341375
723,746.6985188237384
724,746.7250622519991
725,746.7516681369965
726,746.7783091866033
727,746.8049576963986
728,746.8315856419867
729,746.8581647653283
730,746.8846666550552
731,746.9110628210989
732,746.9373247641806
733,746.9634240408112
734,746.9893323244714
735,747.0150214636428
736,747.0404635372919
737,747.0656309082202
738,747.0904962744169
739,747.1150327183419
740,747.1392137540614
741,747.1630133722841
742,747.1864060835197
743,747.2093669597344
744,747.2318716749859
745,747.253896545537
746,747.2754185698601
747,747.2964154687871
748,747.3168657259209
749,747.3367486283512
750,747.3560443076987
751,747.3747337814596
752,747.3927989944297
753,747.4102228596588
754,747.4269892980815
755,747.4430832759141
756,747.4584908391461
757,747.4731991447875
758,747.4871964887548
759,747.5004723303704
760,747.5130173135184
761,747.5248232846459
762,747.5358833080388
763,747.5461916790968
764,747.5557439365876
765,747.5645368750007
766,747.5725685580779
767,747.579838334428
768,747.586346855906
769,747.5920960992095
770,747.5970893908554
771,747.6013314353308
772,747.6048283458239
773,747.6075876765872
774,747.6096184556881
775,747.610931216696
776,747.6115380278075
777,747.6114525170489
778,747.6106898924928
779,747.6092669567208
780,747.6072021148857
781,747.6045153756021
782,747.6012283436357
783,747.5973642031407
784,747.5929476901367
785,747.5880050530322
786,747.5825640002153
787,747.57665363396
788,747.5703043701124
789,747.5635478431885
790,747.556416796621
791,747.5489449579844
792,747.5411668992147
793,747.5331178821199
794,747.5248336898075
795,747.5163504449793
796,747.5077044163975
797,747.4989318151763
798,747.4900685828707
799,747.4811501735611
800,747.472211332266
801,747.4632858721152
802,747.4544064528511
803,747.4456043633663
804,747.4369093110839
805,747.4283492210652
806,747.419950047761
807,747.4117356022944
808,747.4037273979973
809,747.3959445165567
810,747.3884034965655
811,747.3811182456043
812,747.3740999763268
813,747.3673571664322
814,747.3608955419263
815,747.3547180827322
816,747.3488250495468
817,747.3432140308051
818,747.337880008656
819,747.3328154429432
820,747.3280103722793
821,747.323452531327
822,747.3191274833148
823,747.3150187666323
824,747.3111080541182
825,747.3073753233941
826,747.3037990363267
827,747.3003563254689
828,747.2970231852299
829,747.2937746656179
830,747.290585066627
831,747.2874281315907
832,747.2842772379994
833,747.2811055843911
834,747.2778863720112
835,747.2745929800741
836,747.2711991336266
837,747.2676790631762
838,747.2640076553954
839,747.2601605943631
840,747.2561144929315
841,747.251847013855
842,747.247336980208
843,747.2425644744069
844,747.2375109249648
845,747.2321591800068
846,747.2264935665318
847,747.2204999344082
848,747.214165684142
849,747.2074797775842
850,747.200432730942
851,747.1930165897192
852,747.1852248855485
853,747.1770525753129
854,747.1684959634844
855,747.1595526091818
856,747.1502212199996
857,747.1405015350892
858,747.1303942002137
859,747.1199006374811
860,747.1090229121934
861,747.0977635987925
862,747.0861256473795
863,747.0741122518298
864,747.0617267202183
865,747.0489723480927
866,747.0358522951034
867,747.0223694655599
868,747.0085263935579
869,746.9943251333265
870,746.9797671553471
871,746.9648532486368
872,746.9495834294323
873,746.933956856401
874,746.9179717524652
875,746.9016253333299
876,746.8849137427744
877,746.8678319946008
878,746.8503739208556
879,746.832532125737
880,746.8142979445815
881,746.7956614074391
882,746.7766112068564
883,746.7571346695818
884,746.737217731997
885,746.71684491921
886,746.6959993279354
887,746.6746626135775
888,746.6528149822378
889,746.6304351885663
890,746.6075005403885
891,746.5839869109197
892,746.5598687591979
893,746.5351191592016
894,746.5097098380229
895,746.4836112234242
896,746.4567925010706
897,746.4292216816963
898,746.4008656784245
899,746.3716903943803
900,746.3416608206006
901,746.310741144085
902,746.2788948656571
903,746.2460849271195
904,746.2122738470147
905,746.1774238642197
906,746.1414970886237
907,746.1044556581958
908,746.0662619017462
909,746.0268785066266
910,745.9862686905578
911,745.944396376778
912,745.9012263717417
913,745.8567245446322
914,745.8108580079664
915,745.7635952986079
916,745.7149065585522
917,745.6647637148835
