frame_number,force
0,534.3813100045862
1,534.5552746924459
2,534.7288296865569
3,534.9015676618915
4,535.0730859984407
5,535.2429890548106
6,535.4108903523365
7,535.5764146471976
8,535.7391998728133
9,535.8988989397088
10,536.055181384369
11,536.2077348619653
12,536.3562664801642
13,536.5005039725046
14,536.6401967102051
15,536.7751165513054
16,536.9050585264408
17,537.0298413615166
18,537.1493078387833
19,537.2633249990262
20,537.3717841886614
21,537.474600956745
22,537.5717148086751
23,537.6630888258956
24,537.7487091635575
25,537.8285844396767
26,537.9027450291143
27,537.9712422740798
28,538.034147620849
29,538.0915516908285
30,538.1435632933518
31,538.1903083875935
32,538.2319290012742
33,538.2685821137723
34,538.3004385107209
35,538.3276816166193
36,538.3505063119053
37,538.3691177412326
38,538.3837301196432
39,538.3945655423029
40,538.4018528016021
41,538.4058262135302
42,538.4067244539144
43,538.4047894044876
44,538.4002650087392
45,538.3933961382261
46,538.3844274715209
47,538.3736023901868
48,538.361161898604
49,538.347343576109
50,538.3323805697653
51,538.3165006342383
52,538.2999252226371
53,538.2828686298527
54,538.2655371885298
55,538.2481285175345
56,538.2308308232472
57,538.2138222545057
58,538.1972703121928
59,538.1813313144627
60,538.1661499185886
61,538.1518587003245
62,538.1385777914538
63,538.1264145758806
64,538.1154634441815
65,538.1058056061063
66,538.0975089604347
67,538.0906280220601
68,538.0852039069764
69,538.081264376733
70,538.0788239447384
71,538.0778840472274
72,538.0784332814598
73,538.0804477128785
74,538.0838912517846
75,538.088716098898
76,538.0948632583824
77,538.1022631167097
78,538.1108360855982
79,538.1204933065023
80,538.1311374129526
81,538.1426633464949
82,538.1549592225639
83,538.1679072434948
84,538.1813846558131
85,538.1952647476822
86,538.2094178807167
87,538.2237125491275
88,538.2380164585727
89,538.2521976164617
90,538.2661254239473
91,538.2796717576896
92,538.2927120280655
93,538.3051262007465
94,538.316799769855
95,538.3276246721583
96,538.3375001327823
97,538.3463334341614
98,538.3540406013773
99,538.3605469980631
100,538.3657878273305
101,538.3697085323884
102,538.3722650926782
103,538.3734242136107
104,538.3731634104543
105,538.3714709887433
106,538.3683459246663
107,538.3637976495701
108,538.3578457432437
109,538.350519540987
110,538.3418576595105
111,538.331907446489
112,538.3207243584338
113,538.3083712719301
114,538.2949177345477
115,538.2804391639871
116,538.2650160068198
117,538.2487328706139
118,538.2316776444295
119,538.2139406222342
120,538.1956136420359
121,538.176789251047
122,538.1575599045443
123,538.138017203743
124,538.1182511763425
125,538.0983496025522
126,538.078397389148
127,538.0584759941377
128,538.0386629046187
129,538.0190311701982
130,537.9996489939163
131,537.9805793822163
132,537.9618798553029
133,537.9436022191206
134,537.9257923999654
135,537.9084903422801
136,537.8917299695405
137,537.8755392073355
138,537.8599400668589
139,537.8449487860464
140,537.8305760244243
141,537.816827106574
142,537.8037023084438
143,537.7911971808614
144,537.7793029052618
145,537.768006677325
146,537.7572921145452
147,537.7471396836779
148,537.7375271436593
149,537.7284299988445
150,537.7198219560707
151,537.7116753774328
152,537.7039617197664
153,537.696651952546
154,537.6897169480818
155,537.6831278404366
156,537.6768563510134
157,537.6708750788083
158,537.6651577525554
159,537.6596794415769
160,537.6544167222683
161,537.649347797049
162,537.6444525621903
163,537.6397126214331
164,537.6351112448774
165,537.6306332767863
166,537.6262650000837
167,537.6219939678648
168,537.6178088126057
169,537.6136990424271
170,537.6096548317415
171,537.6056668118056
172,537.6017258655513
173,537.5978229304053
174,537.5939488120346
175,537.590094010777
176,537.586248561047
177,537.5824018826995
178,537.5785426426792
179,537.5746586254047
180,537.5707366108018
181,537.5667622591702
182,537.5627200021671
183,537.5585929395089
184,537.5543627417234
185,537.5500095599728
186,537.5455119440044
187,537.5408467685462
188,537.5359891674573
189,537.5309124742672
190,537.5255881677398
191,537.5199858217472
192,537.5140730597508
193,537.5078155151762
194,537.5011767999006
195,537.4941184843008
196,537.4866000941355
197,537.4785791315253
198,537.4700111283956
199,537.46084974034
200,537.4510468874074
201,537.44055294669
202,537.4293169999997
203,537.4172871380911
204,537.4044108207207
205,537.3906352895491
206,537.3759080287552
207,537.3601772666036
208,537.3433925103136
209,537.3255051062669
210,537.3064688175191
211,537.2862404107036
212,537.264780244953
213,537.2420528563484
214,537.2180275320294
215,537.1926788678895
216,537.1659873028876
217,537.137939622005
218,537.1085294191328
219,537.077757510802
220,537.0456322919581
221,537.0121700261411
222,536.9773950642132
223,536.9413399878268
224,536.9040456759186
225,536.8655612941135
226,536.8259442076034
227,536.7852598183493
228,536.7435813284017
229,536.7009894328654
230,536.6575719477182
231,536.6134233786184
232,536.5686444371953
233,536.5233415117501
234,536.4776261003145
235,536.4316142153918
236,536.3854257706694
237,536.3391839598912
238,536.2930146367573
239,536.2470457023265
240,536.2014065034548
241,536.156227243076
242,536.1116384011356
243,536.0677701637206
244,536.0247518571957
245,535.9827113838131
246,535.9417746553946
247,535.9020650225145
248,535.863702698173
249,535.8268041766316
250,535.7914816492582
251,535.7578424200246
252,535.7259883243995
253,535.6960151571519
254,535.6680121166652
255,535.6420612750267
256,535.6182370838831
257,535.5966059258137
258,535.5772257200219
259,535.5601455895873
260,535.5454055955105
261,535.5330365407318
262,535.5230598455703
263,535.5154874944018
264,535.5103220514846
265,535.5075567419415
266,535.5071755926971
267,535.5091536278655
268,535.5134571133052
269,535.5200438455099
270,535.528863480671
271,535.5398579005296
272,535.5529616122664
273,535.5681021799488
274,535.5852006848681
275,535.6041722114586
276,535.6249263546913
277,535.6473677444212
278,535.6713965823338
279,535.6969091876201
280,535.7237985481711
281,535.7519548749727
282,535.7812661582905
283,535.8116187248169
284,535.8428977951343
285,535.8749880407079
286,535.9077741391274
287,535.941141325499
288,535.9749759371406
289,536.0091659484272
290,536.0436014925267
291,536.0781753662862
292,536.1127835137589
293,536.1473254835568
294,536.1817048558255
295,536.2158296358211
296,536.2496126122344
297,536.2829716791682
298,536.3158301206644
299,536.3481168559505
300,536.3797666429597
301,536.4107202379149
302,536.4409245096757
303,536.4703325085827
304,536.4989034905799
305,536.5266028985586
306,536.5534023039452
307,536.5792793121261
308,536.6042174352639
309,536.628205935799
310,536.6512396441013
311,536.6733187545894
312,536.6944486057238
313,536.7146394497952
314,536.7339062179447
315,536.7522682846277
316,536.7697492343168
317,536.7863766318567
318,536.8021817965125
319,536.8171995784229
320,536.8314681350109
321,536.8450287039981
322,536.8579253691873
323,536.870204815392
324,536.8819160696415
325,536.8931102266247
326,536.9038401569564
327,536.9141601973987
328,536.9241258226359
329,536.9337932984222
330,536.9432193157976
331,536.9524606058383
332,536.9615735344762
333,536.9706136777971
334,536.9796353801728
335,536.9886913003219
336,536.9978319532011
337,537.0071052577465
338,537.016556101302
339,537.0262259307922
340,537.0361523786436
341,537.0463689288923
342,537.0569046267167
343,537.0677838334312
344,537.0790260292013
345,537.0906456671175
346,537.1026520836969
347,537.1150494710739
348,537.1278369147908
349,537.1410084988668
350,537.1545534778176
351,537.1684565142075
352,537.1826979800295
353,537.1972543198461
354,537.2120984724506
355,537.2272003460188
356,537.2425273400288
357,537.2580449058441
358,537.273717136593
359,537.2895073760127
360,537.3053788358422
361,537.32129521225
362,537.3372212929464
363,537.3531235471906
364,537.3689706908355
365,537.3847342187149
366,537.400388897668
367,537.4159132148912
368,537.43128977743
369,537.4465056596438
370,537.4615526969146
371,537.4764277255115
372,537.4911327697189
373,537.5056751776963
374,537.5200677070131
375,537.5343285596593
376,537.5484813648504
377,537.5625551064203
378,537.5765839905882
379,537.5906072500974
380,537.6046688822424
381,537.6188173203711
382,537.6331050400776
383,537.647588102049
384,537.6623256337236
385,537.677379252439
386,537.6928124341903
387,537.7086898341602
388,537.7250765670668
389,537.7420374568867
390,537.7596362669238
391,537.7779349224692
392,537.7969927387784
393,537.8168656662607
394,537.8376055629436
395,537.8592595024468
396,537.8818691245657
397,537.9054700350337
398,537.9300912606717
399,537.9557547657389
400,537.982475034906
401,538.0102587278885
402,538.0391044102481
403,538.0690023640224
404,538.0999344807058
405,538.1318742377263
406,538.1647867577669
407,538.198628947997
408,538.2333497139615
409,538.2688902413585
410,538.3051843387404
411,538.3421588350218
412,538.3797340266349
413,538.417824169495
414,538.45633801061
415,538.4951793536417
416,538.5342476522856
417,538.5734386250632
418,538.6126448851574
419,538.6517565793284
420,538.6906620305804
421,538.7292483799572
422,538.7674022235848
423,538.8050102417079
424,538.8419598168491
425,538.8781396382489
426,538.9134402895105
427,538.9477548161013
428,538.9809792692414
429,539.0130132226982
430,539.0437602590439
431,539.0731284221256
432,539.1010306329531
433,539.1273850669718
434,539.1521154916003
435,539.1751515635079
436,539.196429085081
437,539.215890219329
438,539.2334836628174
439,539.249164776988
440,539.2628956787469
441,539.274645291117
442,539.2843893544834
443,539.2921103990686
444,539.2977976797985
445,539.301447075297
446,539.3030609532287
447,539.3026480046482
448,539.300223050511
449,539.2958068240935
450,539.2894257337935
451,539.2811116114744
452,539.2709014517527
453,539.2588371471277
454,539.2449652228298
455,539.2293365742337
456,539.2120062088766
457,539.1930329942094
458,539.1724794107905
459,539.1504113087126
460,539.1268976629899
461,539.1020103220059
462,539.0758237425609
463,539.0484147058881
464,539.0198620109753
465,538.9902461441582
466,538.9596489268122
467,538.928153145556
468,538.8958421710533
469,538.8627995718215
470,538.8291087287093
471,538.7948524548233
472,538.760112625351
473,538.7249698216998
474,538.6895029939814
475,538.653789145045
476,538.6179030383763
477,538.5819169313821
478,538.545900334533
479,538.5099197951924
480,538.4740387030517
481,538.4383171129539
482,538.4028115815114
483,538.3675750162606
484,538.3326565388186
485,538.2981013650352
486,538.2639507050668
487,538.230241685615
488,538.1970072963201
489,538.1642763624992
490,538.1320735464396
491,538.1004193788632
492,538.0693303209874
493,538.0388188560731
494,538.0088936079324
495,537.9795594830769
496,537.9508178330924
497,537.9226666341158
498,537.8951006807125
499,537.8681117920881
500,537.841689029409
501,537.8158189236964
502,537.7904857139928
503,537.7656715954556
504,537.7413569770124
505,537.7175207482505
506,537.6941405551696
507,537.671193084089
508,537.6486543519965
509,537.6264999997771
510,537.6047055829023
511,537.5832468537214
512,537.5621000310813
513,537.5412420556767
514,537.5206508319241
515,537.5003054582844
516,537.4801864476685
517,537.4602759383012
518,537.4405578938829
519,537.4210182905076
520,537.4016452866332
521,537.3824293713998
522,537.3633634858683
523,537.3444431116577
524,537.3256663222021
525,537.3070337932888
526,537.2885487712589
527,537.270216998727
528,537.2520465986402
529,537.2340479181586
530,537.2162333348952
531,537.1986170297472
532,537.1812147323599
533,537.1640434463567
534,537.147121161679
535,537.1304665610904
536,537.11409872748
537,537.0980368580992
538,537.0822999912583
539,537.0669067502423
540,537.0518751080401
541,537.0372221747523
542,537.0229640074749
543,537.0091154405198
544,536.9956899325476
545,536.9826994270435
546,536.9701542235771
547,536.9580628588951
548,536.9464319985609
549,536.9352663415008
550,536.9245685414274
551,536.914339150167
552,536.9045765876448
553,536.8952771414263
554,536.8864349959683
555,536.8780422891348
556,536.8700891915744
557,536.8625640031681
558,536.855453260131
559,536.8487418469682
560,536.8424131090953
561,536.8364489635924
562,536.8308300068095
563,536.8255356185847
564,536.8205440637486
565,536.8158325920474
566,536.8113775374514
567,536.8071544172419
568,536.8031380306289
569,536.7993025561459
570,536.7956216467404
571,536.7920685214251
572,536.7886160527528
573,536.7852368502779
574,536.7819033412411
575,536.7785878504865
576,536.7752626819481
577,536.7719002040312
578,536.7684729408872
579,536.7649536710098
580,536.7613155339318
581,536.757532145195
582,536.7535777193385
583,536.7494272005681
584,536.7450564009616
585,536.7404421461831
586,536.7355624285157
587,536.730396566663
588,536.7249253714064
589,536.7191313159801
590,536.712998710058
591,536.706513876414
592,536.69966532922
593,536.6924439522674
594,536.6848431745309
595,536.6768591401375
596,536.6684908701613
597,536.6597404142086
598,536.6506129897674
599,536.6411171067776
600,536.6312646746185
601,536.6210710894528
602,536.6105553011566
603,536.5997398596671
604,536.5886509400011
605,536.5773183442958
606,536.5657754791713
607,536.5540593076322
608,536.542210275783
609,536.5302722150683
610,536.5182922205845
611,536.506320505721
612,536.4944102333772
613,536.4826173241265
614,536.4710002414147
615,536.4596197528928
616,536.4485386657633
617,536.4378215332955
618,536.4275343298231
619,536.4177440924502
620,536.4085185290155
621,536.3999255931159
622,536.3920330279341
623,536.3849078815389
624,536.3786159976897
625,536.3732214878661
626,536.3687861915606
627,536.3653691321834
628,536.3630259753301
629,536.3618084955642
630,536.3617640580475
631,536.3629351220218
632,536.3653587735018
633,536.3690662943199
634,536.3740827742536
635,536.3804267724076
636,536.3881100328144
637,536.3971372570593
638,536.4075059341304
639,536.4192062257273
640,536.4322209047461
641,536.4465253455164
642,536.4620875657698
643,536.4788683215421
644,536.4968212570103
645,536.5158931116555
646,536.5360239870164
647,536.5571476745341
648,536.5791920445582
649,536.6020794948014
650,536.6257274549172
651,536.6500489427226
652,536.6749531666145
653,536.7003461674933
654,536.7261314919829
655,536.7522108873557
656,536.7784850077925
657,536.8048541217009
658,536.8312188107857
659,536.8574806529969
660,536.8835428827937
661,536.9093110231364
662,536.9346934845723
663,536.9596021280323
664,536.9839527894068
665,537.0076657654388
666,537.0306662618883
667,537.0528848061327
668,537.0742576270309
669,537.0947270047753
670,537.1142415926004
671,537.1327567107993
672,537.1502346119609
673,537.1666447152566
674,537.1819638072976
675,537.1961762072222
676,537.2092738934814
677,537.2212565887048
678,537.2321317973019
679,537.2419147890794
680,537.2506285220063
681,537.2583034985767
682,537.2649775525646
683,537.2706955656265
684,537.2755091155822
685,537.2794760601523
686,537.2826600616736
687,537.2851300601069
688,537.2869597033807
689,537.288226745111
690,537.2890124194413
691,537.2894008013621
692,537.2894781591651
693,537.2893323040983
694,537.2890519408461
695,537.2887260212245
696,537.2884431028197
697,537.2882907144498
698,537.2883547311613
699,537.2887187625345
700,537.2894635588533
701,537.290666440058
702,537.2924007527081
703,537.2947353607266
704,537.2977341760513
705,537.301455734648
706,537.3059528214171
707,537.3112721454636
708,537.3174540664669
709,537.3245323736487
710,537.3325341197502
711,537.341479512268
712,537.3513818629475
713,537.3622475949481
714,537.3740763058503
715,537.3868608841
716,537.4005876764958
717,537.4152367044616
718,537.4307819268415
719,537.4471915470139
720,537.4644283625204
721,537.4824501560128
722,537.5012101266759
723,537.5206573611431
724,537.5407373424064
725,537.5613924946721
726,537.5825627616239
727,537.6041862148008
728,537.626199687294
729,537.6485394257754
730,537.6711417518318
731,537.6939437224767
732,537.716883779429
733,537.7399023766528
734,537.7629425756827
735,537.7859505989915
736,537.8088763332524
737,537.8316737762851
738,537.8543014231993
739,537.8767225887519
740,537.898905664246
741,537.9208243082558
742,537.9424575708688
743,537.9637899511246
744,537.9848113873431
745,538.0055171804194
746,538.0259078508894
747,538.045988931403
748,538.0657706972232
749,538.0852678388045
750,538.1044990823489
751,538.1234867660685
752,538.1422563811343
753,538.1608360864982
754,538.1792562057751
755,538.1975487126746
756,538.2157467100991
757,538.2338839074876
758,538.2519941008088
759,538.2701106592394
760,538.2882660220778
761,538.3064912092536
762,538.3248153489434
763,538.3432652261762
764,538.3618648569197
765,538.3806350928179
766,538.3995932621012
767,538.4187528519495
768,538.4381232369678
769,538.4577094577256
770,538.4775120524433
771,538.4975269437411
772,538.5177453809241
773,538.5381539367779
774,538.5587345566355
775,538.5794646569051
776,538.6003172702561
777,538.6212612347911
778,538.6422614245463
779,538.6632790187248
780,538.6842718071596
781,538.7051945293247
782,538.7259992435493
783,538.746635722151
784,538.7670518672244
785,538.7871941408634
786,538.8070080028094
787,538.8264383481904
788,538.8454299383669
789,538.8639278188352
790,538.8818777193053
791,538.8992264319274
792,538.9159221639712
793,538.9319148614176
794,538.9471565004548
795,538.9616013448928
796,538.9752061688586
797,538.9879304455927
798,538.9997365042183
799,539.0105896562849
800,539.0204582927103
801,539.0293139504191
802,539.0371313476053
803,539.043888387474
804,539.0495661320555
805,539.0541487493265
806,539.0576234379686
807,539.0599803349926
808,539.0612124126551
809,539.0613153720841
810,539.0602875408362
811,539.0581297800784
812,539.0548454051722
813,539.0504401220314
814,539.0449219809457
815,539.0383013492171
816,539.0305909033568
817,539.021805640389
818,539.0119629062585
819,539.0010824379256
820,538.9891864146616
821,538.976299513174
822,538.962448960292
823,538.9476645761721
824,538.9319788006347
825,538.915426695616
826,538.8980459178325
827,538.8798766574209
828,538.8609615402415
829,538.8413454934337
830,538.8210755753305
831,538.8002007716217
832,538.7787717596793
833,538.7568406426132
834,538.7344606543144
835,538.7116858367391
836,538.6885706910914
837,538.6651698055271
838,538.6415374635513
839,538.6177272389341
840,538.5937915838715
841,538.5697814169042
842,538.545745716154
843,538.5217311222843
844,538.4977815544777
845,538.4739378419463
846,538.450237373358
847,538.4267137670354
848,538.4033965654561
849,538.3803109580739
850,538.3574775367657
851,538.3349120884951
852,538.3126254300835
853,538.2906232898634
854,538.2689062398035
855,538.2474696795153
856,538.2263038713187
857,538.2053940240814
858,538.1847204229009
859,538.1642586014585
860,538.1439795539154
861,538.1238499836388
862,538.1038325868069
863,538.0838863697367
864,538.0639669992855
865,538.0440271855246
866,538.0240170949783
867,538.0038847915717
868,537.9835767015556
869,537.9630380980577
870,537.942213600211
871,537.921047681097
872,537.8994851783503
873,537.8774718013618
874,537.8549546294742
875,537.8318825960584
876,537.8082069534989
877,537.7838817138334
878,537.7588640595616
879,537.7331147195321
880,537.7065983060714
881,537.6792836113572
882,537.6511438627273
883,537.622156937436
884,537.5923055372333
885,537.561577322568
886,537.5299650056307
887,537.4974664010829
888,537.4640844335001
889,537.4298271016767
890,537.3947074019344
891,537.3587432149021
892,537.3219571621523
893,537.2843764399646
894,537.2460326370056
895,537.2069615410667
896,537.1672029378625
897,537.1268004030271
898,537.0858010873727
899,537.0442554953511
900,537.0022172572853
901,536.9597428968384
902,536.9168915958937
903,536.873724959498
904,536.8303067838692
905,536.7867028304522
906,536.7429806080737
907,536.6992091634373
908,536.6554588783586
909,536.6118012711984
910,536.5683087999162
911,536.5250546644281
912,536.4821126060837
913,536.4395567019884
914,536.3974611517692
915,536.3559000544365
916,536.3149471733593
