acceleration,velocity,displacement
-0.02888980258176959,0.0,0.0
-0.027043709024953216,-1.39833779016807e-05,-3.495844475420175e-09
-0.025201329214213645,-2.7044637461472416e-05,-1.3752848316208456e-08
-0.023366355929952492,-3.918655874751395e-05,-3.0310647368455046e-08
-0.021542440497281313,-5.04137578543224e-05,-5.2710726518914135e-08
-0.019733173192583362,-6.073266127678857e-05,-8.049733130169187e-08
-0.017942064877347372,-7.015147079427126e-05,-1.1321836431945683e-07
-0.016172530095749323,-7.868011953754543e-05,-1.50426261902411e-07
-0.014427871788263165,-8.633022000854855e-05,-1.916788467889345e-07
-0.012711267701149071,-9.311500488090161e-05,-2.3654015301129704e-07
-0.011025758510185592,-9.904926143373528e-05,-2.845812195899563e-07
-0.009374237630090888,-0.0001041492604688044,-3.353808500655912e-07
-0.007759442648736716,-0.0001084326805385113,-3.8852633531742014e-07
-0.0061839482981610435,-0.00011191852827523574,-4.436141375208569e-07
-0.004650160843727316,-0.00011462705556070783,-5.002505334798428e-07
-0.0031603137411306925,-0.00011657967420692234,-5.580522159217503e-07
-0.001716464386550442,-0.00011779886873884262,-6.166468516581916e-07
-0.00032049177358065885,-0.0001183081077788754,-6.756735957876211e-07
0.0010259051256911724,-0.00011813175444084778,-7.347835613425519e-07
0.002321208415854931,-0.00011729497605546125,-7.936402439666291e-07
0.0035640818932747543,-0.00011582365347817883,-8.519199013500392e-07
0.00475337130687977,-0.0001137442901781402,-9.093118872641189e-07
0.0058881043202025606,-0.00011108392127136961,-9.655189401264963e-07
0.006967490203562432,-0.00010787002264042836,-1.0202574261044459e-06
0.007990919254677443,-0.0001041304202758684,-1.07325753683352e-06
0.008957961911694052,-9.989319998427552e-05,-1.124263441898556e-06
0.009868367492107287,-9.518661763332519e-05,-1.1730333963029562e-06
0.010722062473456535,-9.003901014193423e-05,-1.219339803246771e-06
0.01151914823121344,-8.447870746576674e-05,-1.2629692326486962e-06
0.012259898162683008,-7.853394586729263e-05,-1.303722395981961e-06
0.01294475414537591,-7.223278279027789e-05,-1.3414140781463535e-06
0.01357432229555849,-6.56030136800443e-05,-1.3758730272639341e-06
0.014149368000460861,-5.867209110603946e-05,-1.406941803460455e-06
0.01467081019625132,-5.1467046556861414e-05,-1.4344765878761803e-06
0.015139714863792727,-4.4014415291850404e-05,-1.4583469533383582e-06
0.015557287725903722,-3.634016464442629e-05,-1.4784355983224274e-06
0.015924866154541625,-2.846962617431495e-05,-1.4946380460271127e-06
0.01624391032696638,-2.0427432053937948e-05,-1.506862310584176e-06
0.01651599369611751,-1.2237456048166976e-05,-1.5150285326097022e-06
0.016742792853180897,-3.922759410842374e-06,-1.5190685864744545e-06
0.01692607685777506,4.494458016896616e-06,-1.518925661822941e-06
0.017067696101258786,1.2992901256655078e-05,-1.514553822004553e-06
0.017169570763613903,2.155221797287325e-05,-1.505917542197171e-06
0.01723367892901032,3.0153030396029305e-05,-1.4929912301049454e-06
0.017262044432453327,3.877696123639522e-05,-1.4757587321968392e-06
0.017256724513487098,4.740665347288033e-05,-1.4542128285195202e-06
0.017219797355595725,5.6025783940151035e-05,-1.4283547191662623e-06
0.017153349595649497,6.461907067796234e-05,-1.398193505511734e-06
0.01705946389281821,7.317227405007927e-05,-1.3637456693297236e-06
0.016940206646515268,8.167219168491264e-05,-1.3250345528959756e-06
0.016797615950307404,9.010664733411831e-05,-1.2820898431412178e-06
0.016633689870325343,9.84644737892765e-05,-1.2349470628603691e-06
0.016450375146923803,0.00010673549004358878,-1.1836470719021527e-06
0.016249556433765345,0.00011491047293876107,-1.1282355811565652e-06
0.01603304620211538,0.00012298112359773126,-1.0687626820224421e-06
0.01580257544609161,0.000130940029009783,-1.0052823938705636e-06
0.015559785327218328,0.0001387806192031105,-9.378522318173403e-07
0.015306219894856803,0.00014649712050862927,-8.665327968894054e-07
0.015043320014013338,0.0001540845054858468,-7.913873903907864e-07
0.014772418623506516,0.00016153844014522677,-7.12481653983018e-07
0.014494737430759979,0.0001688552291587934,-6.29883236657013e-07
0.014211385120738107,0.00017603175979666793,-5.436614894181477e-07
0.013923357117120286,0.00018306544535613253,-4.5388718812994757e-07
0.01363153688793209,0.0001899541688573956,-3.6063228457656553e-07
0.013336698739433486,0.000196696227764237,-2.6396968542115735e-07
0.01303951199824208,0.00020329028044865588,-1.6397305836793415e-07
0.012740546449849028,0.00020973529506067865,-6.071666449060052e-08
0.012440278882896411,0.00021603050139386502,4.5724784623035394e-08
0.012139100577192275,0.0002221753462588872,1.5527624653622346e-07
0.011837325563008974,0.0002281694527939375,2.6786244629942964e-07
0.011535199466334653,0.0002340125840512734,3.8340795551073234e-07
0.011232908739579026,0.00023970461110275182,5.018372542992387e-07
0.010930590062921863,0.0002452454858033771,6.230747785257709e-07
0.010628339696305745,0.00025063521824318397,7.470449545374112e-07
0.010326222576082324,0.000255873858811281,8.736722238010274e-07
0.01002428098224343,0.00026096148470086244,1.0028810596790633e-06
0.009722542635428866,0.0002658981906052805,1.1345959785055992e-06
0.009421028101190467,0.00027068408328943534,1.268741546979278e-06
0.009119757382427176,0.00027531927966033975,1.4052423877167218e-06
0.008818755586710927,0.0002798039079026243,1.5440231846074628e-06
0.008518057582638504,0.0002841381111949617,1.6850086893818592e-06
0.008217711611831697,0.00028832205349357923,1.8281237305539945e-06
0.007917781883962607,0.0002923559268675278,1.973293225644271e-06
0.007618350228516182,0.0002962399598956475,2.120442197335065e-06
0.007319516896762237,0.00029997442667696714,2.269495793978219e-06
0.007021400604262326,0.0003035596560522233,2.4203793146605166e-06
0.006724137892562047,0.0003069960406764294,2.5730182388426797e-06
0.0064278818832057775,0.00031028404562037133,2.72733826041688e-06
0.006132800504064265,0.0003134242162171888,2.88326532587627e-06
0.005839074282079481,0.00031641718491372473,3.040725676158998e-06
0.005546893809624431,0.0003192636769366507,3.199645891621592e-06
0.005256456998183667,0.0003219645146386027,3.3599529395154057e-06
0.004967966232169097,0.0003245206204461909,3.5215742232866043e-06
0.004681625529430447,0.0003269330183865908,3.6844376329947995e-06
0.004397637805457259,0.00032920283422031274,3.848471596146525e-06
0.004116202324375848,0.000331331294252771,4.013605128264796e-06
0.0038375123989126472,0.00033331972293359314,4.179767882561387e-06
0.0035617533756881507,0.00033516953937724335,4.346890198139096e-06
0.003289100919186035,0.0003368822529509619,4.514903146221147e-06
0.003019719591844184,0.0003384594580787195,4.683738573978567e-06
0.0027537617186637587,0.00033990282840634645,4.853329145599833e-06
0.0024913665219756555,0.0003412141104665063,5.0236083803180464e-06
0.0022326595149162183,0.00034239511697572924,5.194510687178606e-06
0.0019777521478133646,0.00034344771989141165,5.365971396395391e-06
0.0017267417047108968,0.0003443738433545427,5.537926787206879e-06
0.001479711440436169,0.00034517545664082945,5.710314112205722e-06
0.0012367309287697357,0.00034585456723313095,5.8830716181742125e-06
0.000997856568386441,0.00034641321410742,6.05613856350935e-06
0.0007631321813004847,0.00034685346129484173,6.229455232359916e-06
0.000532589644591015,0.0003471773917513146,6.402962945621455e-06
0.0003062495133300079,0.00034738710154079487,6.576604068944482e-06
8.41216125007429e-05,0.00034748469432225253,6.750322017910244e-06
-0.0001337944066569564,0.0003474722761237135,6.924061260521735e-06
-0.00034750854261373477,0.0003473519503863958,7.097767317149262e-06
-0.0005570399600124933,0.00034712581326073924,7.2713867580610465e-06
-0.000762416584973494,0.00034679594912449276,7.444867198657355e-06
-0.0009636748512573046,0.00034636442626543505,7.6181572925048366e-06
-0.00116085968733188,0.00034583329263078775,7.791206722228893e-06
-0.0013540248278388139,0.0003452045715019951,7.963966188262089e-06
-0.0015432335060441354,0.00034448025691852436,8.136387395367219e-06
-0.001728559548552527,0.0003436623086548752,8.308423036760569e-06
-0.0019100888602833121,0.00034275264655266626,8.480026775562455e-06
-0.002087921261806807,0.00034175314402214374,8.651153223206157e-06
-0.002262172624867092,0.0003406656205504753,8.821757914349312e-06
-0.0024329772458192974,0.0003394918330828037,8.991797277757632e-06
-0.002600490397835048,0.0003382334661718901,9.161228602571305e-06
-0.002764891004703239,0.00033689212082125555,9.330009999319591e-06
-0.002926384377121423,0.00033546930197579937,9.498100355018855e-06
-0.0030852049472973432,0.0003339664046446947,9.665459281673978e-06
-0.0032416189344315087,0.0003323846986742625,9.832047057503717e-06
-0.003395926874703239,0.0003307253122219788,9.997824560227778e-06
-0.0035484659519913917,0.00032898921401530517,1.0162753191787099e-05
-0.0036996120659942375,0.0003271771945108088,1.0326794793918628e-05
-0.003849781570635461,0.00032528984610165134,1.0489911554071743e-05
-0.003999432608415124,0.0003233275425568887,1.0652065901236378e-05
-0.00414906596170501,0.0003212904179143586,1.081322039135419e-05
-0.004299225347723408,0.0003191783450870015,1.097333758210453e-05
-0.004450497099831474,0.0003169909144751128,1.1132379896995058e-05
-0.004603509194790567,0.00031472741290145727,1.1290309478839201e-05
-0.004758929596992479,0.0003123868032035115,1.1447088032865444e-05
-0.004917463897611241,0.00030996770482986057,1.1602676659873787e-05
-0.005079852234958775,0.00030746837579671805,1.175703568003043e-05
-0.005246865494701469,0.000304886696364303,1.1910124448070685e-05
-0.005419300802065745,0.0003022201547901112,1.2061901160859288e-05
-0.0055979763300544275,0.00029946583550708117,1.2212322658433586e-05
-0.005783725460122905,0.0002966204100595368,1.236134421982524e-05
-0.005977390347019017,0.00029368013110775133,1.2508919355117062e-05
-0.006179814953999248,0.0002906408297824968,1.2654999595339625e-05
-0.006391837631592146,0.00028749791663609895,1.2799534281944274e-05
-0.0066142833101287875,0.0002842463864006687,1.2942470357703467e-05
-0.006847955367161737,0.0002808808267313461,1.308375216098647e-05
-0.0070936272235964624,0.00027739543108365656,1.3223321225440221e-05
-0.007352033722050772,0.00027378401584724475,1.3361116087172947e-05
-0.007623862345359795,0.0002700400418303921,1.3497072101592356e-05
-0.007909744340002129,0.0002661566401590516,1.3631121272089717e-05
-0.00821024582225124,0.00026212664261848827,1.3763192092784101e-05
-0.008525858966397256,0.00025794261642132614,1.3893209407544055e-05
-0.00885699339895802,0.00025359690332998734,1.4021094287481883e-05
-0.009203967943556018,0.0002490816629943588,1.414676392906297e-05
-0.009567002874661279,0.0002443889202898045,1.4270131574884011e-05
-0.009946212843338765,0.00023951061636030447,1.439110645904654e-05
-0.010341600635346575,0.00023443866299063313,1.4509593778884274e-05
-0.01075305191223313,0.0002291649998537382,1.4625494694595368e-05
-0.0111803310657878,0.00022368165410923297,1.473870635808611e-05
-0.011623078283287507,0.00021798080177196414,1.484912197205641e-05
-0.012080807884986043,0.00021205483022989575,1.4956630880056875e-05
-0.012552907971001304,0.0002058964012658989,1.5061118687930823e-05
-0.013038641403598826,0.00019949851392224888,1.5162467416727861e-05
-0.013537148142080103,0.00019285456653582913,1.526055568684238e-05
-0.014047448935596531,0.00018595841726640997,1.535525893279294e-05
-0.014568450369833945,0.00017880444244005236,1.5446449647719555e-05
-0.01509895125943769,0.00017138759203273445,1.5533997656337753e-05
-0.015637650372357145,0.00016370344162478575,1.561777041475213e-05
-0.016183155457309823,0.000155748240167369,1.569763333520017e-05
-0.01673399352038068,0.00014751895292294638,1.577345013347275e-05
-0.017288622266203955,0.0001390132989763002,1.584508319644756e-05
-0.017845442588970202,0.00013022978276250666,1.5912393966882263e-05
-0.018402811974036936,0.00012116771912175487,1.597524334235333e-05
-0.018959058652349856,0.00011182725146515817,1.6033492085000057e-05
-0.019512496330599455,0.00010220936271942085,1.6087001238546202e-05
-0.020061439293949886,9.231587881328351e-05,1.6135632548929377e-05
-0.02060421764799717,8.214946457779674e-05,1.6179248884777146e-05
-0.02113919244286793,7.171361205508047e-05,1.6217714653935365e-05
-0.021664770414842608,6.101262134065283e-05,1.6250896212284298e-05
-0.022179418091576718,5.0051574214048e-05,1.6278662261172973e-05
-0.02268167502983747,3.883630093369445e-05,1.630088422995991e-05
-0.02317016598205768,2.7373340680720664e-05,1.6317436640363514e-05
-0.0236436118200189,1.5669896230201518e-05,1.6328197449591244e-05
-0.024100839086192767,3.7337835036486008e-06,1.6333048369524705e-05
-0.024540788094150102,-8.426623291437118e-06,1.6331875159577758e-05
-0.02496251954721643,-2.080245020177875e-05,1.6324567891204454e-05
-0.025365219679109867,-3.338438500836033e-05,1.631102118240192e-05
-0.025748203942715406,-4.616274091381665e-05,1.6291134400921375e-05
-0.02611091929017334,-5.912752172203884e-05,1.6264811835262412e-05
-0.02645294510110141,-7.226848781985753e-05,1.623196283287694e-05
-0.026773992824457166,-8.557522230124717e-05,1.6192501905346663e-05
-0.027073904406932418,-9.903719660909457e-05,1.614634880061908e-05
-0.027352649595008834,-0.00011264383510957989,1.609342854268941e-05
-0.027610322217793786,-0.00012638457806278053,1.6033671439396318e-05
-0.02784713556876264,-0.00014024894250941965,1.596701305925327e-05
-0.028063416993139512,-0.00015422658064989517,1.589339417846344e-05
-0.02825960176008517,-0.00016830733533820135,1.5812760699466417e-05
-0.02843622627769283,-0.00018248129234764586,1.5725063542544957e-05
-0.028593920709919694,-0.000196738829094549,1.5630258512184408e-05
-0.028733401076207973,-0.00021107065954108093,1.55283061400255e-05
-0.02885546094442658,-0.00022546787504623957,1.541917150637867e-05
-0.028960962852414347,-0.0002399219809954498,1.530282404236825e-05
-0.029050829599675924,-0.0002544249291084724,1.517923731484227e-05
-0.029126035531433295,-0.0002689691453912497,1.5048388796217339e-05
-0.029187597900145308,-0.00028354755374914435,1.491025962143224e-05
-0.02923656835458168,-0.0002981535953128261,1.4764834334166747e-05
-0.02927402458773238,-0.00031278124354840463,1.4612100624451439e-05
-0.029301062170375543,-0.00032742501523793163,1.4452049059754855e-05
-0.029318786598632234,-0.0003420799774301836,1.4284672811587826e-05
-0.02932830558819484,-0.00035674175047689037,1.4109967379611058e-05
-0.029330721654899052,-0.0003714065072876638,1.3927930315169919e-05
-0.02932712502583156,-0.0003860709689578465,1.3738560946108541e-05
-0.02931858692263378,-0.00040073239694496285,1.3541860104632839e-05
-0.0293061532520661,-0.0004153885819886378,1.333782985989944e-05
-0.029290838733727335,-0.00043003782998508617,1.3126473256906008e-05
-0.029273621490121356,-0.00044467894504104835,1.2907794063149475e-05
-0.02925543811511221,-0.00045931120994235675,1.2681796524403624e-05
-0.029237179222446785,-0.0004739343642767465,1.2448485130848849e-05
-0.029219685461743597,-0.0004885485804477941,1.2207864394667714e-05
-0.029203743979401408,-0.0005031544378080804,1.1959938640103746e-05
-0.029190085294036598,-0.0005177528951264399,1.1704711806870116e-05
-0.02917938054813614,-0.000532345261586983,1.144218726769176e-05
-0.029172239094162555,-0.0005469331664975577,1.1172367660670626e-05
-0.02916920637908273,-0.0005615185278658691,1.089525473707977e-05
-0.029170762102261095,-0.000576103519986205,1.061084922511675e-05
-0.029177318628614564,-0.000590690540168924,1.0319150710077968e-05
-0.029189219637039264,-0.0006052821747353374,1.0020157531351903e-05
-0.029206738977870104,-0.0006198811643890647,9.713866696570803e-06
-0.02923007971206421,-0.0006344903690615483,9.40027381320815e-06
-0.029259373314327757,-0.0006491127323181463,9.079373037863226e-06
-0.029294679039624974,-0.0006637512454066345,8.75115704343203e-06
-0.02933598347278014,-0.0006784089110347359,8.415617004321689e-06
-0.029383200300762333,-0.0006930887069781215,8.072742599818473e-06
-0.029436170360172414,-0.0007077935496433551,7.722522035663104e-06
-0.029494662012977617,-0.0007225262577366426,7.364942083818104e-06
-0.029558371894320444,-0.0007372895162134671,6.999988140330576e-06
-0.029626926066524152,-0.0007520858407036782,6.62764430110129e-06
-0.02969988161058339,-0.0007669175426229551,6.247893455269632e-06
-0.029776728690776414,-0.0007817866951982951,5.86071739581432e-06
-0.029856893133533482,-0.0007966951006543726,5.466096946851153e-06
-0.029939739561201165,-0.0008116442588280562,5.0640121069805455e-06
-0.030024575112026556,-0.0008266353374963631,4.654442207899441e-06
-0.030110653757995945,-0.0008416691447138688,4.237366087346883e-06
-0.03019718120044416,-0.0008567461034534788,3.8127622753050456e-06
-0.030283320284456145,-0.0008718662288247039,3.3806091922355e-06
-0.03036819684161985,-0.0008870291081062229,2.9408853580027682e-06
-0.03045090585698245,-0.0009022338837808735,2.493569610030994e-06
-0.03053051785679904,-0.0009174792397093188,2.038641329158446e-06
-0.030606085419740692,-0.0009327633905284537,1.576080671599003e-06
-0.030676649720505773,-0.0009480840743135154,1.1058688053885106e-06
-0.030741247018543433,-0.0009634385484982777,6.279881496855623e-07
-0.030798915005557287,-0.0009788235890043028,1.4242261530991716e-07
-0.030848698928530104,-0.0009942354924878246,-3.5084215506311467e-07
-0.03088965741584492,-0.0010096700815739185,-8.518185485785504e-07
-0.03092086795310256,-0.0010251227129161554,-1.360516747201069e-06
-0.030941431976889252,-0.0010405882878986533,-1.8769444974047711e-06
-0.030950479572719482,-0.0010560612657860556,-2.4011068858259487e-06
-0.03094717377553677,-0.0010715356791231197,-2.9330061220532425e-06
-0.030930714483151996,-0.001087005151187792,-3.4726413296309704e-06
-0.03090034201183856,-0.0011024629153115395,-4.020008346255803e-06
-0.030855340346038145,-0.0011179018359010087,-4.575099534058941e-06
-0.030795040149817376,-0.0011333144310249725,-5.137903600790436e-06
-0.030718821609538156,-0.0011486928964648114,-5.708405432662882e-06
-0.03062611716322467,-0.0011640291311580022,-6.286585939568585e-06
-0.03051641414388053,-0.0011793147639847785,-6.872421913354281e-06
-0.03038925732951098,-0.0011945411818531264,-7.465885899813757e-06
-0.03024425136387603,-0.0012096995590264732,-8.066946085033658e-06
-0.030081062994253914,-0.0012247808876160056,-8.675566196694277e-06
-0.02989942306501474,-0.0012397760091308228,-9.291705420880983e-06
-0.02969912821067031,-0.001254675646949744,-9.915318334901124e-06
-0.029480042214055688,-0.0012694704395559255,-1.0546354856527542e-05
-0.02924209703025004,-0.001284150974367002,-1.1184760210008274e-05
-0.028985293506891482,-0.0012987078220012874,-1.1830474909100347e-05
-0.028709701838229212,-0.0013131315708375677,-1.248343475731006e-05
-0.028415461771458168,-0.0013274128617399895,-1.3143570865454449e-05
-0.028102782554728308,-0.001341542422821536,-1.381080968659483e-05
-0.02777194259393813,-0.0013555111041087028,-1.448507306832739e-05
-0.02742328877707909,-0.001369309911951457,-1.516627832234243e-05
-0.027057235427686805,-0.0013829300430026484,-1.5854338311080957e-05
-0.02667426285603344,-0.0013963629175735785,-1.6549161551225014e-05
-0.02627491548343356,-0.0014096002121584453,-1.725065233365802e-05
-0.025859799519570254,-0.0014226338909091962,-1.795871085942493e-05
-0.025429580174814358,-0.0014354562358327924,-1.8673233391110426e-05
-0.024984978388657025,-0.0014480598754736602,-1.9394112418937038e-05
-0.024526767050084244,-0.0014604378118333455,-2.012123684076379e-05
-0.02405576667752867,-0.0014725834452652487,-2.085449215503844e-05
-0.02357284052396959,-0.0014844905970656233,-2.1593760665621157e-05
-0.023078889087214147,-0.0014961535294684193,-2.2338921697254667e-05
-0.02257484403528477,-0.001507566962749044,-2.3089851820309034e-05
-0.022061661589242224,-0.0015187260891551758,-2.3846425083285088e-05
-0.02154031543067308,-0.0015296265834101547,-2.460851325142642e-05
-0.021011789215245793,-0.0015402646095716344,-2.537598604967187e-05
-0.020477068775161325,-0.0015506368240692362,-2.6148711408082086e-05
