frame_number,force
0,858.4518500064902
1,858.4510986993456
2,858.4502654511409
3,858.4492690185392
4,858.4480295402584
5,858.4464691966479
6,858.4445128363003
7,858.442088564081
8,858.4391282859575
9,858.4355682057231
10,858.4313492684336
11,858.4264175459773
12,858.420724561479
13,858.4142275506189
14,858.4068896591085
15,858.3986800765931
16,858.3895741082412
17,858.3795531861522
18,858.3686048234362
19,858.3567225144936
20,858.343905585668
21,858.3301590008988
22,858.3154931272127
23,858.2999234650207
24,858.283470348406
25,858.2661586208874
26,858.248017292334
27,858.2290791826947
28,858.2093805580374
29,858.1889607641713
30,858.1678618629772
31,858.1461282766508
32,858.1238064453441
33,858.1009445039448
34,858.0775919834283
35,858.0537995408832
36,858.0296187198775
37,858.0051017401289
38,857.9803013135526
39,857.9552704831676
40,857.9300624814895
41,857.9047306050663
42,857.8793281016136
43,857.8539080662483
44,857.8285233438958
45,857.8032264358526
46,857.7780694094982
47,857.753103811029
48,857.7283805816885
49,857.7039499783759
50,857.6798614998957
51,857.6561638203618
52,857.6329047310456
53,857.6101310912943
54,857.5878887885498
55,857.5662227072397
56,857.5451767061759
57,857.5247936036592
58,857.5051151684477
59,857.4861821132506
60,857.4680340861116
61,857.450709654405
62,857.4342462761829
63,857.4186802542762
64,857.4040466701573
65,857.3903792971274
66,857.3777104949423
67,857.3660710894824
68,857.3554902414727
69,857.3459953083725
70,857.3376117038307
71,857.3303627594174
72,857.3242695934058
73,857.3193509911184
74,857.315623300744
75,857.3131003475889
76,857.3117933685912
77,857.3117109679625
78,857.3128590944134
79,857.3152410405903
80,857.3188574656906
81,857.3237064422517
82,857.3297835277336
83,857.3370818609565
84,857.3455922830931
85,857.355303482994
86,857.3662021669177
87,857.3782732527435
88,857.3915000881391
89,857.405864691009
90,857.4213480092496
91,857.4379301957222
92,857.4555908933424
93,857.4743095241075
94,857.49406557493
95,857.5148388726275
96,857.5366098401386
97,857.5593597257616
98,857.5830707972618
99,857.6077264938302
100,857.6333115313788
101,857.659811959742
102,857.6872151729509
103,857.7155098755283
104,857.7446860090827
105,857.7747346444816
106,857.8056478452836
107,857.8374185077015
108,857.8700401814625
109,857.9035068751181
110,857.9378128490895
111,857.9729524000396
112,858.0089196406029
113,858.0457082785143
114,858.0833113985102
115,858.1217212493707
116,858.1609290376578
117,858.2009247291226
118,858.2416968581689
119,858.2832323452012
120,858.3255163215524
121,858.368531962199
122,858.412260327414
123,858.456680215401
124,858.5017680285227
125,858.5474976561418
126,858.5938403773738
127,858.6407647868884
128,858.6882367459567
129,858.7362193595665
130,858.7846729795531
131,858.8335552338646
132,858.8828210829005
133,858.9324229043564
134,858.9823106076086
135,859.0324317775321
136,859.0827318462141
137,859.1331542896102
138,859.1836408449287
139,859.2341317435249
140,859.2845659536168
141,859.3348814275101
142,859.3850153492222
143,859.4349043801562
144,859.4844849025571
145,859.5336932625886
146,859.5824660162384
147,859.630740181011
148,859.67845349467
149,859.7255446804409
150,859.7719537171118
151,859.8176221121169
152,859.86249317515
153,859.9065122889969
154,859.9496271736081
155,859.9917881393518
156,860.0329483257614
157,860.0730639230222
158,860.1120943750369
159,860.1500025646625
160,860.1867549826716
161,860.2223218817891
162,860.2566774164012
163,860.289799768017
164,860.32167125639
165,860.3522784359002
166,860.381612176082
167,860.4096677244378
168,860.436444749502
169,860.46194736267
170,860.4861841181033
171,860.5091679904098
172,860.5309163295574
173,860.5514507917541
174,860.5707972441046
175,860.5889856403784
176,860.6060498657142
177,860.6220275492153
178,860.6369598442741
179,860.650891176867
180,860.6638689624813
181,860.6759432932721
182,860.6871665983714
183,860.6975932813332
184,860.7072793389196
185,860.7162819648222
186,860.7246591410787
187,860.7324692195974
188,860.7397704965394
189,860.7466207830213
190,860.7530769762507
191,860.7591946356193
192,860.7650275683741
193,860.770627429332
194,860.7760433388643
195,860.7813215231585
196,860.7865049804242
197,860.79163317627
198,860.7967417711772
199,860.8018623827406
200,860.8070223846574
201,860.8122447430303
202,860.8175478888629
203,860.8229456244419
204,860.8284470611704
205,860.8340565873443
206,860.8397738658721
207,860.8455938632961
208,860.8515069119646
209,860.8574988067363
210,860.8635509367206
211,860.8696404517511
212,860.8757404624832
213,860.8818202720007
214,860.8878456359319
215,860.8937790478362
216,860.899580047241
217,860.905205548769
218,860.9106101917532
219,860.9157467102483
220,860.9205663233458
221,860.9250191453834
222,860.9290546152641
223,860.932621943665
224,860.9356705763319
225,860.9381506710736
226,860.9400135855599
227,860.9412123721149
228,860.9417022739574
229,860.9414412152955
230,860.9403902763675
231,860.9385141443528
232,860.9357815315958
233,860.9321655532792
234,860.9276440576026
235,860.9221999027848
236,860.9158211766195
237,860.9085013555008
238,860.9002394008353
239,860.8910397919002
240,860.8809124955376
241,860.8698728743892
242,860.8579415365027
243,860.8451441300388
244,860.831511087355
245,860.8170773227772
246,860.8018818882371
247,860.7859675913412
248,860.7693805815323
249,860.7521699111212
250,860.734387078342
251,860.7160855591294
252,860.6973203333238
253,860.678147409494
254,860.6586233506689
255,860.6388048016739
256,860.6187480182856
257,860.5985083992841
258,860.5781400242237
259,860.557695201528
260,860.5372240325121
261,860.5167739967233
262,860.4963895628686
263,860.4761118283697
264,860.4559781898408
265,860.436022046325
266,860.4162725363541
267,860.3967543086492
268,860.3774873251181
269,860.358486694355
270,860.3397625341536
271,860.3213198621695
272,860.3031585145011
273,860.285273092591
274,860.2676529396026
275,860.2502821482684
276,860.2331396029409
277,860.2161990588468
278,860.1994292612203
279,860.1827941063111
280,860.16625284543
281,860.1497603321538
282,860.1332673114315
283,860.116720747764
284,860.1000641883008
285,860.0832381559878
286,860.066180567825
287,860.0488271734662
288,860.0311120093503
289,860.012967863265
290,859.994326744277
291,859.9751203539596
292,859.9552805566311
293,859.9347398479221
294,859.9134318215744
295,859.8912916340073
296,859.8682564654202
297,859.844265975365
298,859.8192627498979
299,859.7931927368614
300,859.7660056659083
301,859.7376554505166
302,859.7081005698474
303,859.6773044283012
304,859.6452356902633
305,859.6118685873662
306,859.577183195803
307,859.5411656812614
308,859.5038085086397
309,859.4651106132401
310,859.425077530271
311,859.3837214802619
312,859.341061408715
313,859.2971229783113
314,859.251938511475
315,859.2055468809491
316,859.157993346982
317,859.1093293416191
318,859.0596122025422
319,859.0089048598588
320,858.9572754788894
321,858.9047970611235
322,858.8515470051262
323,858.7976066295881
324,858.7430606615895
325,858.6879966944128
326,858.6325046211259
327,858.5766760525263
328,858.5206037299445
329,858.4643809439664
330,858.4081009692738
331,858.3518565242795
332,858.2957392626212
333,858.2398393018906
334,858.1842447930917
335,858.1290415324196
336,858.0743126153543
337,858.0201381319723
338,857.966594901784
339,857.9137562461559
340,857.8616917963169
341,857.8104673350257
342,857.7601446702135
343,857.7107815392092
344,857.6624315421583
345,857.6151441027021
346,857.568964453217
347,857.5239336415897
348,857.4800885569091
349,857.4374619722673
350,857.3960826036222
351,857.3559751841327
352,857.3171605535839
353,857.2796557626829
354,857.2434741923978
355,857.2086256892356
356,857.1751167183983
357,857.1429505378178
358,857.1121273967061
359,857.0826447620755
360,857.0544975754207
361,857.0276785392316
362,857.0021784294523
363,856.9779864262603
364,856.9550904526593
365,856.9334775091789
366,856.9131339935574
367,856.8940459961012
368,856.8761995637483
369,856.8595809281267
370,856.8441766944879
371,856.8299739889245
372,856.8169605612064
373,856.805124840903
374,856.7944559456388
375,856.7849436418163
376,856.7765782593298
377,856.7693505628541
378,856.7632515836292
379,856.7582724171822
380,856.7544039938414
381,856.7516368301539
382,856.7499607704435
383,856.7493647281243
384,856.7498364351003
385,856.7513622046783
386,856.7539267104611
387,856.7575127824168
388,856.7621012220017
389,856.7676706396975
390,856.7741973194608
391,856.7816551149534
392,856.7900153821291
393,856.7992469519709
394,856.8093161462248
395,856.8201868382781
396,856.8318205609864
397,856.8441766629214
398,856.8572125136878
399,856.8708837573778
400,856.8851446110916
401,856.8999482033606
402,856.9152469458454
403,856.9309929310551
404,856.947138348901
405,856.9636359153818
406,856.9804393072174
407,856.9975035965449
408,857.0147856798573
409,857.0322446953984
410,857.0498424233214
411,857.0675436628782
412,857.085316580656
413,857.1031330237143
414,857.1209687920882
415,857.1388038670027
416,857.1566225940211
417,857.1744138230149
418,857.1921710079635
419,857.2098922690626
420,857.2275804184584
421,857.2452429500407
422,857.2628919931909
423,857.2805442297661
424,857.2982207726798
425,857.3159470034603
426,857.3337523657667
427,857.3516701124862
428,857.3697370054904
429,857.3879929685784
430,857.406480694837
431,857.4252452096822
432,857.4443333911119
433,857.4637934497425
434,857.4836743725535
435,857.504025335165
436,857.524895087829
437,857.5463313204515
438,857.5683800119092
439,857.5910847684496
440,857.6144861550684
441,857.6386210228734
442,857.6635218352105
443,857.6892159961993
444,857.7157251870897
445,857.7430647177227
446,857.7712429017661
447,857.8002604653931
448,857.8301100000003
449,857.860775470168
450,857.892231787774
451,857.9244444616824
452,857.9573693301965
453,857.9909523814515
454,858.0251296658413
455,858.0598273045068
456,858.0949615986644
457,858.1304392455316
458,858.166157666749
459,858.2020054536898
460,858.2378629311785
461,858.2736028379979
462,858.3090911201899
463,858.3441878317876
464,858.3787481365291
465,858.4126234021422
466,858.4456623756034
467,858.4777124242004
468,858.5086208244651
469,858.5382360796647
470,858.566409246451
471,858.5929952520322
472,858.6178541842415
473,858.6408525376518
474,858.6618643994342
475,858.6807725595311
476,858.6974695312181
477,858.7118584699818
478,858.7238539803853
479,858.7333828024465
480,858.7403843714914
481,858.7448112483004
482,858.746629418751
483,858.7458184634411
484,858.7423715983075
485,858.7362955880117
486,858.7276105353692
487,858.716349552144
488,858.7025583185379
489,858.6862945401825
490,858.6676273119473
491,858.646636397353
492,858.6234114316089
493,858.5980510563276
494,858.5706619952143
495,858.54135808193
496,858.5102592531185
497,858.4774905208033
498,858.4431809386114
499,858.4074625756435
500,858.3704695108554
501,858.3323368599342
502,858.2931998457393
503,858.2531929222339
504,858.2124489602783
505,858.1710985014936
506,858.1292690837942
507,858.0870846396247
508,858.0446649656977
509,858.0021252611126
510,857.9595757292363
511,857.9171212378677
512,857.8748610321672
513,857.8328884956408
514,857.7912909559093
515,857.750149533571
516,857.7095390336358
517,857.6695278796213
518,857.6301780907588
519,857.5915453033872
520,857.5536788385965
521,857.5166218189985
522,857.480411337518
523,857.4450786802869
524,857.4106496044882
525,857.3771446707448
526,857.3445796286609
527,857.3129658536137
528,857.282310832621
529,857.2526186964247
530,857.2238907933374
531,857.1961262979961
532,857.1693228458319
533,857.1434771827546
534,857.1185858193182
535,857.0946456785922
536,857.0716547267245
537,857.0496125751317
538,857.0285210436233
539,857.0083846740598
540,856.9892111839392
541,856.9710118490395
542,856.9538018048386
543,856.9376002584493
544,856.9224306058437
545,856.9083204523382
546,856.8953015373182
547,856.8834095671037
548,856.8726839624788
549,856.863167528995
550,856.8549060582418
551,856.8479478671422
552,856.8423432808889
553,856.8381440644819
554,856.835402808425
555,856.8341722756377
556,856.8345047183403
557,856.8364511750651
558,856.8400607587761
559,856.8453799471902
560,856.8524518859352
561,856.8613157147072
562,856.8720059265736
563,856.884551770574
564,856.8989767066494
565,856.915297919289
566,856.9335258930745
567,856.9536640508351
568,856.975708453958
569,856.9996475642848
570,857.0254620674299
571,857.0531247576063
572,857.0826004836936
573,857.1138461553878
574,857.1468108070973
575,857.1814357160388
576,857.2176545701701
577,857.2553936816144
578,857.2945722420116
579,857.3351026172627
580,857.3768906800186
581,857.4198361787447
582,857.4638331420135
583,857.5087703158039
584,857.5545316303367
585,857.6009966918248
586,857.6480412936419
587,857.6955379409997
588,857.7433563836363
589,857.7913641526297
590,857.8394270998471
591,857.8874099407788
592,857.9351768026562
593,857.9825917793772
594,858.0295194932195
595,858.0758256615838
596,858.1213776658893
597,858.1660451192133
598,858.2097004288119
599,858.2522193491949
600,858.2934815211702
601,858.3333709920184
602,858.371776711505
603,858.4085929980736
604,858.4437199697563
605,858.4770639348984
606,858.508537738221
607,858.5380610575739
608,858.5655606457688
609,858.5909705106269
610,858.6142320261563
611,858.6352939694734
612,858.6541124810489
613,858.6706509484752
614,858.6848798153754
615,858.6967763177862
616,858.7063241513216
617,858.7135130739922
618,858.7183384513268
619,858.7208007518111
620,858.7209050014898
621,858.718660207398
622,858.7140787606143
623,858.7071758306889
624,858.6979687635295
625,858.6864764946047
626,858.6727189888393
627,858.6567167177067
628,858.6384901825732
629,858.6180594913404
630,858.5954439930663
631,858.5706619728044
632,858.5437304069145
633,858.5146647782302
634,858.483478950979
635,858.4501851065303
636,858.414793741605
637,858.3773137296431
638,858.3377524437803
639,858.2961159373629
640,858.2524091761571
641,858.2066363157707
642,858.1588010179115
643,858.1089067992928
644,858.0569574068321
645,858.0029572123734
646,857.9469116195945
647,857.8888274751079
648,857.8287134752292
649,857.7665805599213
650,857.7024422863104
651,857.6363151756516
652,857.5682190290814
653,857.4981772086468
654,857.4262168811575
655,857.352369223622
656,857.2766695901709
657,857.1991576411167
658,857.1198774351515
659,857.0388774860252
660,856.9562107857398
661,856.8719347972523
662,856.7861114204102
663,856.6988069348441
664,856.6100919228294
665,856.5200411740473
666,856.4287335730128
667,856.3362519690087
668,856.2426830280971
669,856.1481170671283
670,856.0526478699865
671,855.9563724861835
672,855.8593910118109
673,855.7618063533648
674,855.6637239758367
675,855.5652516370566
676,855.4664991104306
677,855.3675778984157
678,855.2686009398479
679,855.1696823155576
680,855.0709369580655
681,854.9724803718162
682,854.8744283697195
683,854.7768968298498
684,854.6800014738825
685,854.5838576672124
686,854.4885802397653
687,854.3942833256493
688,854.301080218679
689,854.2090832395171
690,854.1184036089808
691,854.0291513213539
692,853.9414350118385
693,853.8553618134467
694,853.7710372000021
695,853.688564813077
696,853.6080462718677
697,853.5295809664351
698,853.4532658360691
699,853.3791951351271
700,853.3074601884967
701,853.2381491386292
702,853.1713466868345
703,853.1071338332711
704,853.0455876219752
705,852.9867808984947
706,852.9307820880557
707,852.8776550019433
708,852.8274586793327
709,852.7802472714039
710,852.7360699739667
711,852.6949710134088
712,852.6569896885005
713,852.6221604682688
714,852.5905131445887
715,852.5620730371614
716,852.5368612474857
717,852.5148949568825
718,852.4961877617297
719,852.480750037281
720,852.4685893203367
721,852.4597107009105
722,852.4541172136098
723,852.4518102200219
724,852.4527897734704
725,852.4570549576621
726,852.4646041920889
727,852.4754354997968
728,852.4895467361384
729,852.5069357791368
730,852.5276006829338
731,852.5515397961559
732,852.5787518474356
733,852.6092360006037
734,852.6429918819288
735,852.6800195812265
736,852.7203196278921
737,852.7638929419655
738,852.8107407592379
739,852.8608645284502
740,852.9142657783138
741,852.9709459525498
742,853.0309062120252
743,853.0941472039909
744,853.1606687994032
745,853.230469800328
746,853.3035476200924
747,853.3798979389288
748,853.4595143376254
749,853.5423879116092
750,853.6285068681414
751,853.7178561097106
752,853.8104168070721
753,853.9061659658431
754,854.0050759914368
755,854.1071142580346
756,854.2122426874055
757,854.3204173422746
758,854.4315880373987
759,854.5456979707756
760,854.6626833779646
761,854.7824732137625
762,854.9049888666851
763,855.0301439124848
764,855.1578439131773
765,855.2879862678889
766,855.4204601216003
767,855.5551463377466
768,855.6919175404553
769,855.8306382316388
770,855.9711649870757
771,856.1133467341286
772,856.2570251118664
773,856.4020349120291
774,856.5482045967608
775,856.695356886892
776,856.84330941321
777,856.991875422639
778,857.1408645313926
779,857.2900835174631
780,857.4393371446472
781,857.5884290096616
782,857.7371624035055
783,857.8853411786364
784,858.0327706145591
785,858.1792582757289
786,858.3246148573191
787,858.4686550165409
788,858.6111981892992
789,858.7520693929723
790,858.8911000153232
791,859.0281285873914
792,859.1630015359028
793,859.2955739094622
794,859.4257100727324
795,859.5532843631986
796,859.6781817051491
797,859.8002981751356
798,859.919541512868
799,860.0358315716477
800,860.1491007030097
801,860.2592940707281
802,860.3663698890498
803,860.4702995787572
804,860.5710678330556
805,860.6686725844631
806,860.763124864673
807,860.8544485518838
808,860.9426800038402
809,861.027867579006
810,861.1100710519703
811,861.1893609315031
812,861.265817690542
813,861.339530917635
814,861.4105983997384
815,861.4791251467532
816,861.5452223683568
817,861.6090064134783
818,861.6705976826861
819,861.730119524171
820,861.7876971245063
821,861.8434564052983
822,861.8975229360636
823,861.950020872543
824,862.0010719285673
825,862.0507943890052
826,862.0993021715193
827,862.1467039456829
828,862.1931023187358
829,862.2385930970245
830,862.2832646308053
831,862.327197248143
832,862.3704627814465
833,862.4131241872722
834,862.4552352561415
835,862.4968404053742
836,862.5379745458534
837,862.578663013527
838,862.6189215575246
839,862.6587563784628
840,862.698164212774
841,862.7371324616081
842,862.7756393655947
843,862.8136542289361
844,862.8511376974379
845,862.8880420950467
846,862.9243118227313
847,862.9598838227008
848,862.9946881100212
849,863.0286483722332
850,863.0616826354765
851,863.0937039933519
852,863.1246213926961
853,863.1543404684902
854,863.1827644181138
855,863.2097949035666
856,863.2353329699807
857,863.2592799697388
858,863.2815384827196
859,863.3020132236429
860,863.3206119272891
861,863.3372462021404
862,863.3518323430558
863,863.3642920939651
864,863.3745533523313
865,863.3825508083223
866,863.3882265130678
867,863.3915303718668
868,863.3924205597642
869,863.390863858617
870,863.3868359163465
871,863.3803214300708
872,863.37131425515
873,863.3598174422494
874,863.345843204663
875,863.3294128183416
876,863.3105564571773
877,863.2893129661563
878,863.2657295753139
879,863.2398615580712
880,863.2117718379891
881,863.1815305477448
882,863.1492145433865
883,863.1149068765258
884,863.0786962280471
885,863.0406763090971
886,863.0009452371343
887,862.9596048952327
888,862.9167602818359
889,862.8725188573503
890,862.826989894445
891,862.7802838402861
892,862.732511700169
893,862.6837844524291
894,862.6342125040442
895,862.5839051950893
896,862.5329703584542
897,862.4815139392462
898,862.4296396762808
899,862.3774488459136
900,862.3250400660198
901,862.272509155454
902,862.2199490425103
903,862.167449715269
904,862.115098207107
905,862.0629786114264
906,862.0111721204082
907,861.9597570833693
908,861.9088090812659
909,861.8584010147101
910,861.8086032028808
911,861.7594834900207
912,861.711107355753
913,861.6635380258599
914,861.6168365809657
915,861.5710620609341
916,861.5262715623583
917,861.4825203254677
