frame_number,force
0,600.2713000000452
1,600.1993945676352
2,600.131518796308
3,600.0713666267291
4,600.0220057714763
5,599.9856665269394
6,599.9636291426507
7,599.9562131990494
8,599.9628522845705
9,599.9822198756747
10,600.012376262941
11,600.0509303676
12,600.0952244966815
13,600.1425375168122
14,600.1902848980542
15,600.236200708724
16,600.2785116687954
17,600.3161280924098
18,600.3488630914278
19,600.3776559264534
20,600.4047378060928
21,600.433658929542
22,600.4691058698032
23,600.5164768406798
24,600.5812358153837
25,600.668120012977
26,600.7803194852194
27,600.918774224305
28,601.0817308678564
29,601.2646573670205
30,601.4605369428433
31,601.6604820738272
32,601.8545592202321
33,602.0327055070854
34,602.1856294485539
35,602.3055952465484
36,602.3869964074494
37,602.4266506929213
38,602.4238012472833
39,602.3798673688756
40,602.2980271435367
41,602.1827244388454
42,602.0391806513837
43,601.8729659064384
44,601.6896546754316
45,601.4945691354515
46,601.2926068838599
47,601.0881473557954
48,600.8850145755343
49,600.686448744138
50,600.4950422195694
51,600.3126450681794
52,600.1403069193346
53,599.9783413502049
54,599.826558680217
55,599.6846427281769
56,599.552589325814
57,599.4311004800097
58,599.3218382914829
59,599.2274788718418
60,599.1515503528499
61,599.0980689559088
62,599.0710033076946
63,599.0736225077834
64,599.107826942338
65,599.1736017121582
66,599.2687411663222
67,599.3889477979715
68,599.5283069658662
69,599.6800168822732
70,599.8371778456852
71,599.9934586753718
72,600.1435419198644
73,600.2833436756822
74,600.4100615725024
75,600.5221147246931
76,600.6190192101033
77,600.7012186208259
78,600.7698804354129
79,600.8266745078405
80,600.8735546002601
81,600.9125587196585
82,600.945636706402
83,600.9745145365366
84,601.0006089250599
85,601.024997439503
86,601.0484292973377
87,601.0713516775081
88,601.0939345400091
89,601.1160878147774
90,601.1374690448501
91,601.1574866443377
92,601.1753158051459
93,601.1899461597177
94,601.2002659880117
95,601.2051693736723
96,601.2036624663979
97,601.1949425036261
98,601.1784261150332
99,601.1537159291439
100,601.1205181520758
101,601.078546432104
102,601.0274528891899
103,600.9668149001902
104,600.8961865422775
105,600.8152019881188
106,600.7236995521378
107,600.6218308881777
108,600.5101335190012
109,600.389562051579
110,600.2614783859939
111,600.1275971936082
112,599.9898848324248
113,599.8504205011116
114,599.7112374733418
115,599.5741657570776
116,599.4407004065915
117,599.311921347356
118,599.1884826703125
119,599.0706684326843
120,598.958488049362
121,598.8517731258199
122,598.7502441098628
123,598.6535329098556
124,598.5611707337433
125,598.472571636618
126,598.3870465689528
127,598.3038616976087
128,598.2223238199296
129,598.1418619988312
130,598.062087643125
131,597.9828377424446
132,597.9042156770984
133,597.8266386615468
134,597.750892623569
135,597.678186759329
136,597.6101831460921
137,597.5489561706798
138,597.496834406064
139,597.4561109947791
140,597.4286683198643
141,597.4156143207704
142,597.4170347888233
143,597.4319184064482
144,597.458234453461
145,597.4930813129903
146,597.5328136624732
147,597.5731034768812
148,597.6089658578999
149,597.6348392274459
150,597.6448150343659
151,597.6330613330035
152,597.5944072150533
153,597.5249931009005
154,597.4228694935956
155,597.288435039864
156,597.1246206304145
157,596.9367462266491
158,596.7320197252108
159,596.5187226614557
160,596.3052161923084
161,596.0989632839736
162,595.9057656293643
163,595.7293512531791
164,595.5713531359154
165,595.431634667473
166,595.3088620210735
167,595.2011921974917
168,595.106941323052
169,595.0251232830295
170,594.955786065818
171,594.9001039314272
172,594.8602141491272
173,594.8388310512848
174,594.8387181573706
175,594.8621259488815
176,594.9102964776142
177,594.9831048865094
178,595.0788691936616
179,595.194332096731
180,595.3248133792041
181,595.4645362810671
182,595.6071145009719
183,595.7461345330021
184,595.8757133054178
185,595.9909066772526
186,596.0879049022618
187,596.1640370687164
188,596.217668026171
189,596.2480857573638
190,596.2554473115043
191,596.2407979010388
192,596.2061321928578
193,596.1544488400745
194,596.0897534354008
195,596.0169787295291
196,595.9418098075547
197,595.8704224183427
198,595.8091565592623
199,595.7641486302738
200,595.7409361835945
201,595.744043259319
202,595.7765711263438
203,595.8398585754851
204,595.9333025537106
205,596.0544082646171
206,596.1990751055546
207,596.3620602928592
208,596.5375238691611
209,596.719548562273
210,596.9025390806185
211,597.0814388493443
212,597.2517574163069
213,597.4094600921754
214,597.5508049935402
215,597.6722099353824
216,597.7702002373708
217,597.8414448072066
218,597.8828561155292
219,597.8917302710548
220,597.8659279832589
221,597.8041120958617
222,597.706040835495
223,597.5728812743109
224,597.4074812568084
225,597.2145283438003
226,597.0005270483732
227,596.7735445473335
228,596.5427138068787
229,596.3175309074645
230,596.1070260405239
231,595.9189206044986
232,595.7589004020983
233,595.6301221988521
234,595.533024886528
235,595.465460014012
236,595.4231117467742
237,595.400143130957
238,595.3899777704654
239,595.3861063333327
240,595.3827983680245
241,595.3756059514477
242,595.3615802024647
243,595.3391891468407
244,595.3080036728595
245,595.2682752967263
246,595.2205453580139
247,595.1653970462428
248,595.103402692179
249,595.0352522770228
250,594.9619925389063
251,594.8852671775903
252,594.8074393130098
253,594.7315133765399
254,594.6608467621444
255,594.5987101790552
256,594.5477859478967
257,594.5096926400979
258,594.4846152661912
259,594.4711057229802
260,594.4660886541967
261,594.4650677889354
262,594.4624988077703
263,594.4522891203253
264,594.4283893180706
265,594.3854377414161
266,594.3194109225423
267,594.2282291339529
268,594.1122639293071
269,593.9746848935373
270,593.8215747864688
271,593.6617526476631
272,593.5062736292631
273,593.3676110425008
274,593.258566855562
275,593.1910036969964
276,593.1745397750464
277,593.2153857356072
278,593.3155098566393
279,593.4722759377942
280,593.6786123678047
281,593.9236782213684
282,594.1939261613015
283,594.4744235301561
284,594.7502697303202
285,595.0079383048188
286,595.236382810808
287,595.4277834429583
288,595.5778770565165
289,595.6858903581337
290,595.7541568335735
291,595.7875275383627
292,595.7926891485241
293,595.7774888789816
294,595.7503397875892
295,595.7197464816315
296,595.6939577978907
297,595.6807257198668
298,595.6871314095018
299,595.7194334358612
300,595.7829027786977
301,595.8816276021257
302,596.0182902906405
303,596.193941926013
304,596.4078229299917
305,596.6572832720167
306,596.9378269945363
307,597.2432603838025
308,597.5658967451554
309,597.896782966241
310,598.2259478922639
311,598.5426976417666
312,598.8359836181126
313,599.0948528649357
314,599.3089680056281
315,599.4691634256653
316,599.5679959293493
317,599.6002530472963
318,599.5633890937298
319,599.4578641030905
320,599.2873690568098
321,599.0589228349812
322,598.7828061018164
323,598.4722682267976
324,598.1429421107172
325,597.8119445467738
326,597.4967085567228
327,597.2136615984913
328,596.9769089643861
329,596.7970914435962
330,596.6805597304035
331,596.628958541928
332,596.6392526339735
333,596.7041591777024
334,596.8128888948197
335,596.9520656444445
336,597.1067050684088
337,597.2611788267693
338,597.4001463721067
339,597.5094717820583
340,597.5771385785404
341,597.5941279694655
342,597.5551552205452
343,597.4591090359239
344,597.3090589409354
345,597.1117940822812
346,596.8769813487752
347,596.6161125062482
348,596.3414221227129
349,596.0649221920997
350,595.7976519317116
351,595.5492010400477
352,595.3275229950423
353,595.1389980740071
354,594.9886488894255
355,594.8803892375164
356,594.8172111983715
357,594.8012643524346
358,594.8338292854021
359,594.91521944929
360,595.0446518438184
361,595.2201128597965
362,595.4382327356645
363,595.6941874185297
364,595.9816627542699
365,596.2929223321016
366,596.6190070893475
367,596.9500670414154
368,597.2757940809544
369,597.5859032566552
370,597.8706128074051
371,598.1211034860232
372,598.3299742579861
373,598.4917184831319
374,598.603205208438
375,598.6640904599853
376,598.6770518104918
377,598.647759672361
378,598.5845534121913
379,598.4978474598666
380,598.3993349067409
381,598.301083152939
382,598.2146251837092
383,598.1501312751291
384,598.1157060852108
385,598.1168278003079
386,598.1559533870059
387,598.2323399773412
388,598.3421359420187
389,598.478756462446
390,598.6334998746039
391,598.7963218221041
392,598.9566783092181
393,599.1043605647313
394,599.2302601528615
395,599.3270223774434
396,599.3895677043677
397,599.4154725548836
398,599.4051951467954
399,599.3621174440025
400,599.292365425888
401,599.2043749551198
402,599.1081924697223
403,599.014541920749
404,598.9337462358978
405,598.8746401377647
406,598.8436293256117
407,598.8440372631952
408,598.875842365838
409,598.9358458842347
410,599.0182294323014
411,599.1153845992313
412,599.2188556550515
413,599.3202422823384
414,599.4119484403163
415,599.487709676972
416,599.542868422358
417,599.5743987786805
418,599.5807196358269
419,599.5613757911647
420,599.5166941714256
421,599.4475162465645
422,599.3550630300164
423,599.2409293845074
424,599.1071671656647
425,598.9564130074743
426,598.7920233126821
427,598.61817582853
428,598.4398884766787
429,598.2629079296173
430,598.0934416716453
431,597.9377446525617
432,597.8016139586879
433,597.6898752833868
434,597.6059464014769
435,597.5515355352836
436,597.5264983944114
437,597.5288559678262
438,597.5549633109839
439,597.5998100761238
440,597.6574321985322
441,597.7214204452331
442,597.7855009024147
443,597.8441198901579
444,597.8929219929722
445,597.9290141062628
446,597.9509703353602
447,597.9586113147543
448,597.9526398642182
449,597.9342199715353
450,597.9045667503472
451,597.8645946254292
452,597.8146599731424
453,597.7544330209508
454,597.6829372652351
455,597.5987892064928
456,597.500638564
457,597.3877473886872
458,597.2605809806767
459,597.1212533664487
460,596.9737010327251
461,596.8235399748474
462,596.677650627243
463,596.5435919627516
464,596.4289568579596
465,596.3407604370801
466,596.2849256780513
467,596.2659071866261
468,596.2864685005513
469,596.3475982111862
470,596.4485306089568
471,596.5868417948601
472,596.758614353488
473,596.9586797425891
474,597.1809414729081
475,597.4187554004139
476,597.6653136038342
477,597.9139694732532
478,598.1584644925673
479,598.3930572177874
480,598.6125863297272
481,598.8125072847819
482,598.9889310425315
483,599.1386834415601
484,599.2594082884883
485,599.3497429121928
486,599.4095749163035
487,599.4403391096248
488,599.4452662395964
489,599.4294861765802
490,599.399919484357
491,599.3649387568962
492,599.3338275493177
493,599.3161033186992
494,599.3207896744511
495,599.3557118361327
496,599.4268573637097
497,599.5378213533917
498,599.6893617707992
499,599.8791144568183
500,600.1015319405411
501,600.3481043981212
502,600.6078956818229
503,600.8683825540845
504,601.1165286262618
505,601.3399724791883
506,601.5281769782544
507,601.6733854660133
508,601.7712647246694
509,601.8211710090094
510,601.826030809843
511,601.791870935203
512,601.7270668190226
513,601.6414083868837
514,601.5451056996002
515,601.4478618907262
516,601.3581214302197
517,601.2825617207849
518,601.2258487400354
519,601.1906348592829
520,601.1777433218953
521,601.186462621049
522,601.2148767228762
523,601.2601893252369
524,601.3190446231661
525,601.3878762487487
526,601.463312758947
527,601.542628193161
528,601.6241656081565
529,601.707614672128
530,601.7940223488739
531,601.8854697606969
532,601.9844466226805
533,602.0930592784429
534,602.2122705143175
535,602.3413611455497
536,602.4777335656571
537,602.617081339265
538,602.7538644124387
539,602.8819756975893
540,602.9954646760999
541,603.0891991227137
542,603.1593917636355
543,603.2039689374617
544,603.2227830314788
545,603.2176654628737
546,603.1923052974349
547,603.1519416175531
548,603.102876167072
549,603.0518362250994
550,603.0052413132795
551,602.9684529130944
552,602.9451089347908
553,602.9366467208639
554,602.9420869355603
555,602.9580986152833
556,602.9793210306439
557,602.9988930903526
558,603.0091282523659
559,603.0022679139687
560,602.9712526676105
561,602.9104607436846
562,602.8163544941299
563,602.6879459292968
564,602.5269778028239
565,602.337756352491
566,602.1266582033422
567,601.9014222753648
568,601.670384318236
569,601.4417954386826
570,601.2232982379072
571,601.0215573062632
572,600.8419941904172
573,600.6885679395189
574,600.5635566643809
575,600.4673204281345
576,600.3980582530444
577,600.3516122064324
578,600.3214098267791
579,600.2986513542836
580,600.272823564614
581,600.232560458249
582,600.1667905543795
583,600.0660303670336
584,599.9236248378519
585,599.7367211769287
586,599.5068005368095
587,599.2396691832059
588,598.9449098345002
589,598.6348939522056
590,598.3235269969169
591,598.0249203333082
592,597.7521577136883
593,597.5162648980345
594,597.3254229702316
595,597.184425589707
596,597.0943835223933
597,597.0527015540005
598,597.0533586496117
599,597.0875008725617
600,597.1443163494573
601,597.2121139186283
602,597.2794846894836
603,597.336402779375
604,597.375126780111
605,597.390798338989
606,597.3816919223779
607,597.3491285772197
608,597.2970997058892
609,597.2316517594556
610,597.1600821055033
611,597.0900094525115
612,597.0284085628334
613,596.9807241012871
614,596.950185629758
615,596.9374266096314
616,596.9404676814655
617,596.9550678315578
618,596.975389410715
619,596.9948768938837
620,597.0072184093524
621,597.0072419879699
622,596.9916040660264
623,596.9591705342174
624,596.9110640408888
625,596.8504218300847
626,596.781943568072
627,596.7113045160655
628,596.6444926056998
629,596.5871295021309
630,596.5438584993713
631,596.5178997798133
632,596.5108603223175
633,596.5228351702406
634,596.552761261257
635,596.5989119925952
636,596.6593832548932
637,596.7324408046186
638,596.8166675642046
639,596.9109307651497
640,597.0142381112961
641,597.1255531826306
642,597.2436161795142
643,597.3667972453768
644,597.4930014142778
645,597.6196344892131
646,597.7436249277531
647,597.86149161701
648,597.9694623656501
649,598.0636703702714
650,598.140456660198
651,598.1967737679756
652,598.2306387035122
653,598.241547436641
654,598.2307528536644
655,598.2013310910451
656,598.1580137182135
657,598.1068233719866
658,598.0545906301406
659,598.0084343598699
660,597.9752593381819
661,597.9612845762097
662,597.9715894215742
663,598.0096657213812
664,598.0769910232896
665,598.1726788680455
666,598.293299796313
667,598.4329766858971
668,598.5838208670165
669,598.7366942467463
670,598.8821907744981
671,599.0116735760064
672,599.1182051954299
673,599.1972508244756
674,599.2470819379814
675,599.2688406317969
676,599.2662515234233
677,599.2450051161971
678,599.2118855231545
679,599.1737618054153
680,599.1365934448112
681,599.1046138477756
682,599.0798453834419
683,599.0620503650582
684,599.0491301015463
685,599.0378750812516
686,599.0248870042515
687,599.0074632845833
688,598.984255562927
689,598.9555761965611
690,598.9233170034972
691,598.8905357032513
692,598.860827257689
693,598.8376189512167
694,598.8235212124981
695,598.8198445973154
696,598.8263588753321
697,598.8413213481144
698,598.8617461664223
699,598.8838429992107
700,598.9035403133557
701,598.9170227136863
702,598.9212273617421
703,598.914247205396
704,598.8955924970998
705,598.8662796770408
706,598.8287419353138
707,598.7865795775613
708,598.7441869746982
709,598.7063022732285
710,598.6775262419783
711,598.6618562282913
712,598.6622865356804
713,598.6805308769746
714,598.7169123512374
715,598.7704375248535
716,598.8390331672337
717,598.9198891948234
718,599.0098276231438
719,599.1056117856338
720,599.2041298448888
721,599.3024339730624
722,599.3976792226306
723,599.4870548574025
724,599.5678079054045
725,599.6374206427238
726,599.6939417704558
727,599.7364095305987
728,599.7652585229031
729,599.7825828170496
730,599.7921491155894
731,599.7991124967338
732,599.8094595202549
733,599.829266092556
734,599.8639016712334
735,599.9173286917392
736,599.9916233480369
737,600.0867815768571
738,600.2007986573255
739,600.3299621048484
740,600.4692980981791
741,600.613141138892
742,600.7558063095956
743,600.8923074531849
744,601.0190094707832
745,601.1340805002545
746,601.2376449627886
747,601.3316117547497
748,601.4192270835695
749,601.5044545231386
750,601.5913070628167
751,601.6832490528437
752,601.7827565699371
753,601.8910790444029
754,602.0081932891665
755,602.132899670401
756,602.2629930708995
757,602.395453650774
758,602.526634998649
759,602.6524586356013
760,602.7686407048562
761,602.8709816906219
762,602.9557411078152
763,603.0200851655555
764,603.0625417055571
765,603.083354709411
766,603.0846323651274
767,603.0702315807238
768,603.0453925974949
769,603.0161961997892
770,602.9889379511047
771,602.9694968781951
772,602.9627466400716
773,602.9720461459912
774,602.9988554440637
775,603.0425292908336
776,603.1003309473986
777,603.1676855851821
778,603.2386628939806
779,603.3066466711011
780,603.3651207408059
781,603.4084781165411
782,603.432741141411
783,603.4360666984509
784,603.41891941125
785,603.3838459750476
786,603.3348720824955
787,603.2766392714461
788,603.2134626816716
789,603.1484968031951
790,603.0831489703837
791,603.0168095847299
792,602.9469070752098
793,602.8692571517716
794,602.7786490338692
795,602.6695821535625
796,602.5370372595665
797,602.3771498967039
798,602.187666918072
799,601.9681169425348
800,601.7197047592635
801,601.4450149411286
802,601.1476422535488
803,600.8318437359494
804,600.502257823094
805,600.1636946287282
806,599.8209746325986
807,599.4787767002758
808,599.1414640173481
809,598.8128945131709
810,598.4962646682272
811,598.1940474846187
812,597.9080575139013
813,597.6396284160808
814,597.3898513735861
815,597.1598113411492
816,596.9507670601781
817,596.7642376154923
818,596.6019761242319
819,596.4658261063853
820,596.3574673261385
821,596.2780746369572
822,596.2279449697254
823,596.2061801203928
824,596.2105163738587
825,596.237357221489
826,596.2820128003168
827,596.3390984544608
828,596.4030024085484
829,596.4683148219498
830,596.5301382797288
831,596.5842652769431
832,596.6272696356323
833,596.6565782718795
834,596.6705639272428
835,596.6686513761977
836,596.6513867615813
837,596.62040203223
838,596.5782218734058
839,596.5279063285428
840,596.4725862387999
841,596.4150031496176
842,596.3571757920353
843,596.3002723119373
844,596.2447002730646
845,596.1903696772689
846,596.1370496800246
847,596.0847295023855
848,596.0339114120831
849,595.9857974199637
850,595.9423564427062
851,595.9062648499221
852,595.880717915812
853,595.8691317023442
854,595.8747851043281
855,595.9004619050303
856,595.9481322419799
857,596.018683206262
858,596.1116960176215
859,596.225277184421
860,596.3559710179608
861,596.4987951543874
862,596.6474345792652
863,596.7946014762051
864,596.9325379289196
865,597.0536228265211
866,597.1510339314304
867,597.2193992080755
868,597.2553602869524
869,597.2579788434665
870,597.2289345995579
871,597.1724806205713
872,597.0951439958633
873,597.0051947079626
874,596.9119422431402
875,596.8249392228985
876,596.7531656204269
877,596.7042471298317
878,596.6837475167713
879,596.6945799894729
880,596.7366043748872
881,596.8064971270131
882,596.8979719196865
883,597.0023750554366
884,597.1095991244282
885,597.2091826872968
886,597.2914180749659
887,597.3482889986755
888,597.3741068852427
889,597.3657899643798
890,597.3228008447455
891,597.246807130601
892,597.1411553884105
893,597.0102582300149
894,596.858989735623
895,596.6921679618763
896,596.5141831073477
897,596.3288115540852
898,596.1392322747153
899,595.9482237046329
900,595.7584714279341
901,595.5728783207601
902,595.3947589050946
903,595.2278304400188
904,595.0759785769518
905,594.94284806933
906,594.8313560765408
907,594.7432302986591
908,594.6786454553375
909,594.6359948092582
910,594.6118121261801
911,594.6008602126647
912,594.5964083589645
913,594.5907076118855
914,594.5756371352003
915,594.5434622431881
916,594.4876330711154
917,594.4035484833886
