frame_number,force
0,609.7440700000454
1,609.6922613808316
2,609.648957865662
3,609.6214443288559
4,609.6147152955908
5,609.6307028031335
6,609.667930081672
7,609.7216619764217
8,609.784532922033
9,609.847542638434
10,609.9012520497805
11,609.9369989858442
12,609.9479772256431
13,609.9300635801599
14,609.8823149320488
15,609.8070861700115
16,609.7097539874472
17,609.5980790461379
18,609.4812924367193
19,609.3690354954691
20,609.2702982776876
21,609.1924872901626
22,609.1407244523249
23,609.1174525315571
24,609.1223890776962
25,609.1528194835763
26,609.204162902537
27,609.2707038517831
28,609.3463650110843
29,609.4254048515061
30,609.5029572384028
31,609.575373191084
32,609.640356611376
33,609.6969070853826
34,609.7451090104921
35,609.7858346371853
36,609.8204349018495
37,609.8504624556822
38,609.8774289034853
39,609.9025834803277
40,609.9267247026476
41,609.9500876558749
42,609.9723472321573
43,609.9927351921662
44,610.0102189949346
45,610.0236723602986
46,610.0319909914722
47,610.0341493313161
48,610.0292297679526
49,610.016471904504
50,609.9953783055238
51,609.9658698483961
52,609.9284303288281
53,609.8841649811166
54,609.834743931642
55,609.7822669541105
56,609.7291058153237
57,609.677744502804
58,609.6305968052226
59,609.5897839858745
60,609.5568989836958
61,609.5328220377405
62,609.5176463476151
63,609.5107258217107
64,609.5108095189745
65,609.5162093701292
66,609.5249570878083
67,609.5349285482491
68,609.5439442912665
69,609.5498846028147
70,609.5508624093036
71,609.545464652587
72,609.5330275084084
73,609.5138843023966
74,609.4895217294968
75,609.4625917445992
76,609.4367532182148
77,609.4163559799538
78,609.4060126370582
79,609.4101172482063
80,609.4323744794885
81,609.4754112056023
82,609.5405386046957
83,609.6276893762725
84,609.7354857941674
85,609.8613577610383
86,610.0016629740826
87,610.1518325582963
88,610.3066057425901
89,610.4603894319091
90,610.6077118161004
91,610.7436924336171
92,610.8644532607856
93,610.967427608679
94,611.0515510023954
95,611.1173227363796
96,611.166714149802
97,611.2028928886269
98,611.2297565032015
99,611.251325310083
100,611.271103593064
101,611.2915434002356
102,611.3137220505205
103,611.3372850837766
104,611.3606364415466
105,611.3813020495912
106,611.3963656352512
107,611.4028791556544
108,611.39818093839
109,611.3800995001951
110,611.3470579574059
111,611.2981104202183
112,611.232945807263
113,611.1518975794696
114,611.0559959227676
115,610.947079231478
116,610.827942825548
117,610.702460146084
118,610.5755887096441
119,610.4531884709249
120,610.3416306428564
121,610.2472308663988
122,610.1755755646665
123,610.13082972665
124,610.115135375716
125,610.1282230133986
126,610.1673325293493
127,610.2274681969903
128,610.3019319158711
129,610.3830342336062
130,610.4628768459615
131,610.5341057711074
132,610.5905409269456
133,610.6276087232378
134,610.6425454295113
135,610.6343883406943
136,610.6038112669614
137,610.5528770588832
138,610.4847710770566
139,610.4035564586642
140,610.3139653901138
141,610.2212161934128
142,610.1308307431738
143,610.0484222476681
144,609.9794220881666
145,609.9287171593311
146,609.9001920025897
147,609.8962181118123
148,609.9171830775283
149,609.9611741070888
150,610.0239142945691
151,610.0990072169109
152,610.1784894664796
153,610.2536296051829
154,610.3158547104948
155,610.357647607063
156,610.3732600703688
157,610.3591418313292
158,610.3140710338436
159,610.2390400499203
160,610.1369707420101
161,610.012319437362
162,609.870613563743
163,609.71795120818
164,609.5604936059924
165,609.4039944145279
166,609.2534318761219
167,609.1128072061417
168,608.9851172342413
169,608.8724264714962
170,608.7759207451978
171,608.6958641593739
172,608.6314748957776
173,608.580812488991
174,608.540784446796
175,608.5073409143837
176,608.4758639771446
177,608.441698209671
178,608.4007277795346
179,608.3498935356715
180,608.2875605864048
181,608.2136833809915
182,608.1297602747903
183,608.0386104992986
184,607.9440302117858
185,607.8503885805605
186,607.7622215551569
187,607.6838747241478
188,607.6192246396089
189,607.57146999878
190,607.5429588898238
191,607.5350266762324
192,607.547845758847
193,607.5803090913995
194,607.6299814241952
195,607.6931627738594
196,607.7651081868559
197,607.8404178557664
198,607.9135548662215
199,607.9793963647184
200,608.0337112834823
201,608.073489776617
202,608.0971032368833
203,608.1043191294069
204,608.0962133843849
205,608.0750109590991
206,608.0438555100352
207,608.006491458051
208,607.9668583326562
209,607.9286386662891
210,607.8948394847679
211,607.8675043345835
212,607.8476368061554
213,607.8353637753843
214,607.8302934392705
215,607.8319612331644
216,607.8402312116349
217,607.8555407944981
218,607.8789319740448
219,607.911873530256
220,607.9559226761156
221,608.0122978389581
222,608.0814451367571
223,608.1626844463246
224,608.2540147474813
225,608.3521382910228
226,608.4527269594865
227,608.5509042814524
228,608.6418655055525
229,608.7215261764966
230,608.7870861334818
231,608.8374139409801
232,608.8731889454673
233,608.8967814020566
234,608.9118987395618
235,608.9230675894538
236,608.935048461687
237,608.9522867683792
238,608.9784857710129
239,609.0163476309033
240,609.0674821781295
241,609.132445114618
242,609.2108496100655
243,609.3015043270369
244,609.4025612432238
245,609.511683992228
246,609.6262463500955
247,609.7435426830613
248,609.8609660873944
249,609.9761099225378
250,610.0867739990953
251,610.1908917993554
252,610.2864263260075
253,610.3713011162723
254,610.443428217746
255,610.5008580175539
256,610.5420193204336
257,610.5659744126147
258,610.5726088092767
259,610.56270673294
260,610.5379065383158
261,610.5005613019601
262,610.4535414173023
263,610.4000162258051
264,610.343249920276
265,610.2864427906283
266,610.2326364558686
267,610.1846821196714
268,610.1452530860344
269,610.1168718678754
270,610.1019145617986
271,610.1025517768761
272,610.1205983453424
273,610.1572764716778
274,610.2129328642974
275,610.286773691319
276,610.3766879173955
277,610.4792200940564
278,610.5897284821175
279,610.7027262534409
280,610.8123595139095
281,610.9129408830858
282,610.999450179114
283,611.0679388005645
284,611.1158119675159
285,611.1419894327908
286,611.1469542189079
287,611.1326941240425
288,611.1025279801638
289,611.0608035357175
290,611.0124729195265
291,610.9625876385336
292,610.915781261904
293,610.8758118588969
294,610.8452293430204
295,610.825223375343
296,610.8156863582011
297,610.8154855316509
298,610.8228864662211
299,610.8360268721798
300,610.8533252832302
301,610.8737331860735
302,610.8967903696581
303,610.9224967647261
304,610.9510516668892
305,610.9825335000448
306,611.0166057968904
307,611.0523297481076
308,611.0881305890323
309,611.1219191668345
310,611.1513400604003
311,611.1741067918223
312,611.1883691048586
313,611.1930289671471
314,611.1879076881578
315,611.173696897546
316,611.1517002534515
317,611.1234550649585
318,611.0903668642947
319,611.0534697436967
320,611.0133558888645
321,610.9702459670528
322,610.924140280226
323,610.874999680282
324,610.8229209337348
325,610.7682715184319
326,610.711744033227
327,610.6542955271615
328,610.5969545336994
329,610.5405095354781
330,610.4851367616463
331,610.4300669959787
332,610.3734034923657
333,610.312169926264
334,610.2425993254392
335,610.1606073085916
336,610.0623601879978
337,609.9448547054541
338,609.8064476010964
339,609.6472885041817
340,609.4696128033307
341,609.2778435419877
342,609.0784456080598
343,608.8794971517549
344,608.690000905657
345,608.5190223143636
346,608.3747757689546
347,608.26377968354
348,608.1901826225536
349,608.1553388992074
350,608.1576871057803
351,608.1929566295946
352,608.2546849309742
353,608.3349668482575
354,608.425296523809
355,608.5173405584262
356,608.6035185815838
357,608.6773471521035
358,608.7335838210369
359,608.7682573886439
360,608.7786782667995
361,608.7634949139798
362,608.7228097868364
363,608.6583100463547
364,608.5733294258358
365,608.4727559222223
366,608.362734294551
367,608.2501654106449
368,608.1420558626903
369,608.0448101207687
370,607.9635805317018
371,607.9017908288275
372,607.8609195493113
373,607.8405775545847
374,607.8388538430854
375,607.8528452793532
376,607.8792397140368
377,607.9148100440494
378,607.956711795722
379,608.0025444685994
380,608.0502101056048
381,608.0976600664003
382,608.1426480739289
383,608.1825964735391
384,608.2146383223965
385,608.2358388023522
386,608.2435486123399
387,608.2358133378503
388,608.2117544391471
389,608.171841589079
390,608.1179913700092
391,608.0534571515858
392,607.9825164048837
393,607.9100035515606
394,607.8407669406238
395,607.779140197504
396,607.7285090661786
397,607.691030811024
398,607.6675342727626
399,607.657600396108
400,607.6597949535598
401,607.6719987571411
402,607.6917678924888
403,607.7166695748946
404,607.7445669712581
405,607.7738429309438
406,607.803552395594
407,607.8334901876686
408,607.8641610999277
409,607.8966421576705
410,607.9323392990066
411,607.9726695410119
412,608.0187388091118
413,608.0711122245239
414,608.1297590761873
415,608.1941937993463
416,608.2637633804404
417,608.3379944043223
418,608.4169129520817
419,608.501262245387
420,608.592555982145
421,608.6929273469423
422,608.8047661895806
423,608.9301777419457
424,609.0703503422159
425,609.2249798481017
426,609.3919282720148
427,609.5672557135598
428,609.7456613623903
429,609.9212466002897
430,610.0884229895144
431,610.2427596961833
432,610.3815978530658
433,610.5043306825806
434,610.6123277335355
435,610.7085455469796
436,610.7969086916777
437,610.8815705899138
438,610.9661764873193
439,611.0532503104566
440,611.143812127267
441,611.2372970642192
442,611.3317839424512
443,611.4244688955089
444,611.5122680932703
445,611.5924174409694
446,611.6629453829896
447,611.7229246249921
448,611.772465943654
449,611.8124901556907
450,611.8443709724842
451,611.8695557520714
452,611.889240793595
453,611.9041282413709
454,611.9142590635456
455,611.9189170022477
456,611.916618924182
457,611.9052232393501
458,611.882181633912
459,611.8449287085596
460,611.7913659264578
461,611.7203689683876
462,611.632234258539
463,611.528977208995
464,611.4144077348112
465,611.2939466999574
466,611.1742028037222
467,611.0623791403171
468,610.9655997340661
469,610.8902360796253
470,610.8412932569626
471,610.8219085971335
472,610.833020960968
473,610.8732592127765
474,610.9390597940476
475,611.0249736543117
476,611.1240948960286
477,611.2285525801767
478,611.3300369863388
479,611.4203516521115
480,611.4919794210335
481,611.5386338267613
482,611.5557461285366
483,611.5408173987339
484,611.4935579308241
485,611.4157619781532
486,611.3109244918958
487,611.1836726675997
488,611.0391287139655
489,610.8823282898585
490,610.717797164178
491,610.5493468310597
492,610.3800939401782
493,610.2126478744799
494,610.049363887472
495,609.8925448564779
496,609.7445025537104
497,609.6074530209854
498,609.4832936907376
499,609.3733552158493
500,609.2782171975683
501,609.1976358505891
502,609.1305829470311
503,609.0753614132334
504,609.0297531206678
505,608.9911688331847
506,608.9567947436828
507,608.9237427399896
508,608.8892080853996
509,608.85063278038
510,608.8058690532888
511,608.7533261847292
512,608.6920731150906
513,608.6218807651217
514,608.5432211659265
515,608.4572653379026
516,608.3659087926216
517,608.2718018754045
518,608.1783074799341
519,608.0893005360159
520,608.0087813959636
521,607.9403644405803
522,607.8867650353027
523,607.849411027719
524,607.8282624702396
525,607.8218660817411
526,607.8276204964459
527,607.8421929917622
528,607.8620101496367
529,607.8837433067891
530,607.9047211826722
531,607.9232179902696
532,607.9385775942868
533,607.9511486329172
534,607.9620376090253
535,607.9727360199445
536,607.9847158201441
537,607.999088821586
538,608.0163967413669
539,608.036565581411
540,608.0590303257217
541,608.0830052080867
542,608.1078404959792
543,608.1333822857536
544,608.1602511558496
545,608.1899800642127
546,608.224986777059
547,608.268384141223
548,608.32365039519
549,608.394199783217
550,608.4829112391525
551,608.5916785214785
552,608.7210329099515
553,608.8698696864864
554,609.0352970264607
555,609.2126239353537
556,609.3955044654369
557,609.5762489511601
558,609.7462944020705
559,609.8968013223315
560,610.0193298696747
561,610.1065533231656
562,610.1529743591922
563,610.1555938650594
564,610.1144455992935
565,610.032886727095
566,609.9175497328088
567,609.7779100494549
568,609.6254891077532
569,609.4727825520295
570,609.3320601617779
571,609.2142029558844
572,609.127718181696
573,609.078025752466
574,609.0670645467039
575,609.0932338886977
576,609.1516644469236
577,609.2347968906854
578,609.3332250368285
579,609.4367277218327
580,609.5353753808828
581,609.620566511617
582,609.6858436629689
583,609.727371105145
584,609.7440242722564
585,609.7371255754017
586,609.7099327378542
587,609.6670155002708
588,609.6136372163791
589,609.5552154615757
590,609.4969034710123
591,609.4433151331219
592,609.3983913963104
593,609.3653727931301
594,609.346819465489
595,609.344618405568
596,609.3599365393463
597,609.3931145722539
598,609.443543199972
599,609.5096008324202
600,609.58873203565
601,609.6776972104446
602,609.7729557094998
603,609.871099833751
604,609.9692462171452
605,610.0653000753555
606,610.1580358823941
607,610.2469881563164
608,610.3321980686762
609,610.4138894728852
610,610.4921496959832
611,610.5666809856151
612,610.6366755995866
613,610.7008479799298
614,610.7576276085949
615,610.8054794575385
616,610.8432879345957
617,610.8707268129156
618,610.8885399022497
619,610.8986679787262
620,610.9041796119184
621,610.9089996103585
622,610.9174709104564
623,610.9338265905599
624,610.9616794295765
625,611.0036355071003
626,611.0610929738117
627,611.1342193284993
628,611.2220499056194
629,611.3226387551045
630,611.4332137808002
631,611.5503166262826
632,611.669924979575
633,611.787563031024
634,611.8984171053762
635,611.9974857417827
636,612.0797919098525
637,612.1406652978715
638,612.1760764310733
639,612.1829831608004
640,612.159636804109
641,612.105793835413
642,612.0227960808302
643,611.9135137399073
644,611.7821733325264
645,611.6341015344949
646,611.4754074761627
647,611.3126149483796
648,611.1522560202657
649,611.0004517549099
650,610.8625225036087
651,610.7426742004453
652,610.643795196883
653,610.5673787272493
654,610.5135667621599
655,610.4812990216103
656,610.4685511777623
657,610.4726470807099
658,610.490610940939
659,610.5194927190187
660,610.5565881630242
661,610.599506900807
662,610.646105042131
663,610.6943559882945
664,610.7422473159021
665,610.7877534319975
666,610.8288725665498
667,610.8636743379586
668,610.8903039525052
669,610.9069286059121
670,610.9116643636308
671,610.9025490464018
672,610.8776109465376
673,610.8350449578907
674,610.7734740701093
675,610.6922519197511
676,610.5917520750464
677,610.4735937053028
678,610.3407597144864
679,610.1975636057283
680,610.0494340520689
681,609.902529767684
682,609.7632502042674
683,609.6377283789323
684,609.531369854448
685,609.4484645022861
686,609.3918762849514
687,609.3628183212363
688,609.3607335839266
689,609.3833073679434
690,609.4266240576898
691,609.4854518281693
692,609.5536124230622
693,609.6243851416714
694,609.6909077847854
695,609.7465630573654
696,609.7853599086848
697,609.8023206992326
698,609.7938683864254
699,609.75818949078
700,609.6955371691049
701,609.6084277432461
702,609.5016710842026
703,609.382172920228
704,609.2584700504996
705,609.140007793956
706,609.0362275609573
707,608.9555838732302
708,608.9046413101418
709,608.8873974363362
710,608.9049278211851
711,608.9553708985327
712,609.0342038374754
713,609.1347326785233
714,609.2487230438262
715,609.367110618824
716,609.4807448233842
717,609.5811306096882
718,609.6611270186634
719,609.7155303480304
720,609.741442246936
721,609.7383383286337
722,609.7078160464761
723,609.6530785375701
724,609.5782693064032
725,609.4877973931457
726,609.385783591284
727,609.2757161478017
728,609.1603360788067
729,609.0417031715918
730,608.9213580463673
731,608.8005048427623
732,608.6801738322949
733,608.5613586372451
734,608.4451442227324
735,608.3328398407095
736,608.2261061085761
737,608.1270384836226
738,608.0381639130169
739,607.9623239975941
740,607.9024447039772
741,607.8612223095581
742,607.8407770121812
743,607.8423276426328
744,607.8659337022721
745,607.9103550294959
746,607.9730858003444
747,608.0505984981187
748,608.1387788960647
749,608.2334696534647
750,608.3309973648056
751,608.428554857061
752,608.5243505530343
753,608.6175052848831
754,608.707749231547
755,608.7950261690071
756,608.8791374878947
757,608.9595474778968
758,609.0354195310462
759,609.1058719124605
760,609.1703667150283
761,609.2291111181532
762,609.2833603341703
763,609.3355443016565
764,609.3891763963051
765,609.4485412372186
766,609.5182005273269
767,609.6023876133709
768,609.7043721969482
769,609.8258755853227
770,609.9666161229493
771,610.1240602706143
772,610.2934424280129
773,610.4680978965023
774,610.6401191638039
775,610.8012840492974
776,610.9441309325792
777,611.0630046570058
778,611.1548857702734
779,611.2198498599113
780,611.2610758451239
781,611.2844049428015
782,611.2975176689955
783,611.3088412162094
784,611.3263315030713
785,611.356294965617
786,611.4024231018727
787,611.465198661738
788,611.5417812172666
789,611.6263930581987
790,611.7111305386749
791,611.7870535254511
792,611.845372692053
793,611.8785568461898
794,611.8812081898976
795,611.8505970043464
796,611.7868091485191
797,611.6925313343645
798,611.5725579183778
799,611.4331324111749
800,611.2812436956248
801,611.123992502727
802,610.9681184165829
803,610.8197185984864
804,610.6841159886408
805,610.5657890254836
806,610.4682796973154
807,610.3940412770223
808,610.3442453516421
809,610.318614961734
810,610.3153684798489
811,610.3313394784075
812,610.3622889851482
813,610.4033704449937
814,610.4496684495865
815,610.4967194541921
816,610.5409314185341
817,610.5798435239133
818,610.6122023208462
819,610.6378682537463
820,610.6575957314706
821,610.6727421515416
822,610.6849525720478
823,610.695844457212
824,610.7067026751573
825,610.7182073443518
826,610.7302462043281
827,610.7418750918329
828,610.7514637054757
829,610.7570078554725
830,610.756528161384
831,610.7484363131672
832,610.7317552996984
833,610.7061324001315
834,610.6716635572327
835,610.6286181364868
836,610.5771789405293
837,610.5172888163962
838,610.4486462017594
839,610.3708400958864
840,610.283570728652
841,610.1868750159186
842,610.0812770647519
843,609.9678184260983
844,609.8479793669499
845,609.7235535400839
846,609.5965541345499
847,609.4691998296115
848,609.3439746408167
849,609.2237117780535
850,609.1116381847138
851,609.0113316070768
852,608.9265684405004
853,608.8610568069895
854,608.8180531643623
855,608.7998757554548
856,608.8073717419428
857,608.8394503732444
858,608.8928217669659
859,608.9620490406415
860,609.0399399452872
861,609.1182193861168
862,609.1883754334535
863,609.2425567215225
864,609.2743973785172
865,609.2796541114564
866,609.2565718011658
867,609.2059485915763
868,609.1309251923518
869,609.0365507938504
870,608.9291823682773
871,608.8157819760165
872,608.7031987821309
873,608.5975341964797
874,608.5036648796369
875,608.4249523009415
876,608.3631360104547
877,608.3184064105147
878,608.2896568498105
879,608.2748906520154
880,608.2717120731485
881,608.2778043641721
882,608.291314356646
883,608.3110942949663
884,608.3367714372739
885,608.3686333300632
886,608.4073457085779
887,608.4535558875159
888,608.5074703152433
889,608.5685211884338
890,608.635225686678
891,608.7052738725538
892,608.7757919491052
893,608.8436795897771
894,608.9059361978545
895,608.959939044402
896,609.0036761792192
897,609.0359524034093
898,609.0565795800088
899,609.0665418068199
900,609.0681011419329
901,609.0647918712642
902,609.0612518362951
903,609.0628611715597
904,609.075197843506
905,609.1033721119405
906,609.1513586114678
907,609.2214781380436
908,609.3141615337054
909,609.4280524564259
910,609.5604066014138
911,609.7076668098417
912,609.8660667586221
913,610.0321441026314
914,610.2031038263323
915,610.377027899068
916,610.5529530105078
917,610.7308357942009
918,610.9114170904219
