frame_number,force
0,692.3114700068654
1,692.299698530141
2,692.2880783977379
3,692.276760154795
4,692.2658927591024
5,692.2556228129749
6,692.2460938213367
7,692.2374454798241
8,692.2298129954925
9,692.223326442525
10,692.2181101557749
11,692.2142821655841
12,692.2119536775771
13,692.211228600366
14,692.2122031222987
15,692.2149653362816
16,692.219594910276
17,692.2261628006515
18,692.2347310059108
19,692.2453523589573
20,692.258070356852
21,692.2729190279478
22,692.2899228374529
23,692.3090966337013
24,692.330445638305
25,692.3539654834229
26,692.3796422983878
27,692.407452846231
28,692.4373647088738
29,692.4693365183728
30,692.5033182307998
31,692.5392514390974
32,692.5770697213363
33,692.6166990211487
34,692.6580580578673
35,692.7010587651275
36,692.7456067581355
37,692.7916018311387
38,692.8389384876107
39,692.8875065058635
40,692.9371915417124
41,692.9878757673828
42,693.0394385429335
43,693.0917571143059
44,693.1447073310756
45,693.1981643764694
46,693.2520035015109
47,693.306100754297
48,693.3603336950064
49,693.4145820877529
50,693.4687285617356
51,693.5226592357509
52,693.5762643014316
53,693.6294385611166
54,693.6820819159605
55,693.734099799118
56,693.7854035483607
57,693.8359107129412
58,693.8855452909157
59,693.9342378948755
60,693.9819258455165
61,694.0285531936498
62,694.0740706724398
63,694.1184355828797
64,694.16161161641
65,694.203568618924
66,694.2442823005681
67,694.2837338962596
68,694.3219097826334
69,694.3588010576101
70,694.3944030886249
71,694.428715035153
72,694.4617393510988
73,694.4934812729997
74,694.523948300316
75,694.5531496736862
76,694.5810958558677
77,694.6077980187443
78,694.6332675389998
79,694.6575155055624
80,694.6805522440377
81,694.7023868662582
82,694.7230268551986
83,694.742477695754
84,694.7607425603253
85,694.7778220554566
86,694.7937140326497
87,694.8084134633161
88,694.8219123748055
89,694.8341998420261
90,694.8452620279875
91,694.855082266753
92,694.8636411832749
93,694.8709168458278
94,694.87688494788
95,694.8815190170475
96,694.8847906493071
97,694.8866697669852
98,694.8871248991737
99,694.8861234831269
100,694.8836321850484
101,694.8796172387038
102,694.8740448003173
103,694.8668813177626
104,694.8580939109828
105,694.8476507594812
106,694.8355214922552
107,694.8216775759346
108,694.806092697867
109,694.7887431419736
110,694.7696081557049
111,694.7486703060587
112,694.725915821894
113,694.7013349197051
114,694.6749221108589
115,694.6466764894185
116,694.6166020003164
117,694.5847076875842
118,694.551007921804
119,694.5155226055213
120,694.4782773554509
121,694.4393036604504
122,694.3986390135587
123,694.3563270148616
124,694.3124174402745
125,694.2669662700337
126,694.2200356697598
127,694.1716939167577
128,694.1220152653215
129,694.0710797471968
130,694.0189729060706
131,693.9657854670152
132,693.9116129429098
133,693.8565551804129
134,693.8007158486595
135,693.7442018748849
136,693.6871228328548
137,693.6295902923421
138,693.5717171402491
139,693.5136168851886
140,693.4554029568742
141,693.397188010041
142,693.3390832406785
143,693.2811977208377
144,693.223637757454
145,693.1665062801313
146,693.1099022620256
147,693.0539201769889
148,692.9986494955597
149,692.9441742222417
150,692.8905724763928
151,692.8379161190237
152,692.786270428246
153,692.7356938266672
154,692.6862376638423
155,692.6379460555654
156,692.5908557797801
157,692.5449962270235
158,692.5003894019719
159,692.4570499716408
160,692.4149853549188
161,692.3741958478021
162,692.3346747794909
163,692.2964086963298
164,692.2593775725618
165,692.2235550481624
166,692.1889086941987
167,692.1554003053227
168,692.1229862175919
169,692.0916176482516
170,692.0612410526619
171,692.0317984925132
172,692.003228009285
173,691.9754639978311
174,691.9484375768362
175,691.9220769552426
176,691.8963077962754
177,691.8710535831277
178,691.8462359919374
179,691.8217752775344
180,691.7975906755254
181,691.7736008216432
182,691.7497241871177
183,691.7258795277149
184,691.7019863437092
185,691.677965347592
186,691.6537389352571
187,691.6292316551594
188,691.6043706693096
189,691.57908620016
190,691.5533119579648
191,691.5269855436461
192,691.5000488225692
193,691.4724482652204
194,691.444135251768
195,691.4150663386273
196,691.3852034861835
197,691.3545142479553
198,691.322971922977
199,691.290555674769
200,691.257250621498
201,691.2230479026232
202,691.1879447273975
203,691.1519444097947
204,691.1150563930009
205,691.0772962652549
206,691.0386857680598
207,690.9992527974498
208,690.9590313986427
209,690.9180617538525
210,690.8763901624202
211,690.8340690121136
212,690.7911567405337
213,690.7477177857362
214,690.7038225251614
215,690.6595472018284
216,690.6149738367084
217,690.5701901261375
218,690.5252893226696
219,690.4803700967228
220,690.4355363750439
221,690.3908971508657
222,690.3465662599723
223,690.3026621166733
224,690.2593074036272
225,690.2166287092639
226,690.1747561065844
227,690.1338226681451
228,690.0939639143804
229,690.05531719528
230,690.0180210078801
231,689.9822142538973
232,689.948035443534
233,689.9156218533208
234,689.885108647996
235,689.8566279789236
236,689.8303080740827
237,689.8062723362406
238,689.7846384657282
239,689.7655176225453
240,689.7490136401979
241,689.7352223014636
242,689.724230684595
243,689.7161165874154
244,689.7109480358257
245,689.7087828818592
246,689.7096684947379
247,689.7136415469466
248,689.720727896348
249,689.7309425644893
250,689.7442898100884
251,689.7607632950713
252,689.7803463384945
253,689.8030122511658
254,689.828724740816
255,689.8574383749965
256,689.8890990876355
257,689.9236447156662
258,689.9610055536226
259,690.0011049158306
260,690.0438596976085
261,690.0891809285697
262,690.1369743123186
263,690.1871407473433
264,690.239576824094
265,690.29417529355
266,690.3508255032682
267,690.4094137980235
268,690.4698238837351
269,690.5319371552603
270,690.5956329903714
271,690.6607890133771
272,690.7272813322269
273,690.7949847527499
274,690.8637729733799
275,690.9335187638321
276,691.0040941318097
277,691.0753704823892
278,691.1472187747124
279,691.2195096801235
280,691.292113745594
281,691.3649015666049
282,691.4377439743937
283,691.5105122429541
284,691.5830783206982
285,691.6553150899258
286,691.7270966545473
287,691.7982986535931
288,691.8687985955399
289,691.938476206898
290,692.0072137882635
291,692.0748965722138
292,692.1414130795313
293,692.2066554724973
294,692.2705199056873
295,692.3329068754168
296,692.3937215688369
297,692.4528742129291
298,692.5102804224454
299,692.5658615440669
300,692.6195449921422
301,692.6712645701069
302,692.7209607715535
303,692.7685810553936
304,692.8140800897722
305,692.8574199591494
306,692.8985703288948
307,692.9375085624642
308,692.9742197876661
309,693.0086969102595
310,693.040940574808
311,693.0709590741851
312,693.0987682104703
313,693.1243911114351
314,693.1478580083232
315,693.169205981683
316,693.188478682315
317,693.2057260341262
318,693.2210039250758
319,693.2343738913087
320,693.2459027979392
321,693.2556625180978
322,693.2637296102553
323,693.2701849926435
324,693.2751136128027
325,693.2786041102339
326,693.2807484711088
327,693.2816416753175
328,693.281381336684
329,693.2800673366438
330,693.2778014506317
331,693.2746869653743
332,693.2708282845489
333,693.2663305205629
334,693.26129907199
335,693.2558391887916
336,693.2500555295143
337,693.2440517154874
338,693.2379298866753
339,693.2317902627598
340,693.2257307119548
341,693.2198463296511
342,693.2142290292313
343,693.2089671475362
344,693.2041450670147
345,693.1998428560399
346,693.1961359289498
347,693.1930947280244
348,693.1907844301934
349,693.1892646815159
350,693.1885893625587
351,693.1888063877906
352,693.1899575420146
353,693.1920783567313
354,693.1951980290532
355,693.1993393850389
356,693.2045188880537
357,693.2107466916354
358,693.2180267361408
359,693.2263568891717
360,693.2357291304452
361,693.2461297813076
362,693.2575397774342
363,693.2699349813633
364,693.2832865303886
365,693.2975612152329
366,693.3127218855011
367,693.3287278785633
368,693.3455354685696
369,693.3630983312044
370,693.3813680178621
371,693.400294431295
372,693.4198262944901
373,693.4399116056667
374,693.4604980741932
375,693.4815335340182
376,693.502966332235
377,693.5247456904924
378,693.5468220366403
379,693.5691473038913
380,693.5916751950357
381,693.6143614096773
382,693.637163833115
383,693.6600426864317
384,693.682960638157
385,693.7058828778579
386,693.7287771512108
387,693.751613755523
388,693.7743654950965
389,693.7970075971881
390,693.8195175910859
391,693.8418751545156
392,693.8640619327751
393,693.8860613363184
394,693.9078583218487
395,693.9294391606437
396,693.9507911968029
397,693.9719025983562
398,693.9927621055263
399,694.0133587817041
400,694.0336817729232
401,694.05372008065
402,694.0734623509466
403,694.0928966812766
404,694.1120104452032
405,694.1307901351444
406,694.1492212239168
407,694.1672880466323
408,694.1849737055055
409,694.2022600013069
410,694.2191273962196
411,694.2355550127726
412,694.2515206715533
413,694.2670009671094
414,694.2819713782197
415,694.2964064064586
416,694.3102797355901
417,694.3235644034525
418,694.3362329775607
419,694.3482577259675
420,694.3596107761871
421,694.3702642571162
422,694.3801904214358
423,694.3893617484206
424,694.3977510291223
425,694.4053314376066
426,694.4120765935037
427,694.4179606223278
428,694.4229582200769
429,694.4270447271634
430,694.4301962142987
431,694.432389580564
432,694.4336026622426
433,694.4338143502154
434,694.4330047136522
435,694.43115512793
436,694.42824840467
437,694.4242689211848
438,694.4192027455218
439,694.4130377522832
440,694.4057637242975
441,694.3973724363112
442,694.3878577186931
443,694.3772155009615
444,694.3654438362784
445,694.3525429087407
446,694.338515025521
447,694.3233645960538
448,694.3070981007734
449,694.2897240521573
450,694.2712529504926
451,694.2516972355005
452,694.231071232936
453,694.2093910932253
454,694.1866747179274
455,694.1629416697002
456,694.1382130625815
457,694.112511431419
458,694.0858605816527
459,694.0582854227814
460,694.0298117902911
461,694.0004662612424
462,693.9702759680412
463,693.9392684136003
464,693.9074712899377
465,693.8749123019668
466,693.8416189989242
467,693.8076186166256
468,693.7729379333231
469,693.7376031401437
470,693.7016397251955
471,693.6650723697861
472,693.6279248557994
473,693.5902199841203
474,693.5519795047829
475,693.5132240607142
476,693.473973148672
477,693.4342451024568
478,693.3940571038906
479,693.3534252262966
480,693.3123645135705
481,693.270889095603
482,693.229012337871
483,693.1867470200257
484,693.1441055362055
485,693.1011001091334
486,693.0577430105151
487,693.0140467811938
488,692.9700244456143
489,692.9256897162671
490,692.8810571846083
491,692.8361424951992
492,692.7909624996689
493,692.7455353870326
494,692.6998807872816
495,692.6540198462571
496,692.6079752716588
497,692.5617713520481
498,692.5154339519837
499,692.4689904865801
500,692.4224698781898
501,692.3759024971678
502,692.3293200882591
503,692.2827556842377
504,692.2362435089128
505,692.189818872328
506,692.1435180615638
507,692.0973782305734
508,692.0514372920009
509,692.0057338136902
510,691.9603069229922
511,691.9151962225602
512,691.8704417215703
513,691.8260837860308
514,691.7821631109696
515,691.738720715705
516,691.6957979612367
517,691.6534365864226
518,691.6116787576361
519,691.5705671255972
520,691.5301448832054
521,691.4904558190834
522,691.4515443625525
523,691.4134556166032
524,691.3762353760683
525,691.3399301287136
526,691.3045870374908
527,691.2702539028114
528,691.2369791042577
529,691.2048115214675
530,691.1738004341754
531,691.1439954018971
532,691.1154461245043
533,691.0882022854054
534,691.0623133787873
535,691.0378285216364
536,691.0147962507236
537,690.9932643048738
538,690.9732793936471
539,690.9548869547272
540,690.9381309032796
541,690.9230533769124
542,690.9096944797244
543,690.8980920287289
544,690.8882813058892
545,690.880294818855
546,690.8741620731562
547,690.8699093583402
548,690.8675595504218
549,690.8671319328379
550,690.8686420379823
551,690.8721015119157
552,690.8775180061058
553,690.8848951013035
554,690.894232269083
555,690.9055248758604
556,690.9187642324406
557,690.9339376897077
558,690.9510287785325
559,690.970017389633
560,690.9908799870382
561,691.0135898473155
562,691.0381173163207
563,691.0644300758614
564,691.0924934135754
565,691.1222704898115
566,691.1537225953925
567,691.1868093942137
568,691.2214891448051
569,691.2577188952645
570,691.295454646683
571,691.33465148162
572,691.3752636559644
573,691.4172446540687
574,691.4605472081639
575,691.5051232838701
576,691.550924034196
577,691.5978997249074
578,691.6459996347784
579,691.6951719352674
580,691.7453635555759
581,691.7965200403896
582,691.8485854081929
583,691.9015020175192
584,691.9552104470589
585,692.0096493938883
586,692.0647555928202
587,692.1204637589846
588,692.1767065547564
589,692.2334145809541
590,692.2905163910962
591,692.3479385267336
592,692.4056055716152
593,692.4634402228515
594,692.5213633782034
595,692.5792942396339
596,692.637150433886
597,692.6948481511141
598,692.7523023027799
599,692.8094267003097
600,692.866134256454
601,692.9223372116501
602,692.9779473874326
603,693.032876467754
604,693.0870363074282
605,693.1403392655795
606,693.1926985613371
607,693.2440286487491
608,693.2942456076723
609,693.343267547143
610,693.3910150174785
611,693.4374114269453
612,693.4823834580334
613,693.5258614772441
614,693.567779931231
615,693.6080777214586
616,693.646698549306
617,693.6835912238745
618,693.7187099260801
619,693.7520144251287
620,693.7834702466519
621,693.8130487947748
622,693.8407274323863
623,693.866489524392
624,693.8903244476593
625,693.9122275693371
626,693.9322001934675
627,693.9502494751455
628,693.9663883016901
629,693.9806351404453
630,693.9930138526915
631,694.0035534732145
632,694.0122879556671
633,694.0192558847893
634,694.0245001577892
635,694.0280676388467
636,694.0300087924359
637,694.030377302112
638,694.0292296808167
639,694.0266248766815
640,694.0226238756456
641,694.0172892999913
642,694.0106850007298
643,694.0028756416499
644,693.9939262734898
645,693.9839018978354
646,693.9728670216427
647,693.960885204633
648,693.948018603306
649,693.9343275169512
650,693.9198699424775
651,693.9047011459155
652,693.888873259235
653,693.8724349118847
654,693.8554309071448
655,693.8379019535905
656,693.8198844611666
657,693.8014104092439
658,693.7825072909822
659,693.7631981349684
660,693.7435016019488
661,693.7234321520194
662,693.7030002762377
663,693.6822127856224
664,693.6610731488779
665,693.6395818679763
666,693.6177368792543
667,693.5955339677646
668,693.5729671837914
669,693.5500292519181
670,693.526711964507
671,693.5030065530729
672,693.478904033074
673,693.4543955201818
674,693.4294725185893
675,693.4041271834373
676,693.3783525595405
677,693.3521427978868
678,693.3254933507599
679,693.2984011459179
680,693.2708647394426
681,693.2428844454533
682,693.2144624395036
683,693.1856028321007
684,693.1563117099126
685,693.1265971446228
686,693.0964691721258
687,693.0659397467209
688,693.0350226758907
689,693.0037335417635
690,692.9720896159507
691,692.9401097748434
692,692.9078144220264
693,692.8752254229908
694,692.8423660551135
695,692.8092609735297
696,692.775936191792
697,692.7424190756458
698,692.7087383487942
699,692.6749241103554
700,692.6410078638107
701,692.6070225562602
702,692.5730026253079
703,692.5389840496139
704,692.5050043980596
705,692.4711028711473
706,692.4373203267371
707,692.4036992812864
708,692.3702838782774
709,692.3371198179375
710,692.3042542462781
711,692.2717356056261
712,692.2396134518873
713,692.2079382451213
714,692.1767611197808
715,692.1461336399457
716,692.1161075439277
717,692.0867344820367
718,692.0580657508982
719,692.03015202763
720,692.0030431079624
721,691.9767876540392
722,691.951432959054
723,691.9270247356543
724,691.9036069328884
725,691.8812215833677
726,691.8599086794039
727,691.8397060747277
728,691.8206494073102
729,691.8027720389997
730,691.7861050089863
731,691.7706769998031
732,691.7565143158968
733,691.7436408754219
734,691.7320782159891
735,691.7218455147956
736,691.7129596229995
737,691.7054351136871
738,691.6992843426935
739,691.6945175217093
740,691.6911428030136
741,691.6891663745478
742,691.6885925631216
743,691.6894239426774
744,691.6916614439025
745,691.6953044612276
746,691.700350953697
747,691.7067975375604
748,691.7146395703596
749,691.7238712278381
750,691.7344855753435
751,691.7464746344755
752,691.7598294443021
753,691.7745401153902
754,691.7905958744715
755,691.8079850975771
756,691.8266953297727
757,691.8467132901976
758,691.8680248616782
759,691.8906150643368
760,691.9144680123342
761,691.9395668524957
762,691.9658936833584
763,691.9934294534478
764,692.0221538387422
765,692.0520451013176
766,692.0830799332203
767,692.1152332907217
768,692.1484782241146
769,692.1827857077316
770,692.2181244743849
771,692.254460857852
772,692.291758646141
773,692.3299789472396
774,692.3690800682175
775,692.4090174080425
776,692.4497433641584
777,692.4912072526197
778,692.5333552414659
779,692.576130297239
780,692.6194721450797
781,692.6633172433199
782,692.70759877362
783,692.7522466474276
784,692.7971875290564
785,692.8423448753565
786,692.8876389922607
787,692.9329871096928
788,692.9783034780098
789,693.0234994905385
790,693.0684838371685
791,693.113162693161
792,693.157439945525
793,693.2012174571639
794,693.2443953673479
795,693.2868724264781
796,693.3285463635054
797,693.3693142851738
798,693.4090731068598
799,693.4477200149137
800,693.4851529601182
801,693.5212711811375
802,693.5559757555984
803,693.5891701751356
804,693.6207609399993
805,693.65065816877
806,693.6787762189251
807,693.7050343139254
808,693.729357171814
809,693.7516756291079
810,693.771927252326
811,693.7900569282151
812,693.806017422888
813,693.8197698997652
814,693.8312843862346
815,693.8405401791864
816,693.8475261802071
817,693.8522411523472
818,693.8546938918821
819,693.8549033101858
820,693.8528984225959
821,693.8487182428613
822,693.8424115835762
823,693.8340367652219
824,693.8236612392026
825,693.8113611329961
826,693.7972207273543
827,693.7813318759446
828,693.7637933772082
829,693.7447103070898
830,693.7241933201017
831,693.7023579252769
832,693.6793237432
833,693.6552137505216
834,693.630153518789
835,693.6042704544084
836,693.5776930456958
837,693.5505501214965
838,693.5229701244953
839,693.4950804016619
840,693.4670065142432
841,693.4388715701211
842,693.4107955822343
843,693.3828948579834
844,693.3552814255437
845,693.3280625031771
846,693.3013400169139
847,693.2752101708186
848,693.2497630731702
849,693.2250824217596
850,693.2012452517678
851,693.1783217493613
852,693.1563751326933
853,693.1354615999026
854,693.1156303418197
855,693.0969236158547
856,693.0793768769743
857,693.0630189615706
858,693.0478723199265
859,693.0339532924518
860,693.0212724239301
861,693.0098348091304
862,692.9996404627975
863,692.9906847071192
864,692.9829585697578
865,692.9764491851743
866,692.9711401917156
867,692.9670121172934
868,692.9640427474878
869,692.9622074714006
870,692.961479602353
871,692.9618306722741
872,692.9632307000643
873,692.9656484352724
874,692.9690515790726
875,692.9734069847301
876,692.9786808395845
877,692.984838830334
878,692.991846293294
879,692.9996683514681
880,693.0082700407916
881,693.0176164286281
882,693.0276727279083
883,693.038404409629
884,693.0497773148408
885,693.061757765533
886,693.0743126728205
887,693.087409640638
888,693.101017063154
889,693.1151042137583
890,693.1296413228321
891,693.1445996410182
892,693.1599514846534
893,693.1756702602311
894,693.1917304649107
895,693.208107660222
896,693.2247784166684
897,693.2417202282707
898,693.2589113978894
899,693.2763308957658
900,693.2939581946217
901,693.3117730847116
902,693.329755471484
903,693.3478851575024
904,693.3661416097538
905,693.3845037138847
906,693.4029495179835
907,693.4214559695777
908,693.4399986500744
909,693.4585515108851
910,693.4770866151368
911,693.4955738884344
912,693.5139808818146
913,693.5322725499077
914,693.550411047432
915,693.5683555476903
916,693.5860620877787
917,693.6034834463198
