frame_number,force
0,698.420288000149
1,698.3076580586729
2,698.1959331035483
3,698.0859986963065
4,697.9787022401161
5,697.874835481465
6,697.7751186062357
7,697.6801861652593
8,697.5905750128604
9,697.5067144267142
10,697.4289185876189
11,697.3573816574859
12,697.292175788171
13,697.2332524296995
14,697.1804471943892
15,697.1334882748188
16,697.0920080938256
17,697.0555576087359
18,697.0236225956204
19,696.9956412701385
20,696.9710226179893
21,696.9491647425505
22,696.9294724902848
23,696.9113737060075
24,696.8943336825155
25,696.8778675930405
26,696.8615508427538
27,696.8450273053187
28,696.8280153261442
29,696.8103112419948
30,696.7917900898366
31,696.7724032344116
32,696.7521728480315
33,696.7311834759151
34,696.7095712324492
35,696.687511433267
36,696.6652056540368
37,696.6428692983859
38,696.620720674199
39,696.5989722468993
40,696.5778242433223
41,696.5574603376066
42,696.5380449262984
43,696.5197215146849
44,696.5026118973482
45,696.4868159562236
46,696.4724118827194
47,696.459456493753
48,696.4479852366838
49,696.4380115898895
50,696.4295258121399
51,696.4224932214217
52,696.4168522746803
53,696.4125126673263
54,696.4093535743496
55,696.4072221305553
56,696.4059323211163
57,696.405264561169
58,696.4049663296637
59,696.404754267998
60,696.4043181139546
61,696.40332667282
62,696.4014357907995
63,696.398298116586
64,696.3935743334846
65,696.3869454171607
66,696.3781252916323
67,696.3668731276241
68,696.3530045585768
69,696.336401261327
70,696.3170185559651
71,696.2948908201885
72,696.2701345302881
73,696.2429486495953
74,696.2136119953017
75,696.1824772898207
76,696.1499619443656
77,696.1165361407307
78,696.082709204464
79,696.049015376741
80,696.0159999181087
81,695.9842061943165
82,695.9541641195341
83,695.9263801046682
84,695.9013285420997
85,695.8794448873763
86,695.8611204623522
87,695.846699044013
88,695.8364751183292
89,695.8306935162341
90,695.8295501083013
91,695.8331932854356
92,695.8417260112312
93,695.8552082314671
94,695.8736593545107
95,695.8970604340748
96,695.9253556806271
97,695.95845303318
98,695.9962237170075
99,696.0385009755855
100,696.0850784677303
101,696.1357090599809
102,696.1901047830104
103,696.2479385229886
104,696.308847682118
105,696.3724396953438
106,696.4382990019704
107,696.5059948663825
108,696.5750893580428
109,696.6451448786551
110,696.7157308461819
111,696.7864294323657
112,696.8568405235997
113,696.9265862708769
114,696.9953156457498
115,697.0627092906615
116,697.1284846942852
117,697.1924014432508
118,697.2542660873012
119,697.3139360474963
120,697.3713220137992
121,697.4263884109291
122,697.479151717796
123,697.5296766430948
124,697.578070336402
125,697.6244749335875
126,697.6690587947963
127,697.7120068000354
128,697.7535100852984
129,697.7937557166557
130,697.8329169847661
131,697.8711451093023
132,697.9085630734917
133,697.9452621169595
134,697.9813011876565
135,698.0167093821491
136,698.0514910424291
137,698.0856327730106
138,698.11911134183
139,698.151901370133
140,698.1839819118345
141,698.2153413570459
142,698.2459804381293
143,698.2759134022122
144,698.305167618973
145,698.3337820005063
146,698.3618046034327
147,698.389289684049
148,698.4162943849738
149,698.4428752519233
150,698.4690849005223
151,698.4949692606687
152,698.5205658250776
153,698.5459031928393
154,698.5710019497084
155,698.5958766427574
156,698.620538390945
157,698.644997559277
158,698.669265891387
159,698.6933575647015
160,698.7172888288593
161,698.7410761362936
162,698.7647328691876
163,698.7882649059968
164,698.8116654008196
165,698.8349092579227
166,698.8579478287436
167,698.8807043332986
168,698.9030704193357
169,698.9249041171662
170,698.9460292518505
171,698.966236193541
172,698.9852836873903
173,699.0029014087705
174,699.0187928740503
175,699.0326384536921
176,699.0440984831174
177,699.0528167694034
178,699.0584250148241
179,699.0605487011222
180,699.0588147659688
181,699.052861032998
182,699.0423470058535
183,699.0269654780874
184,699.0064544561143
185,698.9806090000313
186,698.9492926568853
187,698.91244821203
188,698.8701075170643
189,698.8224000846579
190,698.7695599595023
191,698.7119302408424
192,698.6499647093793
193,698.5842262535975
194,698.5153820001473
195,698.4441951304669
196,698.3715133961584
197,698.2982544417382
198,698.2253882251601
199,698.1539170589256
200,698.0848540338501
201,698.0192007657716
202,697.957925441479
203,697.9019420170125
204,697.852091233014
205,697.8091239669503
206,697.7736873381195
207,697.7463138395464
208,697.7274135612176
209,697.7172693481212
210,697.7160345975125
211,697.7237333990234
212,697.7402628306506
213,697.7653973585751
214,697.7987953830453
215,697.8400080183197
216,697.888490194021
217,697.9436140704165
218,698.0046845396338
219,698.0709563274563
220,698.1416520618288
221,698.2159806764091
222,698.293155570701
223,698.3724119301529
224,698.4530225180525
225,698.5343112170178
226,698.6156637385634
227,698.6965352065828
228,698.776454627848
229,698.8550265002555
230,698.9319299683305
231,699.0069160283773
232,699.0798033090265
233,699.1504729064718
234,699.2188626569497
235,699.2849611122508
236,699.3488013869298
237,699.4104550135709
238,699.4700259865833
239,699.5276452351826
240,699.5834657426798
241,699.6376583848607
242,699.6904083811862
243,699.7419121660776
244,699.7923745226949
245,699.842005891933
246,699.891019788739
247,699.9396302328655
248,699.9880491012384
249,700.0364833789727
250,700.0851324095196
251,700.1341853607413
252,700.1838191616852
253,700.2341971035369
254,700.2854681989342
255,700.3377673318926
256,700.3912162063986
257,700.4459250453923
258,700.5019948456322
259,700.5595197793086
260,700.6185891347103
261,700.6792880807058
262,700.7416965607056
263,700.8058857952624
264,700.8719122022375
265,700.9398089739924
266,701.0095759615658
267,701.0811687818324
268,701.1544881614525
269,701.2293705568748
270,701.305581124311
271,701.3828101180668
272,701.4606736784483
273,701.538719679991
274,701.6164388257179
275,701.693280522509
276,701.7686724098071
277,701.8420419577717
278,701.9128384108383
279,701.9805534803692
280,702.0447394903567
281,702.105024082174
282,702.1611210283799
283,702.2128371278538
284,702.260075484283
285,702.3028356494035
286,702.3412111508233
287,702.3753848950304
288,702.4056228864947
289,702.4322666196605
290,702.4557243788385
291,702.4764615670894
292,702.4949901233075
293,702.5118570797636
294,702.5276323340345
295,702.5428957393339
296,702.5582236709826
297,702.5741753225163
298,702.5912790759616
299,702.6100193056894
300,702.6308239399759
301,702.6540531186195
302,702.6799893646506
303,702.7088297399475
304,702.7406804146561
305,702.7755539822133
306,702.8133697397546
307,702.8539570209748
308,702.8970615134876
309,702.9423543433832
310,702.9894435591117
311,703.0378874568853
312,703.0872089954842
313,703.136910478409
314,703.1864878147103
315,703.2354439253207
316,703.2833010870114
317,703.3296121154222
318,703.3739702753214
319,703.4160177107253
320,703.4554520970418
321,703.4920312272194
322,703.5255753773791
323,703.5559674863291
324,703.5831513363574
325,703.6071279934276
326,703.6279507530463
327,703.6457187693446
328,703.6605694773019
329,703.6726699238603
330,703.6822072156242
331,703.6893783903779
332,703.6943800422118
333,703.6973979750884
334,703.6985970887467
335,703.698111669925
336,703.6960362989423
337,703.6924176851614
338,703.6872478701282
339,703.6804593088912
340,703.6719223165884
341,703.6614452782458
342,703.6487778990071
343,703.6336175874991
344,703.6156187750692
345,703.5944046378069
346,703.5695804482885
347,703.540747719777
348,703.5075183703447
349,703.4695282507987
350,703.426449535536
351,703.3780016880191
352,703.3239609570993
353,703.2641685599033
354,703.19853777933
355,703.1270601242035
356,703.0498105372859
357,702.966951491766
358,702.8787357039002
359,702.7855070472942
360,702.6876990942739
361,702.58583065515
362,702.4804978441314
363,702.3723625685029
364,702.2621378249459
365,702.1505706537189
366,702.0384239032347
367,701.9264580348353
368,701.815414104895
369,701.7059988577979
370,701.5988725359377
371,701.4946395848336
372,701.3938420664921
373,701.2969554712579
374,701.2043867206505
375,701.116474261338
376,701.0334900580973
377,700.9556430137455
378,700.8830830865455
379,700.8159053441782
380,700.7541534144725
381,700.6978221155047
382,700.646859289565
383,700.6011669654351
384,700.5606019831882
385,700.5249761827212
386,700.4940562056335
387,700.467562963151
388,700.4451709693055
389,700.4265079961361
390,700.411155695602
391,700.398651791359
392,700.3884942058658
393,700.3801472222382
394,700.3730495833464
395,700.3666242693563
396,700.3602895226483
397,700.3534705306488
398,700.345611105066
399,700.3361847701135
400,700.32470487361
401,700.3107335424062
402,700.2938893872257
403,700.2738538162542
404,700.2503757602055
405,700.2232746411785
406,700.1924415134504
407,700.1578383939848
408,700.1194958527457
409,700.0775089547712
410,700.0320316535141
411,699.9832697734431
412,699.9314728421216
413,699.8769252061412
414,699.8199369715908
415,699.7608352600704
416,699.6999560761969
417,699.6376368250807
418,699.5742093280999
419,699.5099931789975
420,699.445289445252
421,699.3803748934711
422,699.3154969700099
423,699.2508697253451
424,699.1866708314525
425,699.1230398321965
426,699.0600777414834
427,698.9978480255869
428,698.9363788729502
429,698.875666476649
430,698.8156788654594
431,698.7563597079426
432,698.6976315620732
433,698.6393982230145
434,698.5815460237676
435,698.5239441047758
436,698.4664438273629
437,698.4088777298813
438,698.3510587048976
439,698.292780288631
440,698.2338189528085
441,698.1739390321326
442,698.1129004996493
443,698.0504693494312
444,697.9864299446352
445,697.9205983755784
446,697.8528356756505
447,697.7830596905052
448,697.7112544974227
449,697.6374765093997
450,697.5618567263174
451,697.4845989457922
452,697.4059740649176
453,697.3263108867235
454,697.2459841123149
455,697.1654004321272
456,697.0849837662755
457,697.0051607020149
458,696.926347037474
459,696.848936105324
460,696.7732892963246
461,696.6997289906079
462,696.6285339182579
463,696.5599367923094
464,696.4941239404138
465,696.4312366422379
466,696.371373894963
467,696.3145963028177
468,696.2609307305994
469,696.2103753440138
470,696.1629047163976
471,696.1184747792513
472,696.0770274677003
473,696.0384949183436
474,696.0028030242212
475,695.9698741043651
476,695.9396284874027
477,695.9119849579812
478,695.8868601996179
479,695.8641675108647
480,695.8438151509374
481,695.8257046931296
482,695.8097297279605
483,695.7957751455419
484,695.7837170509245
485,695.7734232266728
486,695.7647540709562
487,695.7575640863863
488,695.751704106944
489,695.7470244049676
490,695.7433786771636
491,695.7406287966995
492,695.7386501573931
493,695.7373373575753
494,695.7366098568674
495,695.7364171522804
496,695.736743016377
497,695.7376083929141
498,695.7390725920628
499,695.7412324784955
500,695.7442194732306
501,695.7481943928683
502,695.7533403197534
503,695.7598537570817
504,695.7679343293532
505,695.7777733496566
506,695.7895417179341
507,695.8033777756717
508,695.8193758756559
509,695.8375765278658
510,695.857959010099
511,695.8804371999338
512,695.9048590832215
513,695.9310100151374
514,695.9586194559423
515,695.9873706351434
516,696.0169124460555
517,696.0468728377771
518,696.0768729964259
519,696.1065416135132
520,696.1355285106121
521,696.1635168766458
522,696.1902334189892
523,696.2154558451101
524,696.2390172956489
525,696.2608076444405
526,696.2807718908352
527,696.2989060795505
528,696.3152512764427
529,696.3298862073094
530,696.3429192885494
531,696.3544808616609
532,696.3647163701951
533,696.3737809618242
534,696.3818356476238
535,696.3890448437087
536,696.3955749618644
537,696.4015937280128
538,696.4072700201439
539,696.4127741114105
540,696.4182782151062
541,696.4239571983139
542,696.4299893291385
543,696.4365569578952
544,696.4438470668963
545,696.452051627627
546,696.4613676877875
547,696.4719970963565
548,696.4841457544758
549,696.4980222370945
550,696.5138355992657
551,696.5317922246963
552,696.5520917046723
553,696.5749218992231
554,696.6004534603533
555,696.628834150827
556,696.660183282699
557,696.6945865647292
558,696.7320915969104
559,696.7727041666408
560,696.8163854016509
561,696.8630497766571
562,696.9125639681707
563,696.9647465510552
564,697.0193685158039
565,697.0761546363984
566,697.1347858826392
567,697.1949032488133
568,697.2561134071976
569,697.3179964397847
570,697.380115621768
571,697.4420289228576
572,697.5033016637694
573,697.5635197191451
574,697.6223027904692
575,697.6793174289496
576,697.7342895095045
577,697.7870157346869
578,697.8373736187906
579,697.8853294089944
580,697.9309435360175
581,697.9743733033306
582,698.0158725203058
583,698.0557877294866
584,698.0945507009093
585,698.1326670003348
586,698.1707006228788
587,698.2092548734106
588,698.2489498982059
589,698.2903975856977
590,698.3341749502349
591,698.3807974568128
592,698.4306938469173
593,698.4841838446357
594,698.5414598269604
595,698.6025732897562
596,698.66742671396
597,698.7357711687686
598,698.8072096935294
599,698.8812062179921
600,698.9570995293801
601,699.0341216043776
602,699.1114195266979
603,699.1880801890771
604,699.2631569700617
605,699.3356975262387
606,699.4047717506409
607,699.4694988847098
608,699.5290728142085
609,699.5827847377025
610,699.6300425812757
611,699.6703866477745
612,699.703501046174
613,699.7292205495675
614,699.7475327322429
615,699.7585754901772
616,699.7626302874424
617,699.7601116623011
618,699.7515536503411
619,699.7375938154989
620,699.7189555399067
621,699.696429164798
622,699.6708525340847
623,699.6430914717486
624,699.6140206965028
625,699.5845055860119
626,699.5553850387834
627,699.5274555477554
628,699.5014565992035
629,699.4780576139926
630,699.4578467567051
631,699.4413219964014
632,699.4288847784225
633,699.4208365285523
634,699.4173779873264
635,699.418611145572
636,699.4245433761619
637,699.435093248957
638,699.4500975025777
639,699.4693187406717
640,699.4924535849209
641,699.5191411896569
642,699.5489721428693
643,699.5814978145472
644,699.6162401973488
645,699.6527022701528
646,699.6903789091865
647,699.7287683597034
648,699.7673842681479
649,699.8057682339131
650,699.8435027027049
651,699.88022378747
652,699.9156333688586
653,699.9495096949136
654,699.9817157036754
655,700.0122044318251
656,700.0410211151843
657,700.0683018590154
658,700.0942689888295
659,700.1192233665374
660,700.1435340838705
661,700.1676260390497
662,700.1919659777576
663,700.2170476466874
664,700.2433767659348
665,700.271456552905
666,700.3017744777817
667,700.3347907553431
668,700.3709287961852
669,700.4105675333842
670,700.4540352917846
671,700.501604715509
672,700.5534882122463
673,700.6098334008498
674,700.6707181903
675,700.7361454118685
676,700.806037323755
677,700.8802306660463
678,700.9584731351306
679,701.0404221245012
680,701.1256463574596
681,701.213630672124
682,701.3037838311866
683,701.3954489768197
684,701.4879162970398
685,701.5804375034728
686,701.6722416933707
687,701.7625520666538
688,701.8506028874797
689,701.9356560823749
690,702.0170169400666
691,702.094048491322
692,702.1661842788103
693,702.2329393347088
694,702.2939192026478
695,702.3488267543911
696,702.3974664563965
697,702.4397457740394
698,702.4756735841579
699,702.5053556886301
700,702.5289876859856
701,702.5468455598653
702,702.5592743935093
703,702.5666756013264
704,702.5694929976141
705,702.5681979647501
706,702.5632739923848
707,702.5552009433561
708,702.5444395370857
709,702.53141668515
710,702.5165124200223
711,702.5000491742725
712,702.4822840346943
713,702.4634042987097
714,702.4435262800142
715,702.4226969920537
716,702.4008981911783
717,702.3780522719479
718,702.3540295585962
719,702.3286565426436
720,702.301724587444
721,702.2729985939386
722,702.2422251233362
723,702.2091395531238
724,702.1734720536377
725,702.1349524732706
726,702.0933144904817
727,702.0482995457407
728,701.9996610959743
729,701.9471696200526
730,701.8906185145445
731,701.8298306253419
732,701.7646648537127
733,701.69502220468
734,701.6208507980467
735,701.54214961332
736,701.4589709569918
737,701.37142172931
738,701.2796634927886
739,701.1839111609893
740,701.0844299699517
741,700.9815304042598
742,700.875560964943
743,700.766899008085
744,700.6559402325926
745,700.5430876689317
746,700.4287411620872
747,700.313288314488
748,700.1970976722164
749,700.080514656732
750,699.9638604154361
751,699.847433428684
752,699.731513413359
753,699.616366843403
754,699.50225329423
755,699.3894318299749
756,699.278166781077
757,699.1687324437024
758,699.0614163886552
759,698.9565211653238
760,698.8543642655451
761,698.7552763216569
762,698.6595976721161
763,698.5676736288164
764,698.4798489717551
765,698.3964622969784
766,698.3178408093702
767,698.2442960121826
768,698.1761205496543
769,698.11358622945
770,698.0569430144999
771,698.0064185890209
772,697.9622180091903
773,697.9245229246046
774,697.8934898857691
775,697.869247375053
776,697.8518914474648
777,697.84148017818
778,697.8380273573539
779,697.8414959904538
780,697.851792190346
781,697.8687600096794
782,697.8921776303247
783,697.9217551019999
784,697.9571335828206
785,697.9978858716578
786,698.0435179664028
787,698.0934714123816
788,698.1471262966605
789,698.2038048805812
790,698.2627760231159
791,698.3232606985302
792,698.3844390226036
793,698.4454592697351
794,698.5054493903466
795,698.5635314807178
796,698.6188394733864
797,698.6705400321789
798,698.7178562932679
799,698.7600936874973
800,698.7966666245945
801,698.8271244259348
802,698.8511747019402
803,698.8687024373877
804,698.879783330595
805,698.8846903745275
806,698.8838931994344
807,698.878050198632
808,698.8679938435729
809,698.8547098873133
810,698.8393114239439
811,698.8230090016688
812,698.8070780910837
813,698.7928251500149
814,698.7815533803146
815,698.7745291502165
816,698.7729499860081
817,698.777914954656
818,698.7903980997544
819,698.811225389919
820,698.8410554981383
821,698.8803646924719
822,698.9294361090587
823,698.988353636077
824,699.0570006018136
825,699.1350634724221
826,699.2220407379226
827,699.3172569536362
828,699.419881505694
829,699.5289512678874
830,699.6433961134524
831,699.7620662792647
832,699.8837607194017
833,700.0072556768753
834,700.131332720656
835,700.2548055089037
836,700.3765445793035
837,700.4954995164145
838,700.6107179141602
839,700.7213606615862
840,700.8267132179548
841,700.9261926853834
842,701.0193506229284
843,701.1058716622922
844,701.1855680896028
845,701.2583706909966
846,701.324316337202
847,701.3835329664043
848,701.4362227716956
849,701.4826444781407
850,701.5230955802995
851,701.5578953184191
852,701.5873690663935
853,701.6118347399272
854,701.6315917783933
855,701.646913119515
856,701.6580403363286
857,701.6651818063366
858,701.6685135023178
859,701.668181733413
860,701.6643069434191
861,701.6569875945697
862,701.6463033225097
863,701.6323169117587
864,701.6150750596595
865,701.594608207094
866,701.5709298701622
867,701.5440359850039
868,701.5139048446114
869,701.480498229044
870,701.4437642236305
871,701.403641939193
872,701.3600679505835
873,701.3129839070439
874,701.2623445819796
875,701.2081256317325
876,701.1503304281662
877,701.0889954438227
878,701.024193791391
879,700.956036651364
880,700.8846724373541
881,700.8102836363252
882,700.7330813736625
883,700.6532979634786
884,700.5711779972141
885,700.4869687728644
886,700.4009109545194
887,700.3132302789314
888,700.2241309842738
889,700.1337914951138
890,700.0423627623264
891,699.9499695018758
892,699.8567143513483
893,699.7626846134415
894,699.6679608250523
895,699.5726260471359
896,699.4767746667022
897,699.3805196629983
898,699.2839976438665
899,699.1873714041
900,699.0908301927618
901,698.9945882231807
902,698.8988821782366
903,698.8039685180003
904,698.7101212443224
905,698.6176304558647
906,698.5268016892612
907,698.4379558147178
908,698.3514291239126
909,698.2675731424987
910,698.1867536165827
911,698.1093481305544
912,698.0357419738696
913,697.9663221714094
914,697.9014699145996
915,697.8415518514691
916,697.786910788687
917,697.7378564117757
918,697.6946567092918
