acceleration,velocity,displacement
-0.00799747567938674,0.0,0.0
-0.009080476429650956,-4.269488027259424e-06,-1.0673720068148561e-09
-0.010160856158025273,-9.079821174178482e-06,-4.404699307174332e-09
-0.011236012829646997,-1.4429038421096549e-05,-1.028191420599309e-08
-0.012303382124614218,-2.0313887159661855e-05,-1.896764560118269e-08
-0.013360455673238457,-2.6729846609125023e-05,-3.072857904337941e-08
-0.014404798598511518,-3.3671160177062515e-05,-4.582883073992629e-08
-0.015434066191553433,-4.113087637457875e-05,-6.45293398778366e-08
-0.016446019561891328,-4.910089781293994e-05,-8.708728342471628e-08
-0.017438540116456,-5.7572037732526776e-05,-1.1375551731108296e-07
-0.01840964273062677,-6.653408344429746e-05,-1.4478204760528902e-07
-0.019357487477495477,-7.597586599632802e-05,-1.804095349654454e-07
-0.020280389779923125,-8.588533531068267e-05,-2.2087483529219805e-07
-0.02117682885842725,-9.624963997027027e-05,-2.664085791124363e-07
-0.022045454380416718,-0.00010705521077998126,-3.1723479179999917e-07
-0.022885091272339002,-0.00011828784719317019,-3.7357055629328705e-07
-0.023694742722065194,-0.00012993280569177125,-4.356257195145224e-07
-0.024473591454195292,-0.00014197488923583637,-5.036026432464243e-07
-0.02522099939034345,-0.00015439853694697105,-5.776959997921261e-07
-0.025936505814954318,-0.0001671879132482955,-6.580926123409428e-07
-0.026619824176977554,-0.00018032699574627845,-7.449713395895864e-07
-0.027270837679425296,-0.00019379966121037915,-8.385030038287508e-07
-0.02788959382638192,-0.00020758976908683094,-9.388503614030533e-07
-0.028476298091197463,-0.00022168124206622578,-1.0461681141913174e-06
-0.029031306843084467,-0.00023605814329979627,-1.160602960532823e-06
-0.02955511963961139,-0.00025070474992047026,-1.2822936838378897e-06
-0.03004837097351766,-0.0002656056225737525,-1.4113712769614454e-06
-0.0305118215606126,-0.00028074567070728506,-1.5479591002817049e-06
-0.030946349270635217,-0.000296110213415097,-1.6921730713123003e-06
-0.031352939824474055,-0.0003116850356888743,-1.844121883588293e-06
-0.03173267739271873,-0.0003274564399931725,-2.0039072525088047e-06
-0.03208673521996193,-0.00034341129314634266,-2.1716241857936835e-06
-0.0324163663643713,-0.00035953706854242596,-2.3473612762158756e-06
-0.03272289459133802,-0.0003758218837813533,-2.5312010142968203e-06
-0.033007705406693816,-0.0003922545337808613,-2.723220118687374e-06
-0.033272237169831013,-0.0004088245194249925,-2.9234898819888374e-06
-0.03351797219326381,-0.0004255220717657662,-3.132076529786527e-06
-0.033746427716412855,-0.00044233817174318534,-3.349041590663765e-06
-0.03395914665046325,-0.00045926456533490435,-3.5744422749332874e-06
-0.03415768803973294,-0.0004762937740074534,-3.808331859768877e-06
-0.03434361726000983,-0.000493419100332389,-4.0507600783538375e-06
-0.034518496041265924,-0.000510634628657708,-4.301773510601362e-06
-0.034683872434860985,-0.0005279352207767397,-4.561415972959974e-06
-0.03484127084043868,-0.0005453165065955646,-4.829728904803049e-06
-0.034992182180033665,-0.0005627748698506826,-5.106751748914612e-06
-0.03513805428294507,-0.0005803074289664273,-5.392522323618889e-06
-0.03528028254646145,-0.0005979120131737789,-5.687077184153941e-06
-0.035420200958446696,-0.000615587134050006,-5.990451970959887e-06
-0.03555907357933185,-0.0006333319526844506,-6.302681742643501e-06
-0.035698086563167024,-0.0006511462427200754,-6.623801291494632e-06
-0.03583834075836551,-0.0006690303495504585,-6.953845439562266e-06
-0.0359808448929156,-0.0006869851459632788,-7.292849313440701e-06
-0.036126509334813824,-0.0007050119845202111,-7.640848596061574e-06
-0.03627614042724586,-0.000723112646960726,-7.997879753931808e-06
-0.03643043541380991,-0.00074128929092099,-8.363980238402238e-06
-0.03658997797306622,-0.000759544394267709,-8.739188659699412e-06
-0.03675523436987044,-0.0007778806973534431,-9.1235449326047e-06
-0.03692655021327442,-0.0007963011434992293,-9.517090392817869e-06
-0.03710414779607695,-0.0008148088180015672,-9.919867883193068e-06
-0.037288123982347356,-0.0008334068859461733,-1.0331921809180003e-05
-0.03747844861352083,-0.0008520985290951403,-1.0753298162940332e-05
-0.03767496342758811,-0.0008708868821054175,-1.1184044515740471e-05
-0.037877381520052864,-0.0008897749683423278,-1.1624209978352408e-05
-0.03808528739957784,-0.0009087656355722355,-1.207384512933105e-05
-0.03829813770258166,-0.0009278614918477754,-1.2533001911186052e-05
-0.038515262645491335,-0.0009470648419347936,-1.3001733494631694e-05
-0.038735868315849076,-0.0009663776246751287,-1.3480094111284175e-05
-0.03895903991664529,-0.0009858013517332522,-1.396813885538627e-05
-0.03918374606547528,-0.0010053370482287823,-1.4465923455376777e-05
-0.03940884421446502,-0.0010249851957987673,-1.4973504016383664e-05
-0.039633087215136954,-0.0010447456786561679,-1.54909367349974e-05
-0.03985513102105807,-0.0010646177332152165,-1.6018277587965246e-05
-0.04007354350925634,-0.0010845999018477951,-1.6555581996731e-05
-0.0402868144068513,-0.0011046899913268221,-1.7102904470024653e-05
-0.040493366314786984,-0.0011248850365072316,-1.766029822698317e-05
-0.04069156680009127,-0.0011451812697859513,-1.8227814803556464e-05
-0.04087974146583198,-0.001165574096852432,-1.880550364521606e-05
-0.041056187818228014,-0.0011860580791734471,-1.939341168922253e-05
-0.04121918967609461,-0.0012066269235470278,-1.999158293990265e-05
-0.041367031844234306,-0.00122727347892711,-2.0600058040521183e-05
-0.04149801479584434,-0.0012479897405871297,-2.1218873845399743e-05
-0.04161046915104088,-0.001268766861573851,-2.184806299593999e-05
-0.041702769780537906,-0.0012895951713067458,-2.248765350416014e-05
-0.04177334939940693,-0.001310464201101732,-2.3137668347262258e-05
-0.041820711535405126,-0.001331362716335435,-2.379812507662155e-05
-0.041843442754139995,-0.0013522787549078213,-2.4469035444432365e-05
-0.04184022401699499,-0.001373199671600605,-2.515040505105947e-05
-0.041809841062486246,-0.0013941121878704753,-2.584223301592724e-05
-0.0417511937375838,-0.0014150024465704929,-2.6544511674537483e-05
-0.04166330423897146,-0.0014358560710646317,-2.7257226303946265e-05
-0.04154532423941405,-0.001456658228184228,-2.798035487875848e-05
-0.04139654087605023,-0.001477393694463094,-2.871386785942031e-05
-0.04121638157871215,-0.0014980469250767845,-2.945772801430528e-05
-0.041004417727701616,-0.001518602124903388,-3.0211890276800322e-05
-0.04076036715370544,-0.0015390433211237397,-3.09763016383071e-05
-0.04048409551788637,-0.0015593544367916376,-3.1750901077785947e-05
-0.040175616623548197,-0.0015795193648269962,-3.25356195281906e-05
-0.03983509170659999,-0.0015995220419095333,-3.333037987987474e-05
-0.039462827733784844,-0.0016193465217696295,-3.4135097020794526e-05
-0.039059274708180186,-0.0016389770473801207,-3.4949677913081966e-05
-0.03862502194532639,-0.0016583981215434972,-3.5774021705312874e-05
-0.03816079325672521,-0.0016775945753440102,-3.660801987953475e-05
-0.03766744098206248,-0.0016965516339037072,-3.745155643184668e-05
-0.03714593885298681,-0.0017152549788624696,-3.8304508085038226e-05
-0.036597373733840796,-0.0017336908070091765,-3.916674453150614e-05
-0.036022936348015504,-0.0017518458845296406,-4.0038128704390846e-05
-0.03542391115129476,-0.0017697075964044683,-4.091851707462437e-05
-0.034801665551767794,-0.0017872639905802338,-4.180775997137055e-05
-0.0341576386935989,-0.0018045038166415754,-4.2705701923176e-05
-0.03349333001259799,-0.0018214165588181246,-4.361218201704093e-05
-0.032810287737930405,-0.0018379924632557566,-4.4527034272559396e-05
-0.03211009746894328,-0.001854222559557475,-4.5450088028262705e-05
-0.031394370911486974,-0.0018700986766525826,-4.638116833731522e-05
-0.03066473482454495,-0.0018856134530865906,-4.732009636975001e-05
-0.029922820216133406,-0.0019007603418467601,-4.826668981848335e-05
-0.029170251842874074,-0.001915533609861512,-4.9220763306410415e-05
-0.028408638102534526,-0.0019299283323478643,-5.018212879196276e-05
-0.027639561446100774,-0.001943940382235023,-5.115059597060848e-05
-0.0268645694619096,-0.0019575664149620257,-5.212597266990774e-05
-0.0260851667925467,-0.00197080384902564,-5.310806523590466e-05
-0.025302808032990228,-0.001983650842732024,-5.409667890884407e-05
-0.024518891727190604,-0.001996106267672069,-5.509161818644509e-05
-0.023734755536977764,-0.0020081696794881114,-5.6092687173235135e-05
-0.022951672611779474,-0.0020198412865253005,-5.709968991473849e-05
-0.022170849148674312,-0.002031121916965414,-5.811243071561117e-05
-0.02139342310244572,-0.002042012985028194,-5.913071444110957e-05
-0.020620463985158013,-0.002052516456800095,-6.0154346801566645e-05
-0.019852973683352943,-0.002062634816217223,-6.118313461982097e-05
-0.01909188820815788,-0.0020723710316901006,-6.221688608179781e-05
-0.018338080265974655,-0.0020817285238086338,-6.32554109706725e-05
-0.017592362499173092,-0.0020907111344999206,-6.429852088524963e-05
-0.016855491221096076,-0.002099323097929988,-6.534602944335712e-05
-0.016128170473281092,-0.0021075690133535822,-6.639775247117801e-05
-0.015411056256825562,-0.002115453820036109,-6.745350817952543e-05
-0.014704760820199232,-0.0021229827743053653,-6.85131173281108e-05
-0.01400985692409675,-0.0021301614287414393,-6.95764033788725e-05
-0.013326882057324633,-0.0021369956134867944,-7.064319263942956e-05
-0.012656342638826193,-0.002143491419660832,-7.171331439771648e-05
-0.011998718286355414,-0.0021496551848921275,-7.278660104885472e-05
-0.011354466240114627,-0.0021554934810237452,-7.386288821533369e-05
-0.01072402599791155,-0.002161013104083252,-7.494201486161044e-05
-0.010107824165384176,-0.002166221066624076,-7.602382340428727e-05
-0.009506279471145627,-0.0021711245925332082,-7.710815981907659e-05
-0.008919807852986466,-0.0021757311143642414,-7.819487374580095e-05
-0.008348827491203949,-0.0021800482732002887,-7.928381859269208e-05
-0.007793763651197018,-0.002184083920985889,-8.037485164123862e-05
-0.007255053202503023,-0.002187846125199314,-8.146783415278493e-05
-0.006733148701937224,-0.002191343175675424,-8.256263147800361e-05
-0.006228521948563336,-0.002194583593338049,-8.365911317025697e-05
-0.005741666921042657,-0.0021975761405554507,-8.475715310373035e-05
-0.005273101995226377,-0.002200329832784518,-8.585662959706535e-05
-0.004823371329969668,-0.002202853951115817,-8.695742554304042e-05
-0.00439304531706008,-0.0022051580552775746,-8.805942854463877e-05
-0.003982720020907983,-0.0022072519966120667,-8.916253105761119e-05
-0.003593015581980556,-0.002209145930512789,-9.02666305393924e-05
-0.0032245736121215072,-0.0022108503278113144,-9.137162960397344e-05
-0.002878053653608531,-0.002212375984627747,-9.24774361820832e-05
-0.0025541288014209592,-0.0022137340302415044,-9.358396368580051e-05
-0.0022534806031610315,-0.0022149359325926497,-9.469113117650905e-05
-0.0019767933497654394,-0.0022159935010808815,-9.579886353492742e-05
-0.0017247478487141044,-0.0022169188863805016,-9.690709163179277e-05
-0.001498014741625649,-0.0022177245770280867,-9.801575249764491e-05
-0.0012972474065764512,-0.0022184233925651373,-9.912478949004321e-05
-0.0011230744726376586,-0.0022190284730349407,-0.00010023415245644324
-0.0009760919622903991,-0.002219553264643673,-0.00010134379789086289
-0.0008568550685130102,-0.0022200115014013736,-0.00010245368908237415
-0.0007658695740010345,-0.002220417182562002,-0.00010356379625336498
-0.0007035829312293064,-0.0022207845456883096,-0.00010467409668542756
-0.0006703750425633736,-0.002221128035181758,-0.00010578457483064508
-0.0006665488098869483,-0.0022214622661448705,-0.00010689522240597675
-0.0006923205589777405,-0.0022218019834870867,-0.00010800603846838474
-0.0007478104761035462,-0.002222162016245857,-0.00010911702946831797
-0.0008330332187190551,-0.0022225572271695627,-0.00011022820927917182
-0.0009478888783417831,-0.0022230024576938277,-0.00011133959920038767
-0.0010921544757613374,-0.0022235124685323535,-0.00011245122793194422
-0.0012654761484122048,-0.002224101876188397,-0.0001135631315181244
-0.001467362146850508,-0.002224785085762213,-0.00011467535325861206
-0.0016971767043366896,-0.0022255762204750097,-0.00011578794358517136
-0.0019541348016510972,-0.0022264890483515067,-0.000116900959902378
-0.0022372978377081442,-0.0022275369065113465,-0.00011801446639109371
-0.0025455702408954577,-0.0022287326235309974,-0.0001191285337736043
-0.0028776971039514085,-0.002230088440367209,-0.00012024323903957886
-0.003232262968709631,-0.0022316159303853744,-0.000121358665132267
-0.0036076918985924597,-0.0022333259191021997,-0.0001224749005946389
-0.004002248954695986,-0.0022352284043155217,-0.00012359203917549334
-0.0044140431583024765,-0.002237332477343771,-0.00012471017939590817
-0.00484103199485995,-0.002239646246132062,-0.00012582942407677713
-0.00528102748894485,-0.002242176761003013,-0.0001269498798285609
-0.005731703856642623,-0.00224492994383941,-0.0001280716565047715
-0.006190606734664907,-0.0022479105214872367,-0.00012919486662110315
-0.006655163996333432,-0.0022511219641699865,-0.00013031962474251745
-0.0071226981682256775,-0.0022545664297111264,-0.00013144604684098773
-0.007590440431997557,-0.002258244714361182,-0.0001325742496270058
-0.008055546141238334,-0.002262156211004491,-0.00013370434985834721
-0.008515111734974953,-0.0022662988754735447,-0.00013483646362996672
-0.008966192903601603,-0.0022706692016331888,-0.0001359707056492434
-0.00940582384641026,-0.0022752622058206918,-0.00013710718850110687
-0.00983103743471719,-0.0022800714211409735,-0.00013824602190784727
-0.010238886057984991,-0.002285088902014149,-0.00013938731198863606
-0.01062646288786964,-0.0022903052392506127,-0.00014053116052395226
-0.01099092325414056,-0.0022957095857861153,-0.00014167766423021143
-0.011329505797564688,-0.0023012896930490415,-0.00014282691404992023
-0.01163955306124284,-0.0023070319577637435,-0.00014397899446262342
-0.011918531206154872,-0.002312921478830593,-0.000145133982821772
-0.012164048573911616,-0.0023189421237756096,-0.00014629194872242354
-0.01237387285237393,-0.002325076604132181,-0.0001474529534044005
-0.012545946628327536,-0.0023313065590023566,-0.00014861704919518412
-0.012678401148067786,-0.0023376126459464554,-0.00014978427899642132
-0.012769568156058743,-0.002343974638272487,-0.00015095467581747606
-0.012817989734651411,-0.0023503715277451644,-0.00015212826235898048
-0.012822426109006076,-0.0023567816317060786,-0.00015330505064884328
-0.012781861401520229,-0.00236318270358371,-0.00015448504173266574
-0.012695507323517874,-0.0023695520457649695,-0.00015566822542000292
-0.012562804791628978,-0.002375866623793756,-0.00015685458008739262
-0.012383423462638017,-0.002382103180857323,-0.00015804407253855538
-0.012157259194227282,-0.0023882383515215393,-0.0001592366579216501
-0.011884429459565624,-0.0023942487736849875,-0.00016043227970295173
-0.011565266778168258,-0.002400111197744421,-0.00016163086969580909
-0.011200310278841543,-0.0024058025920086733,-0.00016283234814324735
-0.010790295568250285,-0.0024113002434704464,-0.00016403662385211713
-0.010336143117265124,-0.002416581853141825,-0.00016524359437627018
-0.009838945390155505,-0.0024216256252686803,-0.0001664531462458728
-0.009299952944259409,-0.0024264103498522842,-0.00016766515523965306
-0.008720559739678049,-0.0024309154780232686,-0.00016887948669662195
-0.008102287919689517,-0.0024351211899381105,-0.0001700959958636123
-0.007446772332451724,-0.002439008455001146,-0.00017131452827484712
-0.006755745044247386,-0.0024425590843453206,-0.00017253492015968373
-0.006031020048683848,-0.0024457557756185533,-0.00017375699887467469
-0.005274478325120298,-0.0024485821502120042,-0.00017498058335613232
-0.004488053357462984,-0.00245102278313265,-0.00017620548458946848
-0.003673717192949186,-0.0024530632257702533,-0.00017743150609169422
-0.0028334670978041668,-0.0024546900218429418,-0.00017865844440359752
-0.0019693128534777936,-0.0024558907168307624,-0.00017988608958826596
-0.001083264733630178,-0.0024566538612275394,-0.00018111422573278052
-0.00017732220552354788,-0.0024569690079623277,-0.00018234263145007799
0.0007465365948949614,-0.002456826704364985,-0.00018357108037815982
0.0016863645630122834,-0.002456218479075508,-0.00018479934167401995
0.0026402544583468256,-0.0024551368243201682,-0.00018602718049986886
0.003606346849067942,-0.0024535751739933145,-0.00018725435849944723
0.004582837171023283,-0.0024515278779882917,-0.00018848063426244263
0.005567981914435657,-0.0024489901732169268,-0.00018970576377524392
0.006560103942218351,-0.0024459581517527634,-0.00019092950085648636
0.007557596928571015,-0.002442428726535066,-0.00019215159757605832
0.008558928905248118,-0.002438399595076611,-0.00019337180465646124
0.009562644920163758,-0.002433869201620258,-0.00019458987185563546
0.010567368834852315,-0.002428836698181504,-0.0001958055483305859
0.011571804299995396,-0.002423301904897792,-0.0001970185829813557
0.012574734952670667,-0.0024172652700846257,-0.00019822872477510132
0.013575023886201226,-0.002410727830374908,-0.0001994357230502162
0.014571612460478254,-0.002403691171288238,-0.00020063932780063198
0.015563518544821292,-0.002396157388536913,-0.00020183928994058827
0.016549834307149434,-0.0023881290503239205,-0.0002030353615503035
0.017529723671131477,-0.0023796091608293502,-0.0002042272961030918
0.018502419553741656,-0.002370601125023132,-0.00020541484867455493
0.019467220979090715,-0.002361108714889924,-0.0002065977761345332
0.020423490152481707,-0.0023511360371070308,-0.00020777583732253243
0.021370649571550965,-0.0023406875021760227,-0.00020894879320735319
0.0223081792380431,-0.002329767794973624,-0.0002101164070316406
0.023235614005093726,-0.00231838184666284,-0.0002112784444420497
0.024152541054433967,-0.002306534807897958,-0.0002124346736056899
0.025058597459155906,-0.0022942320232695605,-0.00021358486531348176
0.025953467762688687,-0.0022814790069640993,-0.00021472879307104018
0.02683688149948316,-0.0022682814196485564,-0.00021586623317769335
0.027708610601541842,-0.0022546450466233003,-0.0002169969647942613
0.028568466678122507,-0.0022405757773033843,-0.000218120770000243
0.029416298214986567,-0.002226079586080107,-0.00021923743384108887
0.030251987795369157,-0.0022111625145775178,-0.00022034674436625327
0.031075449477840435,-0.0021958306552592156,-0.00022144849265871245
0.03188662647271985,-0.0021800901362715756,-0.00022254247285659516
0.03268548925413071,-0.002163947107339863,-0.000223628482167498
0.033472034242310954,-0.0021474077264657526,-0.0002247063208759494
0.03424628318430202,-0.0021304781471090995,-0.0002257757923443431
0.03500828333616454,-0.0021131645054789827,-0.00022683670300749012
0.03575810849842421,-0.0020954729075203355,-0.00022788886236073996
0.03649586087526396,-0.0020774094151769134,-0.00022893208294141426
0.037221673621732836,-0.0020589800315526643,-0.00022996618030309666
0.037935713836425335,-0.0020401906846881247,-0.00023099097298215685
0.038638185684615384,-0.0020210472098078644,-0.00023200628245578084
0.039329333316122324,-0.00200155533005768,-0.00023301193309074723
0.04000944326544913,-0.001981720635912287,-0.00023400775208223972
0.04067884607402706,-0.001961548563577418,-0.00023499356938211214
0.04133791694410533,-0.0019410443728228848,-0.00023596921761621223
0.0419870753115656,-0.001920213124758967,-0.00023693453199060769
0.04262678330028241,-0.001899059660106005,-0.00023788935018682393
0.04325754308228839,-0.0018775885785103624,-0.00023883351224647802
0.04387989320648069,-0.00185580421943817,-0.00023976686044596516
0.044494403975202414,-0.0018337106451427492,-0.0002406892391621104
0.04510167195434904,-0.0018113116261603613,-0.00024160049472993618
0.04570231370568353,-0.0017886106297453532,-0.0002425004752939126
0.04629695882765475,-0.0017656108116120186,-0.00024338903065425195
0.046886242382205234,-0.0017423150113095537,-0.0002442660121099823
0.047470796777076406,-0.0017187257515197333,-0.00024513127230068964
0.04805124317256738,-0.0016948452415323223,-0.00024598466504895263
0.048628182489033424,-0.001670675385116922,-0.0002468260452056149
0.049202186102229456,-0.0016462177929691063,-0.00024765526850013646
