frame_number,force
0,698.420287999047
1,698.3179464681749
2,698.2162374304723
3,698.1157816917827
4,698.0171770473173
5,697.9209876215523
6,697.8277340880151
7,697.7378849277179
8,697.6518488568003
9,697.5699685401574
10,697.4925157039582
11,697.4196877764819
12,697.3516062175314
13,697.2883167021286
14,697.2297912660953
15,697.175932400352
16,697.1265789341727
17,697.0815134291059
18,697.040470756112
19,697.0031475349557
20,696.9692121164935
21,696.938314756288
22,696.9100976051311
23,696.88420418011
24,696.8602880712485
25,696.8380207365304
26,696.8170983045418
27,696.7972473209867
28,696.7782293444747
29,696.7598442465834
30,696.7419320452385
31,696.724373132262
32,696.7070868513174
33,696.6900285190986
34,696.6731851243865
35,696.6565700585435
36,696.6402173179702
37,696.6241756648395
38,696.6085032025076
39,696.593262685037
40,696.5785176718396
41,696.5643294516888
42,696.5507545661001
43,696.5378427693754
44,696.5256353316112
45,696.5141636501129
46,696.5034481254955
47,696.4934971972395
48,696.4843063977115
49,696.4758573272983
50,696.468116554138
51,696.4610345341629
52,696.4545446803918
53,696.4485626818332
54,696.4429861246251
55,696.4376944514901
56,696.4325493212374
57,696.4273954704844
58,696.4220622115604
59,696.4163657151878
60,696.4101122051658
61,696.403102116419
62,696.3951351634862
63,696.3860161877748
64,696.3755616066036
65,696.3636062324653
66,696.3500101536458
67,696.3346653141446
68,696.3175014470634
69,696.2984910930072
70,696.2776535285151
71,696.2550574950449
72,696.2308226318531
73,696.2051194829022
74,696.1781679155556
75,696.1502338273918
76,696.121624170225
77,696.0926805488052
78,696.0637718405957
79,696.0352863370958
80,696.0076238369425
81,695.9811880033867
82,695.9563791837877
83,695.9335877932953
84,695.913188316306
85,695.8955339923149
86,695.8809522799143
87,695.8697411657226
88,695.8621663038333
89,695.858458899224
90,695.8588142280609
91,695.8633907059661
92,695.8723094362917
93,695.8856541659666
94,695.903471541073
95,695.9257715141923
96,695.9525277484818
97,695.983677903852
98,696.0191237690362
99,696.0587313115227
100,696.1023308428815
101,696.1497175955886
102,696.2006530204242
103,696.2548670253973
104,696.3120612299144
105,696.3719131566812
106,696.4340811584425
107,696.498209787792
108,696.5639352817087
109,696.6308908659062
110,696.6987116799213
111,696.7670392482349
112,696.8355255417114
113,696.9038367599543
114,696.9716569898364
115,697.038691843352
116,697.104672070713
117,697.1693570283696
118,697.2325377933953
119,697.2940396733748
120,697.3537238718645
121,697.411488130013
122,697.4672662569453
123,697.5210265578891
124,697.5727692476543
125,697.6225229907081
126,697.6703407364748
127,697.7162950227867
128,697.7604729289478
129,697.8029709093355
130,697.8438898176972
131,697.8833304775883
132,697.9213901236063
133,697.9581599542655
134,697.9937239380849
135,698.0281588960784
136,698.0615357268825
137,698.0939214652316
138,698.1253817337143
139,698.1559831209341
140,698.1857951014315
141,698.2148912548495
142,698.2433496883068
143,698.2712526878452
144,698.2986857124387
145,698.3257358904583
146,698.3524901760346
147,698.3790332808392
148,698.4054454581915
149,698.4318002263084
150,698.4581621710053
151,698.4845850159415
152,698.5111101498155
153,698.5377657433711
154,698.5645664838827
155,698.5915138344932
156,698.6185966345234
157,698.6457918092573
158,698.6730649445918
159,698.7003705123497
160,698.7276516166322
161,698.7548392379506
162,698.7818510350304
163,698.8085898226714
164,698.8349418981829
165,698.8607754334857
166,698.8859391665412
167,698.910261611629
168,698.9335509662722
169,698.9555958218125
170,698.9761666959876
171,698.9950183235648
172,699.0118925764592
173,699.0265218388688
174,699.0386326515662
175,699.0479494849649
176,699.0541986031168
177,699.0571121069692
178,699.0564323377891
179,699.0519168291156
180,699.0433439029002
181,699.0305188460777
182,699.0132804535832
183,698.9915076572039
184,698.9651259816268
185,698.9341136188058
186,698.8985069463606
187,698.8584053432794
188,698.8139751768614
189,698.7654528129557
190,698.7131464318954
191,698.657436383672
192,698.5987738579503
193,698.5376777574781
194,698.4747297622779
195,698.4105676138786
196,698.3458766699221
197,698.2813798280483
198,698.2178260023602
199,698.155977440785
200,698.0965962783439
201,698.0404308004548
202,697.9882019070149
203,697.9405902148269
204,697.898224153192
205,697.861669341966
206,697.8314194920002
207,697.8078890009255
208,697.7914073199885
209,697.7822150645133
210,697.7804617717785
211,697.786205200029
212,697.7994120991764
213,697.8199604313771
214,697.8476430499454
215,697.8821728548139
216,697.9231894331173
217,697.9702671441364
218,698.022924505473
219,698.0806346201936
220,698.1428363154296
221,698.2089456596235
222,698.2783675455065
223,698.3505070165367
224,698.4247799749963
225,698.5006228964156
226,698.5775012376384
227,698.6549163525863
228,698.732410866046
229,698.8095725630731
230,698.8860369257449
231,698.9614884954209
232,699.0356612556467
233,699.1083382181031
234,699.1793503597576
235,699.2485750164874
236,699.3159338037863
237,699.3813901280155
238,699.4449463768997
239,699.5066409096119
240,699.5665449619627
241,699.6247595249371
242,699.6814121820302
243,699.7366538571218
244,699.7906554424534
245,699.843604308553
246,699.8957007077508
247,699.9471540730816
248,699.9981792147138
249,700.0489924458036
250,700.0998077219215
251,700.1508329269371
252,700.2022664529453
253,700.254294193518
254,700.3070870246204
255,700.3607988182886
256,700.415565020825
257,700.471501799864
258,700.5287056984323
259,700.5872536383237
260,700.6472030259735
261,700.7085916637529
262,700.7714371742746
263,700.8357357152848
264,700.9014598996395
265,700.9685560149092
266,701.0369408085613
267,701.1064982140682
268,701.1770764305637
269,701.2484857750418
270,701.3204977366395
271,701.3928456604826
272,701.4652274347568
273,701.5373104270429
274,701.6087387055123
275,701.6791422998529
276,701.7481479716898
277,701.8153907688195
278,701.8805255786956
279,701.9432379536983
280,702.0032536128464
281,702.0603462013694
282,702.1143430852088
283,702.1651291446245
284,702.2126486791327
285,702.2569056200297
286,702.2979622706192
287,702.3359367892439
288,702.3709996163668
289,702.4033690180947
290,702.4333058730871
291,702.4611077871235
292,702.4871025985017
293,702.5116413390087
294,702.535090728037
295,702.5578252927456
296,702.5802192314654
297,702.6026381786716
298,702.6254310677391
299,702.648922291734
300,702.6734043438887
301,702.6991311210386
302,702.7263121021194
303,702.7551076299226
304,702.7856255004825
305,702.8179190152881
306,702.851986596152
307,702.8877729983494
308,702.9251720840463
309,702.96403104728
310,703.0041559110755
311,703.0453180304427
312,703.087261247197
313,703.1297093091097
314,703.1723732208031
315,703.214958302264
316,703.2571708274903
317,703.298724163822
318,703.339344328989
319,703.3787748451193
320,703.4167807342097
321,703.453151508605
322,703.487703072742
323,703.5202785393125
324,703.5507480347108
325,703.5790076050764
326,703.6049773350918
327,703.6285987677929
328,703.6498316897223
329,703.668650352653
330,703.6850392461756
331,703.6989885808343
332,703.7104896528626
333,703.7195302386118
334,703.7260901358821
335,703.7301369545897
336,703.731622272575
337,703.7304783132937
338,703.7266153515756
339,703.7199200793846
340,703.7102551478845
341,703.6974600578953
342,703.6813535128472
343,703.6617372629726
344,703.6384013390419
345,703.6111304241934
346,703.5797110043219
347,703.5439389055389
348,703.5036268514248
349,703.4586117201263
350,703.4087612463966
351,703.3539800043926
352,703.2942146126035
353,703.2294581896119
354,703.1597541232169
355,703.0851991849067
356,703.0059459564801
357,702.9222044790331
358,702.8342429921831
359,702.7423875769765
360,702.6470204541681
361,702.5485766731609
362,702.4475390016923
363,702.3444309910114
364,702.2398084068057
365,702.1342494223471
366,702.0283441050619
367,701.9226837653051
368,701.8178506998986
369,701.7144087782315
370,701.6128951798477
371,701.5138134093824
372,701.4176275577391
373,701.3247577243634
374,701.2355765571521
375,701.1504069097244
376,701.069520572416
377,700.9931379088695
378,700.9214281146657
379,700.8545097955729
380,700.7924516521498
381,700.7352731898304
382,700.6829454713139
383,700.6353919648157
384,700.5924895398292
385,700.5540696419108
386,700.5199196501035
387,700.4897844164859
388,700.4633680451186
389,700.44033607355
390,700.4203182965699
391,700.4029124505397
392,700.3876888717514
393,700.3741961259059
394,700.3619675198563
395,700.3505283368848
396,700.3394035629984
397,700.3281258047181
398,700.3162430696927
399,700.3033261158304
400,700.2889751643459
401,700.2728258652215
402,700.2545544441333
403,700.233881945471
404,700.2105774674598
405,700.184460304093
406,700.1554009559451
407,700.1233210167275
408,700.0881919712072
409,700.0500329556363
410,700.0089075409529
411,699.9649196209989
412,699.9182085454127
413,699.8689437159479
414,699.81731891426
415,699.7635466108003
416,699.707852422869
417,699.6504697806698
418,699.5916347790384
419,699.5315811893977
420,699.4705356751724
421,699.4087133264533
422,699.3463136494612
423,699.2835171246427
424,699.220482426378
425,699.1573443888358
426,699.0942127867892
427,699.0311719614186
428,698.9682812586492
429,698.9055761656973
430,698.843069944874
431,698.780755510545
432,698.7186073107262
433,698.6565830473188
434,698.5946251513683
435,698.5326619950979
436,698.4706088872794
437,698.4083689918953
438,698.3458344278953
439,698.282887897818
440,698.2194051919519
441,698.1552588045216
442,698.0903227186052
443,698.0244782237233
444,697.957620460105
445,697.8896652520956
446,697.8205557122916
447,697.7502680796109
448,697.6788163025932
449,697.6062549860876
450,697.5326804652329
451,697.4582299261033
452,697.3830786342178
453,697.3074354583068
454,697.2315369959542
455,697.1556407116577
456,697.0800175600505
457,697.0049445691764
458,696.9306978014196
459,696.85754601019
460,696.7857452024022
461,696.7155342258358
462,696.647131419872
463,696.5807322901968
464,696.5165081159745
465,696.4546053873008
466,696.3951459743935
467,696.3382279153723
468,696.2839266819373
469,696.2322967712156
470,696.1833734926427
471,696.1371748569915
472,696.0937035026415
473,696.052948593415
474,696.0148875964247
475,695.9794878251109
476,695.9467076480047
477,695.9164973255138
478,695.8887995144022
479,695.8635495395793
480,695.8406755656873
481,695.8200988097633
482,695.8017339203246
483,695.7854896000633
484,695.7712694744237
485,695.7589731493675
486,695.7484974089294
487,695.7397375678648
488,695.7325890447872
489,695.7269492040281
490,695.7227194556754
491,695.7198075580613
492,695.7181300438118
493,695.7176146600989
494,695.7182026679462
495,695.7198508114633
496,695.7225327695533
497,695.7262399283504
498,695.7309813355641
499,695.7367827224714
500,695.743684536277
501,695.7517390143307
502,695.7610064058517
503,695.7715504734349
504,695.7834334094216
505,695.7967103278444
506,695.8114235526541
507,695.8275969902973
508,695.8452309294206
509,695.8642976514525
510,695.8847382441792
511,695.9064609499943
512,695.9293412470932
513,695.9532236949917
514,695.9779254196867
515,696.0032409944962
516,696.028948403675
517,696.0548157574032
518,696.0806084343617
519,696.1060963281966
520,696.1310608599405
521,696.1553014116922
522,696.1786408554996
523,696.2009299010148
524,696.2220500737875
525,696.2419152637498
526,696.2604719182145
527,696.2776980460467
528,696.2936012422954
529,696.3082159793361
530,696.3216004660002
531,696.3338334152105
532,696.3450110325892
533,696.3552444321141
534,696.3646575378598
535,696.3733854024356
536,696.3815728078622
537,696.3893730228322
538,696.3969466414514
539,696.4044604714326
540,696.412086446687
541,696.4200005283734
542,696.4283815593061
543,696.437410053171
544,696.4472669156842
545,696.4581320972286
546,696.4701831697513
547,696.4835938143965
548,696.4985321970511
549,696.5151591895913
550,696.5336263798632
551,696.5540738303123
552,696.5766275988645
553,696.6013971031738
554,696.6284724610886
555,696.6579219596518
556,696.6897897970447
557,696.7240942226231
558,696.7608261738995
559,696.7999484687892
560,696.8413955640864
561,696.8850738615284
562,696.9308625371808
563,696.9786148652328
564,697.0281599970947
565,697.0793051750829
566,697.1318384275195
567,697.1855318663078
568,697.2401457224355
569,697.2954331878537
570,697.351146012623
571,697.4070406758178
572,697.4628848531105
573,697.5184638877951
574,697.5735870334105
575,697.6280933088
576,697.6818568219378
577,697.7347913734939
578,697.7868541036252
579,697.8380479563887
580,697.8884228026209
581,697.9380751203588
582,697.9871461382234
583,698.0358183309086
584,698.0843101723157
585,698.1328691150027
586,698.1817628483036
587,698.2312689720243
588,698.2816633199118
589,698.3332073014642
590,698.3861347988017
591,698.4406392994466
592,698.4968619845108
593,698.5548814073551
594,698.6147052628967
595,698.6762646299811
596,698.739410961453
597,698.8039159705248
598,698.869474423924
599,698.9357097196911
600,699.0021820084095
601,699.0683985242657
602,699.1338257407605
603,699.1979029479814
604,699.2600568376416
605,699.3197166553814
606,699.376329437735
607,699.4293748224478
608,699.4783789397776
609,699.5229269628321
610,699.5626739788758
611,699.5973538990357
612,699.6267861564024
613,699.6508799960908
614,699.669636258095
615,699.6831466741997
616,699.691590814487
617,699.6952309133973
618,699.6944048706047
619,699.6895177482266
620,699.6810320799664
621,699.669457292834
622,699.6553385336853
623,699.6392451916374
624,699.6217594015377
625,699.6034647788225
626,699.5849355681279
627,699.5667263311028
628,699.5493622975155
629,699.5333305451492
630,699.5190722159048
631,699.5069759943384
632,699.4973730568715
633,699.4905336319415
634,699.486665205783
635,699.4859123008875
636,699.4883576678092
637,699.4940246736201
638,699.5028806536533
639,699.5148410228724
640,699.5297740037402
641,699.5475058922087
642,699.5678268265558
643,699.5904970320961
644,699.6152535020451
645,699.6418170641138
646,699.6698997769071
647,699.6992125937369
648,699.729473226008
649,699.7604141225278
650,699.7917904254866
651,699.823387667228
652,699.855028877496
653,699.8865807212476
654,699.9179582969947
655,699.9491282944491
656,699.9801103239547
657,700.0109763569046
658,700.0418483262895
659,700.0728940212068
660,700.1043214733224
661,700.1363720826869
662,700.1693127708194
663,700.2034274851396
664,700.2390084099188
665,700.2763472552035
666,700.3157269761783
667,700.3574142023866
668,700.4016525360458
669,700.4486567461786
670,700.4986077763022
671,700.5516484148033
672,700.6078794477984
673,700.6673561202642
674,700.730084784914
675,700.7960197364464
676,700.8650603907474
677,700.9370491133983
678,701.0117700745471
679,701.0889494882097
680,701.1682574897208
681,701.2493117394104
682,701.3316826656715
683,701.414900144775
684,701.4984613848428
685,701.5818397901916
686,701.6644945662268
687,701.745880778196
688,701.8254595405617
689,701.9027080146221
690,701.9771289245882
691,702.0482593535155
692,702.1156786409676
693,702.1790152556933
694,702.2379525309819
695,702.2922331205875
696,702.3416620001973
697,702.3861078619216
698,702.4255028365842
699,702.459840582802
700,702.489172861146
701,702.5136047638307
702,702.5332887999145
703,702.5484180354066
704,702.5592184635107
705,702.5659407607266
706,702.5688515926022
707,702.5682246719714
708,702.5643318321141
709,702.5574344394356
710,702.547775515038
711,702.5355729395338
712,702.5210140553579
713,702.5042518492679
714,702.485402729596
715,702.4645457706159
716,702.4417232273312
717,702.4169421221189
718,702.3901767201777
719,702.3613717066872
720,702.3304458596009
721,702.2972959944543
722,702.2618009524639
723,702.2238254326096
724,702.1832235542937
725,702.1398421623851
726,702.0935239992226
727,702.0441109322827
728,701.9914474372617
729,701.9353844865661
730,701.8757838689833
731,701.8125227980047
732,701.7454985357725
733,701.6746327311203
734,701.5998752378921
735,701.5212072901058
736,701.4386440067304
737,701.3522362400934
738,701.2620717530949
739,701.1682756348621
740,701.0710098006651
741,700.9704714290798
742,700.8668902845094
743,700.7605250222941
744,700.6516587257865
745,700.5405940438643
746,700.4276483594625
747,700.3131494089662
748,700.197431694758
749,700.0808339130675
750,699.9636974783683
751,699.8463660816103
752,699.7291860919319
753,699.6125075172368
754,699.496685190424
755,699.382079853442
756,699.2690588669254
757,699.1579963527854
758,699.049272645038
759,698.943272967355
760,698.8403852913121
761,698.7409973779561
762,698.6454930755001
763,698.5542480341911
764,698.467625083766
765,698.3859695641773
766,698.3096048877256
767,698.2388285528859
768,698.1739087480918
769,698.1150815868251
770,698.0625489148358
771,698.0164765518255
772,697.9769927897421
773,697.9441869590829
774,697.9181078861355
775,697.8987621148524
776,697.8861118714541
777,697.8800728799436
778,697.8805122372756
779,697.8872466026946
780,697.9000409622897
781,697.9186082074789
782,697.9426097028143
783,697.9716569148336
784,698.0053140632998
785,698.0431016783859
786,698.0845009154517
787,698.1289584841136
788,698.175892079984
789,698.2246962589658
790,698.2747487563248
791,698.3254173119836
792,698.3760671065352
793,698.4260689384816
794,698.4748082830309
795,698.5216953479693
796,698.5661761646011
797,698.6077446330179
798,698.645955298855
799,698.6804364711123
800,698.7109031039291
801,698.7371687061354
802,698.7591554720312
803,698.7769018682931
804,698.790567046778
805,698.8004316569042
806,698.8068948739021
807,698.8104676891267
808,698.8117626876643
809,698.8114806774537
810,698.8103946614372
811,698.809331753634
812,698.8091536934193
813,698.8107365932509
814,698.8149504969734
815,698.8226392756947
816,698.8346013579101
817,698.8515717524704
818,698.8742057493665
819,698.9030645884945
820,698.9386033165042
821,698.9811610238621
822,699.0309536370011
823,699.0880694077904
824,699.152467211956
825,699.2239777575135
826,699.3023077766684
827,699.3870471682111
828,699.4776788713348
829,699.5735910655267
830,699.6740911911004
831,699.7784212884284
832,699.8857742046351
833,699.9953102488314
834,700.106173879927
835,700.2175100143415
836,700.3284795577007
837,700.4382737874492
838,700.5461272464848
839,700.6513288609283
840,700.7532310618604
841,700.8512567608105
842,700.9449040971485
843,701.0337489364383
844,701.1174451551126
845,701.1957228158326
846,701.2683844257937
847,701.3352995606217
848,701.39639821038
849,701.4516632479153
850,701.501122422572
851,701.5448402502361
852,701.5829101319349
853,701.615447010452
854,701.6425808544031
855,701.6644512037246
856,701.6812029041905
857,701.6929830295577
858,701.699938867949
859,701.7022167344617
860,701.6999612732695
861,701.6933148744045
862,701.6824168930357
863,701.6674025097494
864,701.6484012443873
865,701.6255352634236
866,701.5989176820559
867,701.5686510900965
868,701.5348265540715
869,701.4975233527045
870,701.4568096526659
871,701.4127442071484
872,701.3653789858012
873,701.3147624861365
874,701.260943394629
875,701.2039742650844
876,701.1439149218222
877,701.0808353437669
878,701.0148178384767
879,700.945958372434
880,700.8743669744808
881,700.800167168187
882,700.7234944387243
883,700.6444938316881
884,700.5633169085
885,700.4801183915686
886,700.3950528713857
887,700.3082719178183
888,700.2199218783716
889,700.130142586745
890,700.0390671479042
891,699.946822900288
892,699.8535335599117
893,699.7593224016931
894,699.6643161491314
895,699.5686490966158
896,699.4724669446318
897,699.3759298976473
898,699.2792147269383
899,699.1825156925745
900,699.0860444062062
901,698.9900288658106
902,698.8947119882533
903,698.8003499896441
904,698.7072108987899
905,698.6155733519652
906,698.5257256729118
907,698.4379651449663
908,698.3525973266825
909,698.269935217333
910,698.1902980432427
911,698.114009439328
912,698.0413948687809
913,697.9727782509125
914,697.9084779050253
915,697.8488020122883
916,697.794043837405
917,697.744476973678
