frame_number,force
0,699.5426030091025
1,699.5470001534092
2,699.5513437098618
3,699.5555806073514
4,699.5596587992032
5,699.5635277532919
6,699.5671389168741
7,699.5704461493341
8,699.5734061170585
9,699.5759786459645
10,699.57812702876
11,699.5798182856992
12,699.5810233793064
13,699.5817173849936
14,699.5818796199253
15,699.5814937316895
16,699.5805477473166
17,699.5790340833296
18,699.5769495190733
19,699.5742951377355
20,699.5710762410287
21,699.5673022436097
22,699.5629865521275
23,699.5581464322955
24,699.5528028663562
25,699.5469804024474
26,699.5407069958359
27,699.5340138396238
28,699.5269351800888
29,699.5195081101698
30,699.5117723341677
31,699.5037698975435
32,699.495544877693
33,699.4871430345049
34,699.4786114226924
35,699.4699979705175
36,699.4613510311309
37,699.452718913393
38,699.4441493990207
39,699.4356892523197
40,699.427383727512
41,699.4192760769323
42,699.4114070619315
43,699.4038144680903
44,699.3965326272917
45,699.3895919506081
46,699.3830184771855
47,699.3768334451105
48,699.3710528904207
49,699.3656872798538
50,699.3607411818916
51,699.3562129795806
52,699.3520946279981
53,699.3483714595131
54,699.3450220410572
55,699.3420180886194
56,699.3393244441829
57,699.3368991192608
58,699.3346934076953
59,699.3326520692342
60,699.3307135851137
61,699.328810487408
62,699.3268697642854
63,699.3248133423735
64,699.3225586449381
65,699.3200192215425
66,699.3171054424215
67,699.313725249141
68,699.3097849517512
69,699.3051900615466
70,699.2998461482243
71,699.2936597108389
72,699.2865390529433
73,699.2783951530433
74,699.2691425220391
75,699.2587000404109
76,699.2469917697695
77,699.2339477350498
78,699.219504673881
79,699.2036067484572
80,699.1862062134824
81,699.1672640324153
82,699.1467504335416
83,699.12464539705
84,699.1009390641653
85,699.0756320599885
86,699.0487357236308
87,699.0202722421556
88,698.9902746875982
89,698.9587869580342
90,698.9258636243328
91,698.8915696844113
92,698.855980227008
93,698.8191800074422
94,698.7812629383849
95,698.742331499049
96,698.7024960664113
97,698.6618741723917
98,698.620589691743
99,698.5787719667767
100,698.5365548764297
101,698.4940758579281
102,698.4514748893467
103,698.4088934412474
104,698.3664734056929
105,698.324356011269
106,698.2826807332267
107,698.2415842086738
108,698.2011991681677
109,698.1616533969811
110,698.1230687409753
111,698.0855601726656
112,698.0492349324784
113,698.0141917585086
114,697.9805202155449
115,697.9483001311793
116,697.9176011438652
117,697.8884823649363
118,697.8609921539596
119,697.8351680048057
120,697.8110365387788
121,697.7886136007629
122,697.7679044539825
123,697.7489040683023
124,697.7315974960105
125,697.7159603280213
126,697.7019592227368
127,697.689552499559
128,697.6786907891195
129,697.6693177325905
130,697.6613707229702
131,697.6547816819962
132,697.6494778671711
133,697.6453827039564
134,697.6424166382011
135,697.6404980033641
136,697.6395438963073
137,697.6394710545944
138,697.6401967274976
139,697.6416395324621
140,697.6437202887412
141,697.6463628202254
142,697.6494947199882
143,697.6530480694639
144,697.6569601051169
145,697.6611738250356
146,697.6656385277362
147,697.6703102761734
148,697.675152281607
149,697.6801352042057
150,697.6852373693306
151,697.6904448995738
152,697.6957517626977
153,697.7011597352787
154,697.706678281985
155,697.7123243514671
156,697.7181220914568
157,697.7241024871411
158,697.7303029279681
159,697.7367667091619
160,697.7435424756451
161,697.7506836174243
162,697.7582476259922
163,697.7662954204084
164,697.7748906497244
165,697.7840989763477
166,697.7939873437138
167,697.8046232312353
168,697.8160738993746
169,697.8284056277693
170,697.8416829500592
171,697.8559678904581
172,697.8713192084472
173,697.887791658504
174,697.9054352715693
175,697.9242946645841
176,697.9444083844511
177,697.9658082932878
178,697.9885190026196
179,698.0125573648484
180,698.037932030778
181,698.0646430821444
182,698.0926817475693
183,698.1220302086537
184,698.1526615001391
185,698.1845395048806
186,698.2176190413028
187,698.2518460383897
188,698.2871577914658
189,698.3234832912733
190,698.3607436187809
191,698.3988523982664
192,698.4377163015083
193,698.4772355967788
194,698.5173047377326
195,698.5578129886721
196,698.5986450833567
197,698.6396819143898
198,698.6808012496024
199,698.7218784710926
200,698.7627873318582
201,698.8034007244875
202,698.8435914563363
203,698.8832330260173
204,698.9222003966423
205,698.960370761684
206,698.9976242993314
207,699.0338449111892
208,699.0689209413679
209,699.1027458721734
210,699.1352189925415
211,699.166246035429
212,699.1957397808134
213,699.2236206214919
214,699.2498170892204
215,699.2742663387443
216,699.2969145868103
217,699.3177175022081
218,699.3366405414079
219,699.3536592229162
220,699.3687593329158
221,699.3819370556564
222,699.3931990240621
223,699.4025622882083
224,699.4100542012787
225,699.4157122243512
226,699.4195836528023
227,699.4217252681374
228,699.4222029198158
229,699.421091042426
230,699.4184721142427
231,699.4144360635295
232,699.4090796290018
233,699.4025056809543
234,699.3948225095518
235,699.3861430863254
236,699.3765843040225
237,699.3662661992254
238,699.3553111621421
239,699.3438431386699
240,699.3319868308165
241,699.3198669023699
242,699.3076071970767
243,699.2953299764515
244,699.2831551837481
245,699.2711997399123
246,699.2595768768059
247,699.2483955125125
248,699.2377596727762
249,699.2277679615283
250,699.2185130823518
251,699.2100814120002
252,699.2025526269697
253,699.1959993844853
254,699.1904870595985
255,699.1860735399514
256,699.1828090792113
257,699.1807362095949
258,699.1798897136044
259,699.1802966550445
260,699.181976469336
261,699.1849411129771
262,699.1891952718664
263,699.1947366279771
264,699.201556183018
265,699.2096386360353
266,699.2189628098838
267,699.2295021197317
268,699.2412250753373
269,699.2540958076509
270,699.2680746093946
271,699.2831184788055
272,699.2991816555326
273,699.3162161375425
274,699.3341721681282
275,699.3529986835141
276,699.3726437146132
277,699.3930547408206
278,699.4141789981923
279,699.4359637479104
280,699.4583565130959
281,699.481305292825
282,699.5047587618859
283,699.5286664635489
284,699.5529790005671
285,699.5776482271282
286,699.602627442262
287,699.6278715838005
288,699.6533374212265
289,699.6789837451595
290,699.7047715506637
291,699.730664211373
292,699.7566276418357
293,699.7826304461272
294,699.8086440510225
295,699.8346428218036
296,699.8606041585126
297,699.8865085703566
298,699.9123397258855
299,699.9380844764947
300,699.9637328510837
301,699.9892780205923
302,700.0147162322571
303,700.0400467140677
304,700.0652715498887
305,700.0903955256158
306,700.1154259470496
307,700.14037243061
308,700.1652466677739
309,700.190062162844
310,700.2148339419872
311,700.2395782305776
312,700.2643120964393
313,700.2890530586176
314,700.3138186643166
315,700.3386260395765
316,700.3634914209401
317,700.3884296754479
318,700.4134538156702
319,700.4385745162001
320,700.4637996383437
321,700.4891337702362
322,700.5145777897606
323,700.540128457277
324,700.5657780446398
325,700.5915140068768
326,700.6173187033675
327,700.6431691760258
328,700.6690369922891
329,700.6948881600347
330,700.7206831195633
331,700.7463768148631
332,700.771918843431
333,700.7972536817449
334,700.822320982323
335,700.8470559379496
336,700.871389708642
337,700.8952499068607
338,700.9185611358992
339,700.9412455749715
340,700.9632236022402
341,700.984414444606
342,701.0047368414242
343,701.024109708898
344,701.0424527926884
345,701.0596872979833
346,701.0757364883852
347,701.0905262469764
348,701.103985594534
349,701.1160471612203
350,701.126647609375
351,701.1357280065869
352,701.143234150129
353,701.1491168458128
354,701.15333214565
355,701.1558415488896
356,701.1566121701399
357,701.1556168771288
358,701.1528344000518
359,701.148249414618
360,701.1418526012192
361,701.1336406823227
362,701.1236164390253
363,701.1117887059975
364,701.0981723423291
365,701.0827881746857
366,701.0656629090549
367,701.0468290079
368,701.0263245300766
369,701.0041929310529
370,700.9804828209519
371,700.9552476781545
372,700.9285455167882
373,700.9004385072777
374,700.8709925502247
375,700.840276805322
376,700.8083631785448
377,700.7753257719585
378,700.7412403009347
379,700.706183483838
380,700.6702324101178
381,700.633463894587
382,700.5959538280957
383,700.5577765369142
384,700.5190041639864
385,700.4797060845056
386,700.439948366502
387,700.3997932852878
388,700.3592988991006
389,700.3185186920114
390,700.2775012888828
391,700.2362902457475
392,700.1949239172715
393,700.153435401066
394,700.1118525569244
395,700.0701980978205
396,700.0284897481972
397,699.9867404630595
398,699.9449586988869
399,699.9031487255976
400,699.8613109685986
401,699.8194423711636
402,699.7775367690921
403,699.7355852712134
404,699.6935766408644
405,699.6514976750711
406,699.6093335795719
407,699.5670683388113
408,699.5246850805371
409,699.4821664346878
410,699.439494886085
411,699.396653120384
412,699.353624363016
413,699.3103927115407
414,699.2669434625479
415,699.2232634342379
416,699.1793412847096
417,699.1351678242638
418,699.0907363182768
419,699.0460427755218
420,699.0010862153539
421,698.9558689064542
422,698.9103965701341
423,698.8646785422154
424,698.8187278890557
425,698.7725614755736
426,698.7261999859135
427,698.6796678996817
428,698.6329934275893
429,698.5862084099975
430,698.5393481813365
431,698.4924514034709
432,698.4455598716212
433,698.3987182967834
434,698.3519740685742
435,698.3053770024073
436,698.2589790749263
437,698.2128341514698
438,698.1669977090318
439,698.1215265579299
440,698.0764785652098
441,698.0319123825293
442,697.9878871810096
443,697.9444623954987
444,697.901697480748
445,697.859651681689
446,697.8183838190558
447,697.7779520900358
448,697.7384138817364
449,697.699825593672
450,697.662242464937
451,697.625718402483
452,697.5903058086386
453,697.5560554079302
454,697.5230160745122
455,697.4912346615539
456,697.4607558327083
457,697.4316218936654
458,697.4038726196858
459,697.3775450740166
460,697.3526734125205
461,697.3292886710061
462,697.3074185329623
463,697.2870870768097
464,697.2683145036725
465,697.2511168488323
466,697.2355056819545
467,697.2214878025279
468,697.2090649376753
469,697.1982334496327
470,697.188984059912
471,697.1813015965554
472,697.1751647703367
473,697.1705459858265
474,697.1674111940306
475,697.1657197940585
476,697.1654245911274
477,697.1664718171244
478,697.1688012184542
479,697.1723462141898
480,697.177034125563
481,697.1827864758538
482,697.189519358428
483,697.1971438702516
484,697.205566608304
485,697.2146902263067
486,697.2244140487564
487,697.2346347383752
488,697.2452470119297
489,697.2561443980057
490,697.2672200287167
491,697.2783674557214
492,697.2894814798464
493,697.300458983295
494,697.3111997537302
495,697.3216072901563
496,697.3315895812871
497,697.3410598478422
498,697.3499372410555
499,697.3581474908066
500,697.3656234982061
501,697.3723058689801
502,697.3781433853825
503,697.3830934153112
504,697.3871222574136
505,697.3902054203083
506,697.3923278333074
507,697.3934839857806
508,697.3936779926069
509,697.3929235836957
510,697.391244016189
511,697.3886719086878
512,697.3852489975827
513,697.3810258162276
514,697.3760612986347
515,697.3704223110734
516,697.3641831173513
517,697.3574247858576
518,697.3502345478325
519,697.3427051164083
520,697.3349339750342
521,697.3270226425828
522,697.3190759212159
523,697.3112011318809
524,697.303507340982
525,697.296104580813
526,697.2891030664593
527,697.2826124132553
528,697.2767408610728
529,697.2715945137089
530,697.2672766023032
531,697.2638867807286
532,697.2615204590539
533,697.2602681795587
534,697.2602150388952
535,697.261440159771
536,697.2640162157646
537,697.2680090133236
538,697.2734771351211
539,697.2804716483665
540,697.2890358805906
541,697.2992052643597
542,697.311007251703
543,697.3244612988897
544,697.3395789222637
545,697.3563638254084
546,697.3748120965483
547,697.3949124730495
548,697.4166466674731
549,697.4399897471776
550,697.4649105574373
551,697.4913721771122
552,697.5193323962602
553,697.5487442062008
554,697.5795562939027
555,697.6117135341533
556,697.6451574748986
557,697.6798268129253
558,697.7156578580331
559,697.7525849838494
560,697.7905410628354
561,697.8294578822861
562,697.8692665377135
563,697.9098978002979
564,697.9512824559997
565,697.9933516148858
566,698.0360369899062
567,698.0792711450424
568,698.1229877139559
569,698.1671215920771
570,698.2116091068289
571,698.2563881714063
572,698.3013984267981
573,698.3465813750295
574,698.3918805049094
575,698.4372414104978
576,698.4826119021072
577,698.5279421096132
578,698.5731845779352
579,698.6182943545801
580,698.6632290690719
581,698.7079490041403
582,698.7524171588142
583,698.7965993037701
584,698.8404640291905
585,698.883982785319
586,698.9271299163685
587,698.9698826892055
588,699.0122213186461
589,699.0541289910401
590,699.0955918874422
591,699.1365992072989
592,699.1771431929255
593,699.2172191537637
594,699.2568254878465
595,699.2959636968815
596,699.3346383913461
597,699.3728572828152
598,699.4106311620629
599,699.4479738630895
600,699.4849022146979
601,699.5214359818505
602,699.5575977983368
603,699.5934130907042
604,699.6289099917393
605,699.664119240494
606,699.6990740649377
607,699.7338100428088
608,699.7683649361784
609,699.8027784956091
610,699.8370922305612
611,699.8713491438915
612,699.9055934297517
613,699.9398701354976
614,699.97422478906
615,700.0087029936992
616,700.0433499926812
617,700.078210207592
618,700.1133267555903
619,700.1487409522678
620,700.1844918074186
621,700.2206155208133
622,700.2571449842856
623,700.294109295561
624,700.3315332888208
625,700.3694370871606
626,700.4078356825415
627,700.4467385490204
628,700.4861492947344
629,700.5260653572781
630,700.5664777460048
631,700.6073708338431
632,700.6487222007446
633,700.6905025307298
634,700.7326755641643
635,700.7751981060201
636,700.8180200895183
637,700.8610846932219
638,700.904328508929
639,700.9476817578627
640,700.9910685534802
641,701.034407210353
642,701.0776105994912
643,701.1205865505058
644,701.1632382998082
645,701.2054649822558
646,701.2471621622585
647,701.2882223997492
648,701.3285358462425
649,701.3679908660304
650,701.4064746771694
651,701.4438740064066
652,701.4800757518867
653,701.5149676477838
654,701.5484389260708
655,701.5803809719953
656,701.6106879705674
657,701.6392575409918
658,701.6659913546945
659,701.6907957308435
660,701.7135822014329
661,701.7342680366494
662,701.7527767212745
663,701.7690383749565
664,701.7829901131647
665,701.7945763504168
666,701.803749051398
667,701.810467937568
668,701.8147006565154
669,701.8164229196184
670,701.8156186117008
671,701.8122798746912
672,701.8064071657161
673,701.7980092887503
674,701.7871033980974
675,701.7737149713458
676,701.7578777489011
677,701.7396336369931
678,701.7190325713613
679,701.6961323394469
680,701.6709983597323
681,701.6437034179131
682,701.6143273605943
683,701.5829567477459
684,701.549684465295
685,701.5146092995619
686,701.4778354761625
687,701.4394721671034
688,701.3996329704349
689,701.3584353665387
690,701.3160001539454
691,701.2724508659528
692,701.2279131681264
693,701.1825142366882
694,701.1363821186877
695,701.0896450761089
696,701.0424309174283
697,700.9948663216447
698,700.9470761611955
699,700.8991828310409
700,700.8513055914015
701,700.8035599314752
702,700.7560569614215
703,700.708902839963
704,700.6621982444902
705,700.6160378891002
706,700.570510094194
707,700.5256964099599
708,700.4816712954421
709,700.4385018546654
710,700.3962476311746
711,700.3549604617767
712,700.3146843886782
713,700.2754556269613
714,700.2373025827703
715,700.2002459174489
716,700.1642986536025
717,700.1294663197488
718,700.0957471307199
719,700.0631322016333
720,700.0316057940715
721,700.0011455937345
722,699.9717230187243
723,699.9433035565023
724,699.9158471259124
725,699.8893084595978
726,699.8636375023967
727,699.8387798228197
728,699.8146770367343
729,699.7912672439907
730,699.768485479444
731,699.7462641799284
732,699.724533668673
733,699.7032226583449
734,699.6822587729171
735,699.6615690869553
736,699.6410806791259
737,699.6207211950282
738,699.6004194129216
739,699.5801058045893
740,699.5597130826358
741,699.5391767252826
742,699.5184354703185
743,699.4974317710496
744,699.4761122084558
745,699.4544278550616
746,699.4323345873094
747,699.4097933446444
748,699.3867703349985
749,699.3632371877471
750,699.339171056613
751,699.3145546765439
752,699.2893763800034
753,699.2636300787444
754,699.2373152166646
755,699.2104366979078
756,699.1830047922716
757,699.1550350174189
758,699.1265479946969
759,699.0975692732023
760,699.0681291158099
761,699.0382622415964
762,699.0080075212086
763,698.9774076245319
764,698.9465086226629
765,698.9153595482516
766,698.8840119199951
767,698.8525192388604
768,698.820936465398
769,698.789319488687
770,698.757724597516
771,698.7262079634653
772,698.694825144086
773,698.663630612731
774,698.6326773201374
775,698.6020162920355
776,698.5716962671189
777,698.5417633803353
778,698.5122608968528
779,698.4832290014099
780,698.4547046458091
781,698.4267214547423
782,698.399309688077
783,698.3724962566995
784,698.3463047884945
785,698.3207557405253
786,698.295866553119
787,698.2716518416486
788,698.2481236221673
789,698.2252915673679
790,698.203163289654
791,698.181744648567
792,698.1610400801329
793,698.1410529453358
794,698.1217858937978
795,698.1032412374154
796,698.0854213278511
797,698.0683289315922
798,698.0519675965454
799,698.0363420046302
800,698.021458305622
801,698.0073244283983
802,697.9939503661802
803,697.9813484318696
804,697.9695334784615
805,697.9585230786303
806,697.9483376574664
807,697.9390005726998
808,697.9305381372777
809,697.9229795800521
810,697.9163569417417
811,697.9107049050446
812,697.9060605596867
813,697.902463105185
814,697.899953495679
815,697.8985740319287
816,697.8983679056832
817,697.8993787017547
818,697.9016498641128
819,697.9052241346661
820,697.9101429765094
821,697.91644599571
822,697.9241703760869
823,697.9333503401649
824,697.9440166473798
825,697.9561961380438
826,697.9699113288441
827,697.9851800632528
828,698.0020152183919
829,698.020424468297
830,698.0404101016884
831,698.0619688904378
832,698.0850920036647
833,698.1097649624589
834,698.1359676315775
835,698.1636742464888
836,698.1928534761217
837,698.2234685231049
838,698.2554772639637
839,698.288832431688
840,698.3234818423715
841,698.359368666407
842,698.3964317430084
843,698.4346059345563
844,698.473822514824
845,698.5140095834194
846,698.5550924982384
847,698.5969943179863
848,698.6396362474208
849,698.6829380789852
850,698.7268186260881
851,698.7711961449655
852,698.8159887431189
853,698.8611147726625
854,698.9064932071091
855,698.9520440004567
856,698.9976884278079
857,699.043349406941
858,699.0889518003053
859,699.1344226969089
860,699.1796916734804
861,699.2246910337627
862,699.2693560235514
863,699.3136250174491
864,699.3574396723347
865,699.4007450431365
866,699.4434896586835
867,699.4856255581797
868,699.5271082908137
869,699.5678968815721
870,699.6079537659865
871,699.6472446962307
872,699.6857386211374
873,699.723407543328
874,699.7602263576746
875,699.7961726765478
876,699.8312266482675
877,699.8653707754257
878,699.8985897393042
879,699.9308702358458
880,699.9622008276903
881,699.9925718153556
882,700.0219751285445
883,700.0504042360953
884,700.0778540708978
885,700.1043209646585
886,700.1298025869338
887,700.1542978833492
888,700.1778070092344
889,700.2003312564796
890,700.221872972706
891,700.242435472765
892,700.2620229432044
893,700.2806403403291
894,700.2982932815881
895,700.3149879288347
896,700.330730861368
897,700.3455289368685
898,700.3593891393128
899,700.3723184146086
900,700.3843234967891
901,700.3954107296763
902,700.4055858903844
903,700.414854021469
904,700.4232192778561
905,700.4306847932805
906,700.4372525694346
907,700.4429233898248
908,700.4476967594297
909,700.4515708702019
910,700.4545425910396
911,700.4566074793916
912,700.4577598107422
913,700.4579926223946
914,700.4572977694573
915,700.4556659933052
916,700.4530870048727
917,700.4495495861536
