frame_number,force
0,699.5426030001604
1,699.5619496942307
2,699.5808509559948
3,699.5988790681768
4,699.6156408496331
5,699.630792765589
6,699.6440536262871
7,699.6552142971262
8,699.6641439820522
9,699.670792819804
10,699.675190747002
11,699.677442811505
12,699.6777213529103
13,699.6762556564482
14,699.6733197185206
15,699.6692186011869
16,699.6642736599973
17,699.6588069150118
18,699.6531250445967
19,699.6475037853654
20,699.6421737312296
21,699.637308511696
22,699.6330161160007
23,699.6293338693798
24,699.6262273812496
25,699.6235936239766
26,699.6212680350233
27,699.6190351406018
28,699.6166417912729
29,699.6138118142662
30,699.6102607880939
31,699.6057097391352
32,699.5998968368543
33,699.5925865834092
34,699.5835764520009
35,699.572701298619
36,699.5598360821375
37,699.5448974889599
38,699.5278450159269
39,699.5086819363354
40,699.4874563435632
41,699.4642621623244
42,699.4392397648427
43,699.4125757647225
44,699.3845016877223
45,699.3552914202356
46,699.3252575174686
47,699.2947465759023
48,699.2641339062013
49,699.2338176688427
50,699.204212494828
51,699.1757424781913
52,699.1488333722663
53,699.1239039142406
54,699.1013564276926
55,699.0815670750219
56,699.0648762084897
57,699.0515791874927
58,699.0419178890004
59,699.0360730553875
60,699.034157682897
61,699.0362118420222
62,699.0421994894871
63,699.0520077958122
64,699.065449234805
65,699.0822663175047
66,699.102138580877
67,699.1246912846557
68,699.1495051529756
69,699.1761264158507
70,699.2040764352496
71,699.2328603649563
72,699.2619745071116
73,699.2909121907018
74,699.3191681176975
75,699.3462413135585
76,699.3716371171979
77,699.394868898233
78,699.4154602105343
79,699.4329478697668
80,699.4468861244076
81,699.4568518195616
82,699.4624502712796
83,699.4633214293773
84,699.4591457891275
85,699.4496494982548
86,699.4346082880294
87,699.4138501861727
88,699.3872572643129
89,699.3547667973626
90,699.316372172018
91,699.2721237626188
92,699.2221298762443
93,699.1665577913403
94,699.1056348549342
95,699.0396495220781
96,698.9689521155879
97,698.893955004404
98,698.8151319065729
99,698.7330161252404
100,698.6481976421016
101,698.5613190221137
102,698.473070018781
103,698.3841806935388
104,698.2954128391067
105,698.2075495238485
106,698.1213826413072
107,698.0376984847044
108,697.9572616146248
109,697.8807976294887
110,697.8089757672503
111,697.7423924437232
112,697.6815568325334
113,697.6268794334105
114,697.5786642972816
115,697.5371052455639
116,697.5022860989665
117,697.4741846317241
118,697.4526797063759
119,697.4375608877601
120,697.4285398282851
121,697.4252628099624
122,697.4273239256509
123,697.4342784252024
124,697.4456557425565
125,697.460971698514
126,697.4797393929296
127,697.5014783787249
128,697.5257218291866
129,697.5520215513474
130,697.5799508635005
131,697.6091055439659
132,697.6391032448504
133,697.6695818967406
134,697.7001976637806
135,697.7306229463051
136,697.7605448106252
137,697.7896640869363
138,697.8176952400476
139,697.8443670144856
140,697.8694238046883
141,697.892627693377
142,697.9137611126561
143,697.9326300680553
144,697.9490677725074
145,697.9629383796616
146,697.9741403842603
147,697.9826092631687
148,697.9883190790616
149,697.9912830029095
150,697.9915529165914
151,697.9892183164374
152,697.98440463275
153,697.9772709107602
154,697.9680067039822
155,697.9568280818946
156,697.943972797838
157,697.9296947882458
158,697.9142582460377
159,697.8979315936492
160,697.880981818222
161,697.8636697645677
162,697.8462469904499
163,697.8289545901889
164,697.8120240300034
165,697.7956796746969
166,697.7801424617735
167,697.765634093035
168,697.7523810809815
169,697.7406179957187
170,697.7305893749892
171,697.7225499911111
172,697.7167633998397
173,697.7134988127272
174,697.7130263421852
175,697.7156106619628
176,697.7215031858667
177,697.730933013028
178,697.7440970810269
179,697.7611501526302
180,697.7821954149358
181,697.8072765823385
182,697.8363724044738
183,697.8693943085594
184,697.9061875686112
185,697.9465359938242
186,697.9901697473689
187,698.0367755930714
188,698.0860086810359
189,698.1375049553312
190,698.1908933408031
191,698.2458069630724
192,698.3018927772084
193,698.3588191825107
194,698.4162814836251
195,698.4740053304844
196,698.5317484278202
197,698.5893008283521
198,698.6464840667564
199,698.7031493050943
200,698.7591745731753
201,698.8144611334919
202,698.8689290073688
203,698.9225117680631
204,698.9751508043811
205,699.026789319092
206,699.0773663197203
207,699.1268108396961
208,699.1750366393
209,699.2219376357388
210,699.2673842717277
211,699.3112210075598
212,699.3532651497261
213,699.3933072685902
214,699.4311134616144
215,699.4664296664265
216,699.4989880964663
217,699.5285156467279
218,699.5547438186372
219,699.5774194165998
220,699.596315106175
221,699.6112389859607
222,699.6220425533947
223,699.6286267016086
224,699.630945603429
225,699.6290085235385
226,699.6228797385627
227,699.6126768180733
228,699.5985675564723
229,699.5807658875821
230,699.5595271441654
231,699.5351430038363
232,699.507936406482
233,699.4782566815181
234,699.4464750710142
235,699.4129807180592
236,699.3781770142144
237,699.3424780582488
238,699.3063049564623
239,699.270081794073
240,699.2342312594006
241,699.1991700363163
242,699.1653041569677
243,699.1330245119445
244,699.1027026602009
245,699.0746870155156
246,699.0492994562127
247,699.0268323915897
248,699.007546267277
249,698.9916673948396
250,698.9793858971451
251,698.9708535296195
252,698.9661812048299
253,698.96543619259
254,698.968639108213
255,698.9757608690235
256,698.9867198012586
257,699.0013790748183
258,699.0195446789086
259,699.0409642224539
260,699.0653269073488
261,699.0922650636745
262,699.1213576747717
263,699.1521363364561
264,699.184094006144
265,699.2166966702417
266,699.2493977691822
267,699.2816549606101
268,699.312948587667
269,699.3428010315172
270,699.3707959771755
271,699.3965965300836
272,699.419961064444
273,699.4407556311638
274,699.458961752555
275,699.4746786072063
276,699.4881190405877
277,699.4995994632958
278,699.5095243479172
279,699.5183665427681
280,699.5266449133171
281,699.5349009074728
282,699.543675555209
283,699.5534881864203
284,699.564817805347
285,699.5780876520007
286,699.5936531216848
287,699.6117929848142
288,699.6327037263736
289,699.6564967316825
290,699.6831979606121
291,699.712749727129
292,699.7450142719625
293,699.779778923588
294,699.8167626880675
295,699.8556240798305
296,699.8959699681421
297,699.9373651981077
298,699.9793427279225
299,700.0214140046689
300,700.063079331121
301,700.103838094479
302,700.1431988772354
303,700.18068953822
304,700.2158673121507
305,700.248328918511
306,700.2777206718539
307,700.3037486014649
308,700.3261884955618
309,700.344895528226
310,700.3598128083742
311,700.370977988959
312,700.3785271024317
313,700.3826950481732
314,700.3838125713288
315,700.3822999809634
316,700.3786580745527
317,700.3734567151338
318,700.3673213842982
319,700.3609179741027
320,700.354936124671
321,700.3500714967403
322,700.3470074089963
323,700.3463962413405
324,700.3488409643186
325,700.35487719002
326,700.3649562740105
327,700.3794301737194
328,700.3985388953977
329,700.4224013437249
330,700.451010172748
331,700.4842308807745
332,700.5218050347949
333,700.5633572717544
334,700.6084056437995
335,700.656374916436
336,700.7066125206998
337,700.7584069351118
338,700.811008265653
339,700.8636506413593
340,700.9155757515581
341,700.9660565251853
342,701.0144197352777
343,701.0600662766307
344,701.1024880056522
345,701.1412803031785
346,701.176149847623
347,701.2069173831026
348,701.2335154972855
349,701.2559816031315
350,701.2744464854079
351,701.2891189700564
352,701.3002675237825
353,701.3081998456122
354,701.313241664717
355,701.315715929162
356,701.315923378508
357,701.3141252544483
358,701.310528749059
359,701.3052757557193
360,701.2984354766602
361,701.2900013310796
362,701.2798923669296
363,701.2679590554842
364,701.2539930212198
365,701.2377400291956
366,701.2189154734897
367,701.1972216347112
368,701.1723660001802
369,701.144079910237
370,701.1121367348563
371,701.0763687613008
372,701.0366820113204
373,700.9930682861783
374,700.9456138591731
375,700.8945044138363
376,700.8400260249597
377,700.7825621166364
378,700.7225863742096
379,700.6606516094881
380,700.5973747030135
381,700.5334180318912
382,700.4694681767812
383,700.4062130453498
384,700.3443187100435
385,700.2844071834832
386,700.2270361294596
387,700.1726812760427
388,700.1217221294796
389,700.074431460987
390,700.0309689188341
391,699.9913789820655
392,699.955593295522
393,699.9234372202858
394,699.8946402632498
395,699.8688499469529
396,699.8456485674642
397,699.8245720589053
398,699.8051298766826
399,699.786824608239
400,699.7691700581372
401,699.7517068022725
402,699.7340145241244
403,699.7157207401743
404,699.6965057990888
405,699.6761043140889
406,699.6543034234876
407,699.6309384357489
408,699.6058864934128
409,699.5790588898886
410,699.550392629775
411,699.519841790132
412,699.4873692542843
413,699.4529394599747
414,699.4165128743296
415,699.3780428614746
416,699.3374753873904
417,699.2947516857816
418,699.2498136811436
419,699.2026116467971
420,699.153113288979
421,699.1013132775564
422,699.0472422316298
423,698.9909742678836
424,698.9326324048338
425,698.8723914169424
426,698.8104781146357
427,698.7471693360899
428,698.6827880343562
429,698.6176977537311
430,698.5522956763987
431,698.487004411095
432,698.4222627605892
433,698.3585157441121
434,698.2962041444531
435,698.2357538473779
436,698.1775652527032
437,698.1220030274933
438,698.0693864439373
439,698.0199805311186
440,697.9739882702661
441,697.9315440531691
442,697.8927086180857
443,697.8574657093121
444,697.8257207516936
445,697.797301819902
446,697.7719630704056
447,697.7493905929268
448,697.7292103710474
449,697.7109978186496
450,697.6942882914511
451,697.6785881003772
452,697.6633858237283
453,697.6481640093984
454,697.6324115404332
455,697.6156369237365
456,697.5973825445109
457,697.5772395653736
458,697.5548627807887
459,697.5299845372693
460,697.502426846761
461,697.4721109459457
462,697.4390636883653
463,697.4034203193858
464,697.3654234229116
465,697.3254181122402
466,697.283843788774
467,697.2412229605402
468,697.1981476875471
469,697.1552642174254
470,697.113256312248
471,697.0728276671737
472,697.0346837399813
473,696.999513336943
474,696.9679704516686
475,696.9406570107134
476,696.9181072086034
477,696.9007740101516
478,696.8890182392225
479,696.8831004918698
480,696.8831758945468
481,696.8892915200908
482,696.9013861733738
483,696.9192923013253
484,696.9427399042693
485,696.9713624343264
486,697.0047047066389
487,697.0422328156139
488,697.0833459655953
489,697.1273900030844
490,697.1736722692303
491,697.2214772135166
492,697.270082101255
493,697.3187721471089
494,697.3668544884619
495,697.4136705332659
496,697.4586063423233
497,697.5011008166625
498,697.5406515708115
499,697.5768185138878
500,697.6092253340847
501,697.6375592576438
502,697.6615695983393
503,697.6810656791102
504,697.6959146336688
505,697.7060393953424
506,697.7114169590765
507,697.7120768546733
508,697.7080997008248
509,697.6996156757381
510,697.6868027190256
511,697.6698842748879
512,697.6491263834887
513,697.6248339160126
514,697.5973457846277
515,697.567029118644
516,697.5342726716787
517,697.499479992786
518,697.4630630254073
519,697.4254367383642
520,697.3870151843738
521,697.3482091238672
522,697.3094251202766
523,697.271065794409
524,697.2335306996916
525,697.1972171234257
526,697.1625201410455
527,697.1298314799525
528,697.0995371158489
529,697.0720138707303
530,697.0476254319162
531,697.0267181149846
532,697.0096164728099
533,696.9966186756059
534,696.9879915310643
535,696.9839650674024
536,696.9847267332816
537,696.990415434716
538,697.0011157498484
539,697.016852675722
540,697.0375871975709
541,697.0632129094339
542,697.0935539113995
543,697.128364284149
544,697.1673295461964
545,697.2100705187847
546,697.256149892923
547,697.3050815468052
548,697.3563423533049
549,697.40938588826
550,697.4636571797671
551,697.5186075277555
552,697.5737085002393
553,697.6284643990875
554,697.6824226996956
555,697.7351822068692
556,697.7863989485336
557,697.8357900775053
558,697.8831361651081
559,697.9282822256707
560,697.9711376652655
561,698.011675174388
562,698.0499284578567
563,698.0859886767428
564,698.1199995510249
565,698.1521511536235
566,698.1826724658797
567,698.2118228053502
568,698.2398823618894
569,698.26714230102
570,698.2938951114154
571,698.3204259367722
572,698.3470054746689
573,698.3738847227796
574,698.4012915572849
575,698.429428939589
576,698.4584744668244
577,698.488580965545
578,698.5198778377707
579,698.5524728753468
580,698.5864542574107
581,698.6218924672963
582,698.6588419268635
583,698.6973422031566
584,698.7374186546706
585,698.7790824068412
586,698.8223296530679
587,698.867140433655
588,698.9134771474518
589,698.9612830650125
590,699.0104810917413
591,699.0609730106788
592,699.1126393688197
593,699.1653400055327
594,699.2189150104504
595,699.273185767692
596,699.3279557648478
597,699.3830109921967
598,699.438119977181
599,699.4930337572949
600,699.5474863262285
601,699.6011961777726
602,699.6538694532725
603,699.7052049356572
604,699.7549008513896
605,699.8026632100682
606,699.8482152344417
607,699.891307312452
608,699.9317268469789
609,699.9693073846756
610,700.003936469726
611,700.0355617956902
612,700.0641953944628
613,700.0899157432937
614,700.1128677391371
615,700.1332605020399
616,700.1513630063747
617,700.1674976666112
618,700.1820321991758
619,700.1953702486635
620,700.2079413251334
621,700.2201905342987
622,700.2325684345543
623,700.2455212012177
624,700.2594812016747
625,700.2748581117663
626,700.292030780205
627,700.3113400964751
628,700.3330830951169
629,700.3575084346022
630,700.3848132601416
631,700.4151413636704
632,700.4485825377075
633,700.4851730584951
634,700.524897250089
635,700.5676900155089
636,700.6134400846422
637,700.6619935982824
638,700.7131576135761
639,700.7667032160188
640,700.8223681274717
641,700.8798589495328
642,700.9388533959132
643,700.9990029379904
644,701.0599361649863
645,701.1212629395436
646,701.1825792647876
647,701.2434727284771
648,701.3035284017675
649,701.3623350734662
650,701.419491664014
651,701.4746136014822
652,701.5273389039877
653,701.5773337622043
654,701.6242975772547
655,701.667967608677
656,701.7081234848789
657,701.7445917472796
658,701.7772503720179
659,701.8060329090694
660,701.8309315575393
661,701.8519982478361
662,701.8693427647394
663,701.883127226719
664,701.8935568113865
665,701.900867315964
666,701.9053107244492
667,701.9071402178489
668,701.9065959699361
669,701.9038927672976
670,701.8992101629167
671,701.8926855753547
672,701.8844104652063
673,701.8744294845159
674,701.8627423305929
675,701.849307907627
676,701.8340502852433
677,701.8168658827128
678,701.7976313258448
679,701.7762114918366
680,701.7524673558115
681,701.7262633847392
682,701.6974743515349
683,701.6659914970486
684,701.6317279582514
685,701.5946234022662
686,701.5546479159701
687,701.5118053428961
688,701.4661363264566
689,701.4177212452067
690,701.3666830129496
691,701.3131894376113
692,701.2574546234331
693,701.1997388670625
694,701.1403466180948
695,701.0796222549902
696,701.017943628856
697,700.9557135548879
698,700.8933496469458
699,700.831273029456
700,700.7698965016957
701,700.7096127199839
702,700.6507829762771
703,700.5937271883051
704,700.5387156728951
705,700.4859630843056
706,700.4356246569764
707,700.3877947331488
708,700.3425075045795
709,700.2997399103153
710,700.2594166647294
711,700.221417353391
712,700.1855853373746
713,700.1517379093987
714,700.1196769514185
715,700.089199372948
716,700.0601067720694
717,700.0322139138177
718,700.0053557432374
719,699.9793927934436
720,699.9542150159562
721,699.9297441945831
722,699.9059351219317
723,699.8827755749733
724,699.8602849003432
725,699.838510880122
726,699.8175246147081
727,699.7974134180381
728,699.7782720554609
729,699.7601929242538
730,699.7432559061399
731,699.727518651616
732,699.7130080605266
733,699.6997136861339
734,699.6875836465896
735,699.6765233850406
736,699.6663973447936
737,699.65703336345
738,699.6482293490042
739,699.6397615881664
740,699.631393881368
741,699.622886648012
742,699.6140052201026
743,699.6045267041123
744,699.5942449759857
745,699.5829735444695
746,699.5705461816198
747,699.556815399608
748,699.5416490388279
749,699.5249253994748
750,699.506527514342
751,699.4863373476421
752,699.4642308654394
753,699.4400749613701
754,699.4137270852806
755,699.3850381353683
756,699.3538587818742
757,699.3200489260797
758,699.2834895143376
759,699.2440955243122
760,699.2018287348288
761,699.1567089398615
762,699.1088225379908
763,699.0583278110411
764,699.0054565675435
765,698.9505121031671
766,698.8938636603809
767,698.8359378185667
768,698.7772075019743
769,698.718179463071
770,698.659381105724
771,698.6013473734206
772,698.5446082151673
773,698.48967691414
774,698.4370393743915
775,698.3871443792781
776,698.3403949006462
777,698.2971406997614
778,698.2576725951209
779,698.2222187517544
780,698.1909431299557
781,698.1639459218952
782,698.1412655799568
783,698.1228819764517
784,698.1087202521855
785,698.0986549290437
786,698.0925139015549
787,698.0900820286108
788,698.0911041912357
789,698.0952878143811
790,698.1023049748036
791,698.1117943554457
792,698.123363414844
793,698.1365911328116
794,698.151031555737
795,698.1662181840123
796,698.1816691252852
797,698.196892910622
798,698.2113948983548
799,698.2246842444467
800,698.2362815045341
801,698.2457270252855
802,698.2525902914814
803,698.2564802488879
804,698.2570563685748
805,698.254039993173
806,698.2472253904141
807,698.2364898931073
808,698.2218024803992
809,698.2032301840702
810,698.180941811061
811,698.1552086297969
812,698.126401856614
813,698.094986984127
814,698.0615151407065
815,698.0266116951063
816,697.9909622550427
817,697.9552961574786
818,697.9203676411619
819,697.8869352093574
820,697.8557401403914
821,697.8274854396782
822,697.8028165782168
823,697.7823051722145
824,697.7664364504592
825,697.7556009900809
826,697.750090820843
827,697.750099680912
828,697.7557269886108
829,697.7669849191348
830,697.7838077717664
831,697.8060626016094
832,697.8335599860162
833,697.8660639001541
834,697.9032999808264
835,697.9449618677857
836,697.9907157137321
837,698.0402032666444
838,698.0930441208321
839,698.1488378058973
840,698.2071663476466
841,698.2675978138811
842,698.3296911525413
843,698.3930023282886
844,698.4570914278718
845,698.5215301716025
846,698.5859092093217
847,698.64984463561
848,698.7129832582823
849,698.7750063095046
850,698.8356315244748
851,698.8946137548819
852,698.951744420632
853,699.0068501236618
854,699.0597907363756
855,699.110457284978
856,699.1587699535904
857,699.204676511356
858,699.24815141535
859,699.2891957832776
860,699.3278383560386
861,699.3641374299877
862,699.3981834846271
863,699.4301019200753
864,699.4600551118441
865,699.488243030609
866,699.5149019661791
867,699.5403012820515
868,699.5647383956081
869,699.5885322315917
870,699.6120153176397
871,699.6355246218988
872,699.6593912417936
873,699.6839291420737
874,699.7094232983236
875,699.7361177974803
876,699.76420460647
877,699.7938137731315
878,699.825005772568
879,699.8577666154953
880,699.8920062118295
881,699.9275602864211
882,699.9641958442843
883,700.0016198267723
884,700.0394902837281
885,700.0774291876777
886,700.1150359641207
887,700.1519009082581
888,700.187617875782
889,700.2217958905693
890,700.2540695175265
891,700.2841079929597
892,700.3116231988485
893,700.3363765572756
894,700.3581847708136
895,700.3769241351213
896,700.3925330329524
897,700.4050122301802
898,700.41442272365
899,700.4208811257092
900,700.4245528742587
901,700.4256438564203
902,700.4243912422345
903,700.4210543742125
904,700.41590643934
905,700.4092274215839
906,700.4012985882617
907,700.3923985748405
908,700.3828009950266
909,700.3727733478999
910,700.3625767870099
911,700.3524661084957
912,700.3426891969468
913,700.3334852229183
914,700.3250811530282
915,700.3176865385277
916,700.3114869164717
917,700.3066363611792
918,700.3032497909912
