frame_number,force
0,699.5426029886804
1,699.5518957404046
2,699.5610951556085
3,699.5701088134318
4,699.5788461055337
5,699.5872190966177
6,699.5951433330342
7,699.6025385859879
8,699.6093295182736
9,699.6154462665161
10,699.6208249345442
11,699.6254079974531
12,699.6291446198964
13,699.631990895456
14,699.6339100147551
15,699.6348723677453
16,699.6348555828488
17,699.6338445056593
18,699.6318311234485
19,699.6288144467105
20,699.6248003624595
21,699.6198014739423
22,699.6138369382013
23,699.6069323089362
24,699.5991193892897
25,699.5904360967569
26,699.5809263383499
27,699.5706398880799
28,699.5596322525578
29,699.5479645062237
30,699.5357030763956
31,699.5229194600987
32,699.5096898593425
33,699.4960947285042
34,699.4822182351388
35,699.4681476418588
36,699.4539726207652
37,699.4397845134447
38,699.4256755494657
39,699.4117380348881
40,699.3980635192898
41,699.3847419456264
42,699.3718607838515
43,699.3595041487737
44,699.3477519051305
45,699.3366787664982
46,699.3263533978935
47,699.3168375341627
48,699.308185126952
49,699.3004415319982
50,699.2936427462527
51,699.2878147020838
52,699.2829726246733
53,699.279120459783
54,699.2762503820858
55,699.2743423970945
56,699.2733640501414
57,699.2732702536682
58,699.2740032408476
59,699.275492651117
60,699.2776557529182
61,699.2803978105946
62,699.2836126036943
63,699.287183104961
64,699.2909823174957
65,699.2948742644146
66,699.2987151186231
67,699.3023544564844
68,699.3056366159968
69,699.3084021375696
70,699.3104892648015
71,699.3117354842207
72,699.3119790853955
73,699.3110607246123
74,699.3088249765897
75,699.3051218612494
76,699.2998083369722
77,699.292749755633
78,699.2838212751057
79,699.2729092216852
80,699.2599123902884
81,699.2447432666359
82,699.2273291535352
83,699.2076131821251
84,699.1855551881862
85,699.1611324346499
86,699.1343401656925
87,699.1051919844845
88,699.0737200529172
89,699.0399751152893
90,699.0040263490607
91,698.9659610457248
92,698.9258841248494
93,698.8839174849682
94,698.8401991958975
95,698.7948825375709
96,698.7481348905523
97,698.7001364837947
98,698.6510790068812
99,698.6011640970362
100,698.550601714314
101,698.4996084199676
102,698.4484055729449
103,698.3972174590375
104,698.346269367401
105,698.295785629957
106,698.2459876403842
107,698.1970918714657
108,698.1493079131735
109,698.1028365587318
110,698.057867970191
111,698.0145799569003
112,697.9731363991378
113,697.9336858453579
114,697.8963603056844
115,697.8612742574641
116,697.8285238719167
117,697.798186464408
118,697.7703201649017
119,697.7449638007841
120,697.7221369822414
121,697.7018403799403
122,697.6840561844305
123,697.6687487355609
124,697.6558653083317
125,697.6453370396364
126,697.637079979145
127,697.6309962474344
128,697.6269752851096
129,697.6248951778014
130,697.6246240435961
131,697.6260214716683
132,697.6289400032255
133,697.6332266475235
134,697.6387244259716
135,697.6452739362585
136,697.6527149266377
137,697.6608878685325
138,697.6696355138338
139,697.678804422137
140,697.6882464429948
141,697.6978201388948
142,697.7073921357238
143,697.7168383882229
144,697.7260453475343
145,697.734911016601
146,697.7433458784775
147,697.7512736839693
148,697.7586320886686
149,697.7653731344786
150,697.7714635753132
151,697.7768850489507
152,697.7816340967096
153,697.7857220312678
154,697.7891746527561
155,697.792031815307
156,697.7943468497039
157,697.7961858508719
158,697.7976268411427
159,697.7987588224901
160,697.7996807339813
161,697.8005003335703
162,697.8013330241893
163,697.8023006415534
164,697.8035302158636
165,697.8051527142336
166,697.8073017674163
167,697.8101123832035
168,697.8137196484131
169,697.8182574214532
170,697.8238570191363
171,697.830645904795
172,697.8387463880348
173,697.8482743478378
174,697.8593379903027
175,697.8720366515681
176,697.8864596566949
177,697.9026852467841
178,697.9207795887862
179,697.9407958844433
180,697.9627735962493
181,697.9867378090777
182,698.0126987452428
183,698.0406514470017
184,698.0705756341345
185,698.102435736886
186,698.1361810975119
187,698.1717463277243
188,698.2090518054301
189,698.2480042927963
190,698.2884976579825
191,698.3304136836135
192,698.3736229462495
193,698.41798575364
194,698.4633531304233
195,698.5095678467195
196,698.5564654861294
197,698.6038755496683
198,698.6516225909803
199,698.6995273766032
200,698.7474080635304
201,698.795081385376
202,698.8423638385271
203,698.8890728607727
204,698.9350279965038
205,698.9800520436546
206,699.0239721775978
207,699.0666210471002
208,699.1078378378629
209,699.1474692994431
210,699.1853707310457
211,699.2214069216475
212,699.2554530407557
213,699.2873954771727
214,699.3171326236854
215,699.3445756053123
216,699.3696489472483
217,699.3922911757289
218,699.4124553410103
219,699.4301094477078
220,699.4452367759433
221,699.4578360785308
222,699.4679216438627
223,699.4755232190744
224,699.4806857924011
225,699.4834692374562
226,699.4839478252475
227,699.4822096118033
228,699.4783557107427
229,699.4724994616327
230,699.4647655062736
231,699.4552887854851
232,699.4442134687854
233,699.4316918292503
234,699.4178830755707
235,699.4029521519539
236,699.3870685141243
237,699.3704048877165
238,699.3531360151769
239,699.3354373989085
240,699.3174840507406
241,699.2994492597431
242,699.281503391339
243,699.2638127303632
244,699.2465383793646
245,699.229835221825
246,699.2138509588156
247,699.1987252266326
248,699.1845888013077
249,699.1715628934451
250,699.1597585344058
251,699.1492760533465
252,699.1402046446517
253,699.1326220265204
254,699.126594192626
255,699.1221752587855
256,699.1194074055876
257,699.1183209168789
258,699.1189343136426
259,699.1212545830626
260,699.1252775028053
261,699.13098806051
262,699.1383609685124
263,699.147361273611
264,699.157945059945
265,699.1700602392411
266,699.1836474180325
267,699.1986408274025
268,699.2149692975936
269,699.2325572571266
270,699.2513257340976
271,699.27119333635
272,699.2920771868994
273,699.313893790785
274,699.3365598102043
275,699.359992728285
276,699.3841113893939
277,699.4088364144867
278,699.4340905009278
279,699.4597986248688
280,699.4858881694835
281,699.5122890042284
282,699.5389335393864
283,699.5657567769244
284,699.5926963734913
285,699.6196927250948
286,699.6466890773657
287,699.6736316616507
288,699.7004698550811
289,699.7271563610768
290,699.7536474051086
291,699.779902939797
292,699.8058868541582
293,699.8315671830967
294,699.8569163135608
295,699.881911182945
296,699.906533464394
297,699.9307697331153
298,699.954611607319
299,699.978055856944
300,700.0011044737595
301,700.0237646983331
302,700.0460490018661
303,700.0679750222155
304,700.089565453168
305,700.1108478855889
306,700.131854599659
307,700.1526223083214
308,700.1731918513294
309,700.193607836045
310,700.2139182169545
311,700.2341738035826
312,700.2544276878062
313,700.2747345865424
314,700.2951501031415
315,700.3157299180439
316,700.3365289234273
317,700.3576003168662
318,700.3789946675963
319,700.4007589684119
320,700.4229356871489
321,700.4455618330965
322,700.4686680542432
323,700.4922777805755
324,700.5164064276049
325,700.5410606742904
326,700.5662378309295
327,700.5919253145083
328,700.6181002500223
329,700.6447292149086
330,700.671768139169
331,700.6991623669135
332,700.7268468781534
333,700.7547466646263
334,700.7827772508851
335,700.8108453512917
336,700.838849653811
337,700.8666817215632
338,700.8942270019522
339,700.9213659299171
340,700.9479751064788
341,700.9739285279963
342,700.999098837627
343,701.0233585695894
344,701.0465813588546
345,701.0686430931149
346,701.0894229891065
347,701.1088045802496
348,701.1266766065107
349,701.1429338006357
350,701.1574775680269
351,701.1702165612109
352,701.1810671543875
353,701.18995382822
354,701.1968094781074
355,701.2015756594119
356,701.2042027807934
357,701.2046502537393
358,701.2028866046303
359,701.198889555815
360,701.1926460826566
361,701.1841524524339
362,701.1734142478253
363,701.1604463732385
364,701.1452730377335
365,701.1279277052914
366,701.108453002576
367,701.0869005753589
368,701.0633308858291
369,701.0378129431792
370,701.0104239595778
371,700.98124892392
372,700.9503800869769
373,700.9179163534448
374,700.883962578897
375,700.8486287730067
376,700.8120292140399
377,700.774281482211
378,700.7355054205175
379,700.6958220322832
380,700.6553523267582
381,700.6142161286451
382,700.572530873408
383,700.530410415422
384,700.4879638782048
385,700.445294574323
386,700.4024990184104
387,700.3596660523617
388,700.3168760982826
389,700.2742005518414
390,700.2317013257635
391,700.1894305499695
392,700.1474304309439
393,700.1057332685142
394,700.0643616243674
395,700.0233286338613
396,699.9826384497813
397,699.9422868020209
398,699.9022616513419
399,699.8625439112662
400,699.823108211948
401,699.7839236830858
402,699.7449547373808
403,699.7061618402278
404,699.6675022553826
405,699.6289307604792
406,699.590400329915
407,699.5518627852147
408,699.5132694143742
409,699.4745715619569
410,699.4357211913948
411,699.3966714208916
412,699.3573770350802
413,699.317794976309
414,699.2778848212131
415,699.2376092482117
416,699.1969344988519
417,699.1558308316559
418,699.1142729627824
419,699.0722404836185
420,699.0297182417293
421,698.9866966697163
422,698.9431720471418
423,698.899146683002
424,698.8546290098753
425,698.8096335862836
426,698.7641810104234
427,698.7182977538496
428,698.6720159256785
429,698.6253729768375
430,698.5784113523763
431,698.5311780998754
432,698.4837244430773
433,698.4361053304353
434,698.3883789680257
435,698.3406063459753
436,698.2928507673863
437,698.245177388145
438,698.1976527750272
439,698.1503444886965
440,698.1033206975229
441,698.0566498272833
442,698.0104002509746
443,697.9646400227175
444,697.9194366596902
445,697.8748569751284
446,697.8309669629823
447,697.7878317308786
448,697.7455154732871
449,697.7040814728323
450,697.663592116288
451,697.624108913586
452,697.5856925123329
453,697.5484027050095
454,697.5122984290806
455,697.4774377603451
456,697.4438778968934
457,697.411675125891
458,697.3808847603042
459,697.3515610303357
460,697.323756915496
461,697.2975239061733
462,697.2729116866849
463,697.2499677354006
464,697.2287368423234
465,697.2092605499914
466,697.1915765284828
467,697.1757178988458
468,697.1617125212456
469,697.149582264732
470,697.1393422750812
471,697.1310002559561
472,697.1245557775561
473,697.1199996273655
474,697.1173132198381
475,697.1164680839878
476,697.1174254477796
477,697.1201359358656
478,697.1245393938318
479,697.1305648482448
480,697.1381306072011
481,697.1471445015263
482,697.1575042638108
483,697.1690980416989
484,697.1818050422906
485,697.1954963047217
486,697.210035597129
487,697.2252804322192
488,697.2410831929624
489,697.257292356699
490,697.2737538020951
491,697.2903121795133
492,697.3068123227382
493,697.3231006792311
494,697.3390267367857
495,697.3544444259609
496,697.3692134794187
497,697.3832007310178
498,697.3962813394049
499,697.4083399234158
500,697.4192715998538
501,697.4289829176649
502,697.4373926856574
503,697.444432692929
504,697.4500483211152
505,697.4541990456304
506,697.4568588209014
507,697.4580163436489
508,697.4576751886316
509,697.4558538122131
510,697.4525854202707
511,697.4479176983799
512,697.4419124036317
513,697.4346448186842
514,697.426203070592
515,697.4166873207784
516,697.4062088380421
517,697.3948889718303
518,697.382858046076
519,697.3702541938457
520,697.3572221505038
521,697.3439120196604
522,697.3304780229874
523,697.3170772418777
524,697.3038683555321
525,697.2910103776271
526,697.2786613939296
527,697.2669773065774
528,697.2561105961004
529,697.2462091171626
530,697.2374149456892
531,697.2298632927185
532,697.2236814959228
533,697.2189880959301
534,697.2158920025806
535,697.2144917559147
536,697.2148748874914
537,697.2171173889587
538,697.2212832953554
539,697.2274243894891
540,697.2355800313816
541,697.245777114474
542,697.2580301489405
543,697.2723414724139
544,697.2887015889174
545,697.3070896360385
546,697.3274739773616
547,697.3498129124557
548,697.3740554911437
549,697.4001424130275
550,697.4280069885662
551,697.4575761359914
552,697.4887713894576
553,697.521509896807
554,697.5557053888739
555,697.59126910635
556,697.6281106751265
557,697.6661389255688
558,697.7052626536997
559,697.7453913224083
560,697.78643569942
561,697.8283084270228
562,697.8709245175845
563,697.9142017696781
564,697.9580611018672
565,698.0024268035704
566,698.0472267040869
567,698.0923922625137
568,698.1378585842027
569,698.1835643737962
570,698.2294518391025
571,698.2754665617753
572,698.3215573488768
573,698.3676760751321
574,698.4137775214108
575,698.4598192122658
576,698.5057612542369
577,698.5515661764194
578,698.5971987748792
579,698.6426259624274
580,698.6878166249799
581,698.7327414856952
582,698.7773729786089
583,698.8216851338528
584,698.86565347615
585,698.9092549379828
586,698.9524677898186
587,698.9952715915081
588,699.0376471698382
589,699.0795766266775
590,699.1210433810738
591,699.1620322476172
592,699.2025295516197
593,699.2425232783688
594,699.2820032497365
595,699.3209613187825
596,699.3593915728048
597,699.3972905371561
598,699.4346573752354
599,699.4714940838568
600,699.5078056866604
601,699.5436004295639
602,699.5788899804055
603,699.6136896309187
604,699.6480184949728
605,699.6818996937089
606,699.7153605158479
607,699.7484325400783
608,699.7811517061754
609,699.8135583222983
610,699.845696997704
611,699.8776164929577
612,699.9093694832108
613,699.9410122332597
614,699.972604185103
615,700.0042074598241
616,700.0358862771204
617,700.0677062986782
618,700.0997339054796
619,700.1320354225093
620,700.1646763059179
621,700.1977203072631
622,700.231228627596
623,700.2652590721125
624,700.2998652151341
625,700.3350955857325
626,700.3709928855261
627,700.4075932508284
628,700.4449255707358
629,700.4830108709035
630,700.5218617702651
631,700.5614820158767
632,700.6018661001541
633,700.6429989646491
634,700.6848557939653
635,700.727401901528
636,700.7705927058773
637,700.814373793179
638,700.8586810601729
639,700.9034409324206
640,700.9485706550104
641,700.9939786559228
642,701.0395649847836
643,701.0852218300404
644,701.130834114925
645,701.1762801684209
646,701.2214324642651
647,701.2661584197164
648,701.3103212455875
649,701.3537808387706
650,701.3963947076744
651,701.4380189198823
652,701.4785090606985
653,701.5177211920712
654,701.5555128040611
655,701.5917437543698
656,701.6262771932692
657,701.6589804703331
658,701.6897260161911
659,701.7183921881792
660,701.7448640641747
661,701.7690341654967
662,701.7908030896809
663,701.810080038883
664,701.8267832392131
665,701.8408402578037
666,701.8521882340511
667,701.8607740460709
668,701.8665544323208
669,701.8694960839167
670,701.8695757182921
671,701.8667801404472
672,701.8611062938598
673,701.8525612996225
674,701.8411624799614
675,701.8269373604412
676,701.8099236435002
677,701.7901691451482
678,701.7677316870813
679,701.74267893768
680,701.7150881970584
681,701.6850461235715
682,701.6526484013697
683,701.6179993496563
684,701.5812114743771
685,701.5424049636491
686,701.5017071302345
687,701.4592518068838
688,701.4151787017266
689,701.369632720039
690,701.322763255668
691,701.2747234513082
692,701.2256694238212
693,701.175759450529
694,701.125153114561
695,701.0740104103902
696,701.0224908140553
697,700.9707523262844
698,700.9189505002125
699,700.8672374676086
700,700.8157609781342
701,700.7646634659245
702,700.7140811578274
703,700.664143238011
704,700.6149710826896
705,700.5666775754123
706,700.5193665091662
707,700.4731320786358
708,700.4280584647056
709,700.3842195130233
710,700.3416785084612
711,700.3004880462386
712,700.2606899968615
713,700.2223155568644
714,700.1853853737987
715,700.1499097339192
716,700.1158888031373
717,700.0833129137999
718,700.052162891395
719,700.0224104171767
720,699.9940184250006
721,699.9669415324659
722,699.9411265064591
723,699.9165127606907
724,699.8930328790163
725,699.8706131559107
726,699.849174146283
727,699.8286312206965
728,699.8088951271376
729,699.7898725645324
730,699.771466775063
731,699.7535781626287
732,699.7361049446913
733,699.7189438439837
734,699.7019908241415
735,699.6851418693432
736,699.6682938035829
737,699.6513451409585
738,699.6341969544802
739,699.616753747509
740,699.5989243094745
741,699.580622536757
742,699.561768200882
743,699.542287648859
744,699.52211442361
745,699.501189795366
746,699.4794631977971
747,699.4568925658517
748,699.4334445756341
749,699.4090947897685
750,699.3838277148412
751,699.3576367810504
752,699.3305242573632
753,699.3025011167663
754,699.2735868647698
755,699.2438093405669
756,699.2132044948515
757,699.1818161417909
758,699.1496956758513
759,699.116901738658
760,699.083499818658
761,699.0495617679313
762,699.015165225549
763,698.9803929436364
764,698.9453320186936
765,698.9100730357031
766,698.8747091367189
767,698.8393350300087
768,698.8040459601976
769,698.768936662776
770,698.7341003265458
771,698.6996275853644
772,698.665605557033
773,698.6321169432883
774,698.5992392014296
775,698.5670437962449
776,698.5355955412235
777,698.5049520397525
778,698.4751632381623
779,698.4462711011055
780,698.4183094152008
781,698.3913037207792
782,698.3652713667598
783,698.3402216813628
784,698.3161562503152
785,698.2930692931545
786,698.2709481275532
787,698.2497737119884
788,698.2295212581481
789,698.2101609054099
790,698.1916584506392
791,698.1739761278018
792,698.1570734327785
793,698.1409079879868
794,698.125436438719
795,698.1106153699002
796,698.0964022298988
797,698.0827562475835
798,698.0696393294072
799,698.0570169244808
800,698.044858847456
801,698.0331400511701
802,698.0218413419676
803,698.0109500292976
804,698.0004604982943
805,697.9903746917468
806,697.9807024874008
807,697.9714619572414
808,697.9626794965236
809,697.9543898123121
810,697.9466357645417
811,697.9394680566185
812,697.9329447770692
813,697.9271307984354
814,697.9220970432951
815,697.917919628948
816,697.9146789023988
817,697.912458377451
818,697.9113435879971
819,697.9114208772282
820,697.9127761500156
821,697.9154936212611
822,697.9196545938804
823,697.9253362969408
824,697.9326108092985
825,697.9415440878
826,697.9521951124458
827,697.9646151550808
828,697.9788471737743
829,697.9949253312013
830,698.0128746309553
831,698.0327106611392
832,698.0544394316456
833,698.0780572918461
834,698.1035509188719
835,698.1308973718014
836,698.1600642121125
837,698.1910096944331
838,698.2236830334926
839,698.2580247532273
840,698.29396712245
841,698.331434678698
842,698.3703448378711
843,698.4106085818797
844,698.4521312107236
845,698.4948131413729
846,698.538550734653
847,698.5832371321139
848,698.6287630864565
849,698.6750177716822
850,698.7218895631222
851,698.7692667816999
852,698.817038399417
853,698.8650947039583
854,698.9133279207921
855,698.9616327919955
856,699.0099071119116
857,699.0580522201957
858,699.1059734528882
859,699.1535805520946
860,699.2007880345568
861,699.2475155180496
862,699.2936880013646
863,699.3392360895325
864,699.3840961534182
865,699.428210414139
866,699.4715269479598
867,699.5139996139499
868,699.5555879113635
869,699.5962567748863
870,699.6359763149028
871,699.674721509012
872,699.7124718512182
873,699.749210966583
874,699.7849262014796
875,699.8196082024427
876,699.8532504988149
877,699.885849104852
878,699.9174021557104
879,699.9479095897357
880,699.9773728870172
881,700.0057948705492
882,700.0331795710861
883,700.0595321506551
884,700.0848588742091
885,700.1091671153197
886,700.132465380589
887,700.1547633386442
888,700.176071842735
889,700.1964029397931
890,700.2157698619436
891,700.2341869987147
892,700.2516698497334
893,700.2682349576854
894,700.2838998191633
895,700.2986827681723
896,700.3126028255651
897,700.3256795082473
898,700.3379325944585
899,700.3493818455914
900,700.3600466902553
901,700.3699458814665
902,700.3790971415681
903,700.3875168106758
904,700.3952195129373
905,700.4022178516145
906,700.408522140407
907,700.4141401756483
908,700.4190770519622
909,700.4233350215537
910,700.4269133940132
911,700.429808470103
912,700.4320135009225
913,700.4335186644175
914,700.4343110550295
915,700.4343746882056
916,700.4336905267693
917,700.4322365387728
