frame_number,force
0,699.5426029907059
1,699.5518957423666
2,699.5610951575022
3,699.570108815253
4,699.5788461072787
5,699.587219098283
6,699.5951433346165
7,699.6025385874842
8,699.6093295196814
9,699.6154462678326
10,699.6208249357669
11,699.6254079985792
12,699.6291446209231
13,699.6319908963801
14,699.6339100155736
15,699.634872368456
16,699.6348555834497
17,699.6338445061496
18,699.6318311238277
19,699.6288144469794
20,699.6248003626192
21,699.6198014739949
22,699.6138369381496
23,699.6069323087834
24,699.5991193890393
25,699.5904360964121
26,699.5809263379144
27,699.5706398875581
28,699.5596322519546
29,699.5479645055449
30,699.5357030756473
31,699.5229194592869
32,699.509689858473
33,699.4960947275833
34,699.4822182341729
35,699.4681476408543
36,699.4539726197293
37,699.4397845123846
38,699.4256755483884
39,699.4117380338007
40,699.3980635181994
41,699.38474194454
42,699.3718607827765
43,699.3595041477178
44,699.347751904102
45,699.3366787655054
46,699.3263533969449
47,699.3168375332659
48,699.3081851261142
49,699.3004415312258
50,699.2936427455518
51,699.2878147014596
52,699.28297262413
53,699.2791204593241
54,699.2762503817141
55,699.2743423968126
56,699.2733640499514
57,699.2732702535722
58,699.2740032408465
59,699.2754926512109
60,699.2776557531063
61,699.2803978108752
62,699.2836126040653
63,699.2871831054194
64,699.290982318038
65,699.294874265036
66,699.2987151193181
67,699.3023544572466
68,699.305636616819
69,699.3084021384439
70,699.3104892657193
71,699.3117354851732
72,699.3119790863742
73,699.3110607256089
74,699.3088249775961
75,699.3051218622579
76,699.299808337975
77,699.2927497566227
78,699.2838212760746
79,699.2729092226259
80,699.2599123911936
81,699.2447432674983
82,699.2273291543481
83,699.2076131828824
84,699.1855551888824
85,699.1611324352804
86,699.1343401662531
87,699.1051919849714
88,699.0737200533276
89,699.0399751156212
90,699.0040263493129
91,698.9659610458966
92,698.9258841249414
93,698.883917484982
94,698.8401991958358
95,698.7948825374368
96,698.7481348903497
97,698.7001364835278
98,698.6510790065547
99,698.601164096655
100,698.5506017138827
101,698.4996084194903
102,698.4484055724258
103,698.3972174584804
104,698.3462693668095
105,698.2957856293342
106,698.2459876397331
107,698.197091870789
108,698.1493079124735
109,698.1028365580102
110,698.0578679694486
111,698.0145799561377
112,697.9731363983547
113,697.9336858445537
114,697.8963603048588
115,697.8612742566171
116,697.8285238710487
117,697.7981864635198
118,697.7703201639945
119,697.7449637998596
120,697.7221369813016
121,697.7018403789876
122,697.6840561834681
123,697.6687487345926
124,697.6558653073613
125,697.6453370386679
126,697.6370799781828
127,697.6309962464825
128,697.6269752841717
129,697.6248951768813
130,697.6246240426966
131,697.6260214707913
132,697.6289400023721
133,697.6332266466944
134,697.638724425167
135,697.645273935478
136,697.6527149258807
137,697.6608878677973
138,697.669635513118
139,697.6788044214376
140,697.6882464423081
141,697.6978201382166
142,697.7073921350498
143,697.716838387549
144,697.7260453468572
145,697.7349110159178
146,697.7433458777859
147,697.7512736832682
148,697.758632087957
149,697.7653731337559
150,697.7714635745785
151,697.7768850482033
152,697.7816340959487
153,697.7857220304928
154,697.7891746519666
155,697.7920318145025
156,697.7943468488835
157,697.7961858500349
158,697.7976268402884
159,697.7987588216181
160,697.7996807330912
161,697.8005003326618
162,697.801333023262
163,697.8023006406066
164,697.8035302148955
165,697.8051527132423
166,697.8073017663993
167,697.8101123821585
168,697.8137196473383
169,697.818257420347
170,697.8238570179979
171,697.830645903624
172,697.8387463868308
173,697.8482743466003
174,697.859337989031
175,697.8720366502619
176,697.8864596553545
177,697.9026852454108
178,697.9207795873818
179,697.9407958830104
180,697.962773594791
181,697.9867378075977
182,698.0126987437458
183,698.0406514454927
184,698.0705756326192
185,698.1024357353704
186,698.1361810960017
187,698.1717463262249
188,698.2090518039464
189,698.2480042913321
190,698.2884976565409
191,698.3304136821968
192,698.3736229448589
193,698.4179857522762
194,698.4633531290868
195,698.5095678454107
196,698.5564654848489
197,698.6038755484168
198,698.6516225897587
199,698.6995273754128
200,698.7474080623723
201,698.7950813842514
202,698.8423638374376
203,698.8890728597197
204,698.9350279954889
205,698.9800520426794
206,699.0239721766638
207,699.0666210462089
208,699.107837837015
209,699.1474692986392
210,699.1853707302864
211,699.2214069209333
212,699.2554530400873
213,699.2873954765512
214,699.3171326231121
215,699.3445756047889
216,699.3696489467762
217,699.3922911753097
218,699.4124553406454
219,699.4301094473984
220,699.4452367756904
221,699.4578360783341
222,699.4679216437211
223,699.4755232189862
224,699.4806857923646
225,699.4834692374695
226,699.4839478253085
227,699.48220961191
228,699.4783557108927
229,699.4724994618238
230,699.4647655065036
231,699.4552887857524
232,699.4442134690889
233,699.4316918295896
234,699.4178830759452
235,699.4029521523627
236,699.3870685145664
237,699.3704048881904
238,699.3531360156803
239,699.3354373994395
240,699.3174840512964
241,699.2994492603207
242,699.2815033919346
243,699.2638127309732
244,699.2465383799856
245,699.2298352224537
246,699.2138509594488
247,699.1987252272672
248,699.1845888019403
249,699.1715628940724
250,699.1597585350246
251,699.1492760539539
252,699.1402046452454
253,699.1326220270987
254,699.1265941931881
255,699.1221752593306
256,699.1194074061149
257,699.118320917388
258,699.1189343141332
259,699.1212545835341
260,699.1252775032572
261,699.1309880609422
262,699.138360968925
263,699.1473612740047
264,699.157945060321
265,699.1700602396016
266,699.18364741838
267,699.1986408277401
268,699.2149692979244
269,699.2325572574542
270,699.2513257344259
271,699.2711933366832
272,699.2920771872414
273,699.3138937911391
274,699.3365598105731
275,699.3599927286705
276,699.3841113897978
277,699.4088364149104
278,699.4340905013722
279,699.4597986253342
280,699.4858881699697
281,699.512289004735
282,699.5389335399128
283,699.5657567774698
284,699.5926963740542
285,699.6196927256731
286,699.6466890779568
287,699.6736316622518
288,699.7004698556891
289,699.7271563616887
290,699.7536474057214
291,699.7799029404079
292,699.805886854764
293,699.8315671836946
294,699.8569163141481
295,699.8819111835197
296,699.9065334649547
297,699.9307697336611
298,699.9546116078493
299,699.978055857459
300,700.0011044742594
301,700.0237646988181
302,700.0460490023362
303,700.0679750226705
304,700.0895654536076
305,700.1108478860125
306,700.1318546000654
307,700.1526223087084
308,700.1731918516947
309,700.193607836386
310,700.2139182172693
311,700.2341738038699
312,700.2544276880654
313,700.2747345867734
314,700.2951501033449
315,700.3157299182208
316,700.3365289235794
317,700.3576003169961
318,700.3789946677073
319,700.4007589685077
320,700.422935687234
321,700.4455618331755
322,700.46866805432
323,700.4922777806535
324,700.5164064276867
325,700.5410606743775
326,700.5662378310218
327,700.5919253146045
328,700.6181002501199
329,700.6447292150043
330,700.6717681392587
331,700.6991623669927
332,700.7268468782174
333,700.7547466646703
334,700.7827772509047
335,700.8108453512832
336,700.8388496537714
337,700.8666817214902
338,700.8942270018447
339,700.9213659297744
340,700.9479751063011
341,700.9739285277846
342,700.9990988373826
343,701.0233585693143
344,701.0465813585511
345,701.0686430927858
346,701.0894229887552
347,701.10880457988
348,701.1266766061268
349,701.1429338002415
350,701.1574775676265
351,701.1702165608077
352,701.1810671539847
353,701.1899538278204
354,701.1968094777137
355,701.2015756590264
356,701.2042027804177
357,701.2046502533749
358,701.2028866042785
359,701.198889555477
360,701.1926460823333
361,701.1841524521265
362,701.173414247535
363,701.1604463729664
364,701.1452730374807
365,701.127927705059
366,701.108453002365
367,701.0869005751705
368,701.0633308856653
369,701.0378129430424
370,701.0104239594708
371,700.9812489238462
372,700.9503800869397
373,700.9179163534473
374,700.8839625789421
375,700.8486287730972
376,700.8120292141781
377,700.7742814823991
378,700.7355054207571
379,700.6958220325756
380,700.6553523271042
381,700.6142161290445
382,700.5725308738596
383,700.5304104159239
384,700.4879638787545
385,700.4452945749172
386,700.4024990190451
387,700.3596660530322
388,700.3168760989837
389,700.2742005525678
390,700.2317013265102
391,700.1894305507323
392,700.1474304317194
393,700.1057332693002
394,700.0643616251622
395,700.0233286346629
396,699.9826384505878
397,699.9422868028303
398,699.9022616521523
399,699.8625439120768
400,699.8231082127581
401,699.7839236838953
402,699.7449547381896
403,699.7061618410361
404,699.6675022561906
405,699.6289307612872
406,699.5904003307234
407,699.5518627860238
408,699.5132694151846
409,699.4745715627689
410,699.4357211922086
411,699.396671421707
412,699.3573770358968
413,699.3177949771259
414,699.2778848220293
415,699.2376092490256
416,699.1969344996619
417,699.1558308324607
418,699.1142729635809
419,699.07224048441
420,699.0297182425129
421,698.9866966704916
422,698.9431720479088
423,698.8991466837606
424,698.8546290106261
425,698.8096335870273
426,698.7641810111613
427,698.7182977545832
428,698.6720159264092
429,698.625372977567
430,698.5784113531066
431,698.5311781006086
432,698.4837244438153
433,698.4361053311792
434,698.3883789687757
435,698.3406063467311
436,698.292850768147
437,698.2451773889089
438,698.1976527757923
439,698.15034448946
440,698.103320698281
441,698.0566498280308
442,698.0104002517052
443,697.9646400234242
444,697.919436660366
445,697.8748569757664
446,697.8309669635756
447,697.787831731421
448,697.7455154737729
449,697.7040814732567
450,697.663592116647
451,697.6241089138765
452,697.5856925125518
453,697.5484027051542
454,697.5122984291494
455,697.4774377603366
456,697.4438778968067
457,697.4116751257262
458,697.3808847600621
459,697.3515610300178
460,697.3237569151042
461,697.2975239057101
462,697.2729116861539
463,697.2499677348063
464,697.2287368416715
465,697.2092605492884
466,697.1915765277358
467,697.1757178980629
468,697.1617125204348
469,697.1495822639016
470,697.1393422742397
471,697.1310002551116
472,697.1245557767163
473,697.1199996265376
474,697.117313219029
475,697.1164680832037
476,697.1174254470259
477,697.1201359351468
478,697.1245393931516
479,697.1305648476063
480,697.1381306066068
481,697.1471445009788
482,697.1575042633125
483,697.1690980412519
484,697.1818050418964
485,697.1954963043808
486,697.2100355968411
487,697.2252804319826
488,697.2410831927742
489,697.2572923565558
490,697.273753801993
491,697.2903121794488
492,697.306812322708
493,697.3231006792314
494,697.3390267368136
495,697.3544444260136
496,697.3692134794939
497,697.3832007311132
498,697.3962813395191
499,697.4083399235474
500,697.4192716000015
501,697.4289829178277
502,697.4373926858348
503,697.4444326931205
504,697.4500483213202
505,697.4541990458486
506,697.456858821133
507,697.4580163438944
508,697.4576751888914
509,697.4558538124866
510,697.4525854205565
511,697.4479176986758
512,697.4419124039346
513,697.4346448189898
514,697.4262030708957
515,697.4166873210752
516,697.4062088383267
517,697.3948889720971
518,697.3828580463191
519,697.3702541940594
520,697.3572221506819
521,697.3439120197958
522,697.3304780230729
523,697.3170772419063
524,697.3038683554975
525,697.2910103775234
526,697.2786613937519
527,697.266977306321
528,697.2561105957608
529,697.2462091167355
530,697.2374149451707
531,697.2298632921053
532,697.2236814952123
533,697.2189880951196
534,697.2158920016682
535,697.2144917548986
536,697.2148748863713
537,697.2171173877348
538,697.2212832940289
539,697.2274243880623
540,697.2355800298577
541,697.2457771128571
542,697.2580301472356
543,697.2723414706265
544,697.2887015870546
545,697.3070896341085
546,697.3274739753739
547,697.3498129104207
548,697.3740554890727
549,697.4001424109324
550,697.4280069864592
551,697.4575761338855
552,697.4887713873658
553,697.5215098947419
554,697.5557053868479
555,697.5912691043745
556,697.6281106732127
557,697.6661389237269
558,697.7052626519392
559,697.7453913207379
560,697.7864356978477
561,697.8283084255551
562,697.8709245162266
563,697.914201768434
564,697.9580611007398
565,698.0024268025613
566,698.0472267031969
567,698.0923922617426
568,698.1378585835504
569,698.1835643732627
570,698.2294518386876
571,698.2754665614784
572,698.3215573486965
573,698.367676075066
574,698.413777521456
575,698.4598192124186
576,698.5057612544927
577,698.5515661767735
578,698.5971987753264
579,698.6426259629625
580,698.6878166255974
581,698.7327414863896
582,698.7773729793745
583,698.821685134683
584,698.8656534770375
585,698.9092549389206
586,698.9524677907998
587,698.9952715925261
588,699.0376471708868
589,699.0795766277502
590,699.1210433821641
591,699.1620322487187
592,699.2025295527263
593,699.2425232794748
594,699.2820032508362
595,699.3209613198708
596,699.3593915738767
597,699.3972905382063
598,699.4346573762589
599,699.4714940848489
600,699.5078056876168
601,699.5436004304811
602,699.5788899812811
603,699.6136896317513
604,699.6480184957621
605,699.6818996944559
606,699.715360516555
607,699.7484325407494
608,699.781151706815
609,699.8135583229111
610,699.8456969982955
611,699.8776164935335
612,699.9093694837763
613,699.9410122338204
614,699.972604185664
615,700.0042074603904
616,700.0358862776969
617,700.067706299269
618,700.0997339060881
619,700.132035423138
620,700.1646763065686
621,700.1977203079371
622,700.2312286282936
623,700.2652590728329
624,700.2998652158755
625,700.3350955864923
626,700.3709928863022
627,700.4075932516188
628,700.4449255715389
629,700.4830108717186
630,700.5218617710923
631,700.5614820167164
632,700.6018661010075
633,700.6429989655181
634,700.6848557948523
635,700.7274019024355
636,700.770592706808
637,700.8143737941348
638,700.8586810611553
639,700.9034409334307
640,700.9485706560487
641,700.993978656989
642,701.039564985877
643,701.0852218311588
644,701.1308341160658
645,701.1762801695802
646,701.2214324654389
647,701.2661584209
648,701.3103212467759
649,701.3537808399583
650,701.396394708856
651,701.4380189210525
652,701.4785090618522
653,701.5177211932038
654,701.5555128051681
655,701.591743755447
656,701.6262771943126
657,701.6589804713385
658,701.6897260171548
659,701.7183921890976
660,701.7448640650441
661,701.7690341663133
662,701.7908030904408
663,701.8100800395814
664,701.8267832398446
665,701.8408402583627
666,701.8521882345319
667,701.8607740464684
668,701.8665544326302
669,701.8694960841347
670,701.8695757184166
671,701.8667801404777
672,701.8611062937968
673,701.8525612994672
674,701.841162479716
675,701.8269373601083
676,701.8099236430837
677,701.7901691446534
678,701.7677316865141
679,701.7426789370467
680,701.7150881963654
681,701.6850461228255
682,701.6526484005772
683,701.6179993488241
684,701.5812114735122
685,701.5424049627584
686,701.5017071293248
687,701.4592518059616
688,701.4151787007978
689,701.3696327191086
690,701.32276325474
691,701.2747234503859
692,701.2256694229069
693,701.1757594496246
694,701.1251531136683
695,701.0740104095106
696,701.0224908131906
697,700.9707523254361
698,700.918950499382
699,700.8672374667964
700,700.8157609773402
701,700.7646634651481
702,700.7140811570675
703,700.6641432372661
704,700.614971081958
705,700.5666775746921
706,700.5193665084557
707,700.4731320779331
708,700.4280584640086
709,700.3842195123297
710,700.3416785077688
711,700.3004880455459
712,700.2606899961679
713,700.2223155561704
714,700.1853853731058
715,700.1499097332292
716,700.1158888024524
717,700.083312913123
718,700.0521628907287
719,700.022410416523
720,699.9940184243612
721,699.9669415318422
722,699.9411265058524
723,699.9165127601018
724,699.893032878446
725,699.8706131553595
726,699.8491741457511
727,699.8286312201841
728,699.8088951266446
729,699.7898725640592
730,699.7714667746104
731,699.753578162198
732,699.7361049442839
733,699.7189438436012
734,699.7019908237851
735,699.6851418690133
736,699.6682938032797
737,699.6513451406818
738,699.6341969542293
739,699.6167537472833
740,699.5989243092732
741,699.5806225365797
742,699.5617682007279
743,699.5422876487271
744,699.5221144234997
745,699.5011897952774
746,699.4794631977305
747,699.4568925658078
748,699.4334445756136
749,699.409094789772
750,699.3838277148691
751,699.3576367811025
752,699.3305242574396
753,699.3025011168667
754,699.2735868648938
755,699.2438093407142
756,699.2132044950209
757,699.1818161419815
758,699.1496956760622
759,699.1169017388887
760,699.0834998189079
761,699.0495617681995
762,699.0151652258347
763,698.9803929439385
764,698.9453320190108
765,698.9100730360337
766,698.8747091370608
767,698.8393350303596
768,698.804045960556
769,698.7689366631408
770,698.7341003269166
771,698.6996275857415
772,698.6656055574169
773,698.6321169436801
774,698.5992392018303
775,698.5670437966554
776,698.535595541644
777,698.504952040183
778,698.4751632386013
779,698.4462711015511
780,698.4183094156506
781,698.3913037212301
782,698.3652713672088
783,698.3402216818072
784,698.3161562507521
785,698.2930692935812
786,698.2709481279671
787,698.2497737123875
788,698.2295212585306
789,698.2101609057742
790,698.1916584509843
791,698.173976128127
792,698.1570734330841
793,698.1409079882737
794,698.1254364389893
795,698.1106153701563
796,698.0964022301432
797,698.082756247818
798,698.0696393296333
799,698.0570169246996
800,698.0448588476685
801,698.0331400513774
802,698.021841342171
803,698.0109500294988
804,698.0004604984948
805,697.9903746919485
806,697.9807024876055
807,697.9714619574512
808,697.9626794967405
809,697.9543898125385
810,697.9466357647798
811,697.939468056871
812,697.9329447773396
813,697.9271307987271
814,697.9220970436114
815,697.9179196292911
816,697.9146789027698
817,697.9124583778503
818,697.9113435884251
819,697.9114208776853
820,697.9127761505017
821,697.9154936217764
822,697.9196545944243
823,697.9253362975124
824,697.9326108098965
825,697.9415440884221
826,697.9521951130886
827,697.9646151557396
828,697.9788471744438
829,697.9949253318758
830,698.0128746316287
831,698.0327106618053
832,698.054439432298
833,698.0780572924787
834,698.1035509194791
835,698.1308973723782
836,698.160064212654
837,698.1910096949349
838,698.2236830339509
839,698.2580247536384
840,698.29396712281
841,698.3314346790031
842,698.3703448381176
843,698.4106085820647
844,698.452131210845
845,698.4948131414288
846,698.5385507346415
847,698.5832371320331
848,698.6287630863047
849,698.6750177714586
850,698.7218895628262
851,698.7692667813311
852,698.8170383989753
853,698.8650947034437
854,698.9133279202047
855,698.9616327913357
856,699.00990711118
857,699.0580522193936
858,699.1059734520178
859,699.1535805511586
860,699.2007880335588
861,699.2475155169938
862,699.2936880002565
863,699.3392360883784
864,699.3840961522246
865,699.4282104129127
866,699.4715269467071
867,699.5139996126768
868,699.555587910076
869,699.5962567735907
870,699.6359763136053
871,699.674721507719
872,699.7124718499362
873,699.7492109653182
874,699.7849262002381
875,699.8196082012303
876,699.853250497637
877,699.8858491037143
878,699.9174021546194
879,699.9479095886982
880,699.9773728860404
881,700.0057948696402
882,700.033179570252
883,700.0595321499017
884,700.0848588735414
885,700.1091671147412
886,700.1324653801025
887,700.1547633382518
888,700.1760718424381
889,700.1964029395925
890,700.2157698618396
891,700.2341869987064
892,700.2516698498185
893,700.2682349578605
894,700.2838998194235
895,700.2986827685118
896,700.3126028259771
897,700.3256795087244
898,700.3379325949933
899,700.3493818461769
900,700.3600466908853
901,700.3699458821351
902,700.3790971422703
903,700.3875168114073
904,700.3952195136941
905,700.4022178523933
906,700.4085221412046
907,700.414140176462
908,700.4190770527896
909,700.423335022393
910,700.4269133948621
911,700.429808470959
912,700.4320135017829
913,700.4335186652797
914,700.434311055891
915,700.434374689064
916,700.4336905276224
917,700.4322365396185
