frame_number,force
0,699.5426029851661
1,699.5506859241751
2,699.5586849928046
3,699.5665171354107
4,699.5741009100182
5,699.5813572566277
6,699.5882102216846
7,699.5945876272078
8,699.6004216750264
9,699.6056494790495
10,699.6102135214757
11,699.6140620320294
12,699.6171492925703
13,699.6194358721197
14,699.6208887980616
15,699.6214816675291
16,699.6211947008314
17,699.6200147388593
18,699.6179351893123
19,699.6149559306688
20,699.6110831856781
21,699.6063293761856
22,699.6007129685629
23,699.594258315885
24,699.5869955007846
25,699.578960181028
26,699.5701934366505
27,699.5607416126641
28,699.5506561463804
29,699.5399933649882
30,699.5288142380163
31,699.5171840707887
32,699.5051721287995
33,699.4928511885935
34,699.4802970169401
35,699.4675877851902
36,699.4548034288196
37,699.4420249634071
38,699.4293337682419
39,699.4168108476148
40,699.4045360774207
41,699.3925874413276
42,699.3810402580184
43,699.3699664006301
44,699.3594335114931
45,699.3495042181654
46,699.3402353593178
47,699.3316772307692
48,699.323872862488
49,699.316857336457
50,699.3106571534504
51,699.3052896548721
52,699.3007625048277
53,699.2970732383715
54,699.2942088842215
55,699.2921456724326
56,699.290848837772
57,699.2902725276922
58,699.2903598211079
59,699.291042862138
60,699.2922431126581
61,699.2938717287633
62,699.2958300672053
63,699.2980103262134
64,699.3002963203791
65,699.30256438346
66,699.304684388321
67,699.3065208700807
68,699.3079342359517
69,699.3087820431921
70,699.308920326007
71,699.3082049534698
72,699.3064930024944
73,699.3036441313203
74,699.2995219400088
75,699.293995306515
76,699.2869396904675
77,699.2782383999385
78,699.2677838168403
79,699.2554785740406
80,699.2412366736501
81,699.2249845330725
82,699.2066619438043
83,699.186222927038
84,699.1636364696091
85,699.1388871247448
86,699.1119754655889
87,699.0829183849544
88,699.0517492398882
89,699.0185178426776
90,698.9832903009419
91,698.9461487095085
92,698.9071906968817
93,698.8665288297137
94,698.8242898795116
95,698.7806139563182
96,698.7356535142515
97,698.6895722341934
98,698.642543790339
99,698.5947505098371
100,698.5463819373183
101,698.4976333174435
102,698.4487040086001
103,698.3997958405605
104,698.3511114290991
105,698.3028524612043
106,698.2552179654873
107,698.2084025840296
108,698.1625948647988
109,698.117975597633
110,698.0747162202026
111,698.0329773217996
112,697.9929072718251
113,697.9546409967309
114,697.9182989243933
115,697.8839861093354
116,697.85179154667
117,697.8217876772984
118,697.7940300819998
119,697.7685573584301
120,697.7453911733153
121,697.7245364816741
122,697.705981904521
123,697.6897002554844
124,697.6756492051618
125,697.6637720703438
126,697.6539987141676
127,697.6462465430454
128,697.6404215866322
129,697.6364196479248
130,697.6341275118541
131,697.6334242024362
132,697.634182280366
133,697.6362691742088
134,697.639548538511
135,697.6438816312391
136,697.6491287014917
137,697.6551503768228
138,697.6618090380737
139,697.6689701687126
140,697.6765036655602
141,697.6842850983152
142,697.6921969061788
143,697.7001295205173
144,697.7079824022361
145,697.7156649815253
146,697.7230974871419
147,697.7302116535659
148,697.7369512973883
149,697.7432727584218
150,697.7491452048131
151,697.7545508033793
152,697.7594847562444
153,697.7639552038721
154,697.7679829945437
155,697.771601322085
156,697.7748552365358
157,697.7778010350495
158,697.7805055421677
159,697.7830452905416
160,697.785505615705
161,697.7879796809133
162,697.7905674488107
163,697.7933746147182
164,697.7965115121959
165,697.8000919972856
166,697.8042323152723
167,697.8090499528853
168,697.8146624785162
169,697.8211863731236
170,697.8287358558547
171,697.8374217111414
172,697.8473501266636
173,697.8586215526652
174,697.8713295927419
175,697.8855599355941
176,697.9013893373824
177,697.9188846654787
178,697.9381020161038
179,697.959085919875
180,697.9818686503755
181,698.0064696513984
182,698.0328950977214
183,698.0611376011643
184,698.0911760684685
185,698.1229757115235
186,698.1564882047184
187,698.1916519793104
188,698.2283926414704
189,698.2666234994718
190,698.3062461856467
191,698.3471513592169
192,698.3892194769785
193,698.4323216207569
194,698.4763203735878
195,698.5210707395396
196,698.5664211036819
197,698.6122142286482
198,698.6582882832288
199,698.7044778971103
200,698.7506152346031
201,698.7965310794023
202,698.8420559224619
203,698.8870210459231
204,698.9312595973187
205,698.9746076491251
206,699.016905238779
207,699.0579973841924
208,699.0977350701563
209,699.1359762012687
210,699.1725865168071
211,699.2074404629852
212,699.2404220187597
213,699.2714254722611
214,699.3003561454306
215,699.3271310642738
216,699.35167957102
217,699.3739438721985
218,699.3938795134889
219,699.4114557691066
220,699.4266559321271
221,699.4394774936686
222,699.4499322025104
223,699.4580460007579
224,699.4638588347468
225,699.4674243435263
226,699.4688094298383
227,699.4680937202379
228,699.4653689222574
229,699.4607380878089
230,699.4543147931296
231,699.4462222459955
232,699.4365923308399
233,699.425564602386
234,699.4132852382362
235,699.3999059598002
236,699.3855829290592
237,699.3704756271119
238,699.3547457203294
239,699.3385559212627
240,699.3220688533376
241,699.3054459299366
242,699.2888462592041
243,699.2724255856514
244,699.2563352785342
245,699.2407213756397
246,699.2257236901568
247,699.2114749874761
248,699.1981002373975
249,699.1857159452072
250,699.1744295630695
251,699.1643389819094
252,699.1555321039176
253,699.148086496727
254,699.1420691311727
255,699.1375362044884
256,699.1345330499287
257,699.1330941328844
258,699.1332431331954
259,699.1349931135007
260,699.1383467735822
261,699.14329679056
262,699.1498262447554
263,699.1579091307968
264,699.1675109520858
265,699.1785893936143
266,699.1910950643303
267,699.2049722969384
268,699.2201599903957
269,699.2365924781565
270,699.2542004035903
271,699.272911583191
272,699.29265183791
273,699.3133457727677
274,699.3349174854276
275,699.3572911872222
276,699.3803917261918
277,699.4041450102139
278,699.4284783371087
279,699.4533206455677
280,699.4786027049709
281,699.5042572636745
282,699.5302191746547
283,699.5564255148205
284,699.5828157101632
285,699.6093316738895
286,699.6359179602018
287,699.6625219334804
288,699.6890939509907
289,699.7155875559253
290,699.7419596763306
291,699.7681708249177
292,699.7941852954007
293,699.8199713520985
294,699.8455014098474
295,699.8707522006539
296,699.8957049228285
297,699.9203453679576
298,699.9446640207246
299,699.9686561262845
300,699.9923217202844
301,700.0156656182108
302,700.0386973627983
303,700.061431129349
304,700.0838855886444
305,700.106083726815
306,700.1280526220422
307,700.1498231787301
308,700.1714298192223
309,700.1929101305544
310,700.21430446039
311,700.235655454461
312,700.2570075289032
313,700.2784062748805
314,700.2998977988068
315,700.3215280072747
316,700.3433418491439
317,700.365382527462
318,700.3876906927135
319,700.4103036284171
320,700.4332544408006
321,700.4565712653624
322,700.4802765035411
323,700.5043861021185
324,700.5289088870912
325,700.5538459636883
326,700.5791901952872
327,700.604925775466
328,700.6310279081913
329,700.6574626099791
330,700.6841866441338
331,700.7111475916057
332,700.7382840573953
333,700.7655260073118
334,700.7927952277876
335,700.8200059009152
336,700.8470652870293
337,700.8738745071466
338,700.9003294166235
339,700.9263215587052
340,700.9517391822934
341,700.9764683035813
342,701.000393788035
343,701.023400428452
344,701.0453739964385
345,701.0662022480343
346,701.0857758684082
347,701.1039893444786
348,701.1207417574896
349,701.1359374901906
350,701.1494868457971
351,701.1613065788887
352,701.1713203420838
353,701.1794590561125
354,701.1856612134295
355,701.1898731257384
356,701.1920491239716
357,701.1921517168646
358,701.1901517129045
359,701.1860283105981
360,701.1797691624557
361,701.1713704172738
362,701.1608367428291
363,701.148181327564
364,701.1334258562711
365,701.1166004524422
366,701.0977435795136
367,701.0769018941257
368,701.0541300454124
369,701.0294904145277
370,701.0030527884426
371,700.9748939623161
372,700.9450972657789
373,700.913752010017
374,700.8809528545909
375,700.8467990956626
376,700.8113938802476
377,700.7748433532103
378,700.7372557445638
379,700.6987404051332
380,700.6594068003504
381,700.6193634755808
382,700.5787170111871
383,700.537570989706
384,700.4960249992487
385,700.4541736958879
386,700.4121059444202
387,700.3699040533459
388,700.3276431170659
389,700.2853904758973
390,700.2432053021224
391,700.2011383176392
392,700.1592316455763
393,700.1175187946429
394,700.0760247718323
395,700.0347663168105
396,699.9937522489356
397,699.9529839140325
398,699.912455713317
399,699.8721556935042
400,699.8320661769231
401,699.7921644129927
402,699.7524232359343
403,699.712811716921
404,699.6732958020767
405,699.6338389310238
406,699.5944026335715
407,699.5549471041903
408,699.5154317550118
409,699.4758157482804
410,699.4360585089173
411,699.3961202177891
412,699.3559622868758
413,699.315547818909
414,699.2748420554814
415,699.2338128176226
416,699.1924309406527
417,699.1506707017068
418,699.1085102348445
419,699.0659319253032
420,699.0229227715076
421,698.9794747019672
422,698.9355848347006
423,698.8912556687352
424,698.846495200186
425,698.8013169598038
426,698.7557399742439
427,698.7097886577044
428,698.6634926422205
429,698.6168865540978
430,698.5700097428003
431,698.5229059686592
432,698.4756230566888
433,698.4282125242929
434,698.3807291904837
435,698.3332307740421
436,698.2857774879426
437,698.2384316369324
438,698.1912572244057
439,698.1443195740875
440,698.0976849715445
441,698.0514203298724
442,698.0055928832717
443,697.9602699120494
444,697.9155185025807
445,697.8714053450622
446,697.8279965699453
447,697.7853576207903
448,697.7435531574787
449,697.7026469805569
450,697.662701966369
451,697.6237800040918
452,697.585941929139
453,697.5492474511763
454,697.5137550774439
455,697.4795220321708
456,697.446604170477
457,697.4150558810194
458,697.3849299675269
459,697.3562774974687
460,697.3291476070203
461,697.3035872538385
462,697.2796409116436
463,697.2573502034862
464,697.2367534744062
465,697.2178853085672
466,697.200775999877
467,697.1854509879068
468,697.1719302724764
469,697.1602278207197
470,697.1503509800401
471,697.1422999093473
472,697.1360670400519
473,697.1316365786017
474,697.1289840640779
475,697.128075996035
476,697.1288695476512
477,697.1313123773089
478,697.1353425489565
479,697.1408885684293
480,697.1478695391639
481,697.1561954370258
482,697.165767501538
483,697.1764787401322
484,697.1882145423489
485,697.2008534010413
486,697.2142677369059
487,697.2283248210296
488,697.2428877879438
489,697.2578167290513
490,697.2729698531716
491,697.2882046978306
492,697.3033793727931
493,697.3183538167231
494,697.33299104842
495,697.3471583952986
496,697.3607286832067
497,697.3735813730804
498,697.3856036314885
499,697.3966913242168
500,697.4067499246999
501,697.4156953319356
502,697.4234545950761
503,697.4299665435685
504,697.435182321736
505,697.439065825196
506,697.4415940348259
507,697.4427572432975
508,697.4425591695627
509,697.4410169575046
510,697.4381610559683
511,697.4340349786011
512,697.4286949431421
513,697.4222093908772
514,697.4146583886024
515,697.4061329185773
516,697.396734066458
517,697.3865721215498
518,697.3757656062445
519,697.3644402515085
520,697.3527279332978
521,697.3407655820439
522,697.3286940748345
523,697.3166571174334
524,697.3048001205859
525,697.2932690731103
526,697.2822094144591
527,697.2717649121317
528,697.26207655362
529,697.2532814665051
530,697.2455118816599
531,697.2388941526193
532,697.2335478406197
533,697.2295848717075
534,697.2271087706745
535,697.2262139762614
536,697.2269852426732
537,697.2294971334571
538,697.2338136141967
539,697.2399877495033
540,697.2480615078379
541,697.2580656757892
542,697.270019882293
543,697.2839327331834
544,697.2998020568022
545,697.3176152607233
546,697.3373497971662
547,697.3589737308201
548,697.382446398271
549,697.4077191435467
550,697.4347361104892
551,697.4634350709989
552,697.4937482690534
553,697.5256032627635
554,697.5589237495486
555,697.5936303627806
556,697.629641432156
557,697.6668737036875
558,697.7052430172195
559,697.7446649394662
560,697.7850553494673
561,697.826330971935
562,697.8684098532112
563,697.9112117751703
564,697.9546586042193
565,697.9986745744517
566,698.0431865053623
567,698.0881239558721
568,698.1334193187724
569,698.1790078632436
570,698.2248277365226
571,698.2708199371807
572,698.316928270976
573,698.3630992968365
574,698.4092822671139
575,698.4554290640925
576,698.5014941338603
577,698.5474344185019
578,698.5932092876611
579,698.6387804704872
580,698.6841119887648
581,698.7291700920258
582,698.7739231958783
583,698.8183418251066
584,698.8623985627956
585,698.9060680065078
586,698.9493267333577
587,698.9921532772358
588,699.0345281221423
589,699.0764337151705
590,699.1178545018325
591,699.1587769855863
592,699.1991898120272
593,699.2390838755675
594,699.2784524432535
595,699.3172912882528
596,699.3555988254154
597,699.393376242827
598,699.4306276257778
599,699.4673600726328
600,699.5035838048959
601,699.5393122748518
602,699.5745622726986
603,699.6093540318838
604,699.6437113279922
605,699.6776615638946
606,699.7112358320002
607,699.7444689433698
608,699.7773994132656
609,699.810069393369
610,699.8425245423632
611,699.8748138288745
612,699.9069892635965
613,699.9391055599623
614,699.9712197243545
615,700.0033905777532
616,700.0356782119293
617,700.0681433856157
618,700.1008468692245
619,700.1338487493931
620,700.16720770593
621,700.2009802733706
622,700.2352200978631
623,700.269977198445
624,700.3052972409929
625,700.341220833556
626,700.3777828527362
627,700.4150118112835
628,700.4529292765726
629,700.4915493481165
630,700.5308782002393
631,700.5709136943244
632,700.611645064282
633,700.6530526787438
634,700.6951078830103
635,700.737772922213
636,700.7810009446606
637,700.8247360818976
638,700.8689136007703
639,700.9134601232619
640,700.9582939116557
641,701.0033252189843
642,701.0484567067044
643,701.0935839317391
644,701.1385959028303
645,701.1833757027703
646,701.2278011704751
647,701.2717456357763
648,701.315078699587
649,701.3576670518461
650,701.3993753189608
651,701.4400669315552
652,701.4796050027853
653,701.517853208131
654,701.55467665971
655,701.5899427708463
656,701.6235221080814
657,701.6552892270678
658,701.6851234862263
659,701.7129098285611
660,701.7385395183554
661,701.7619108167459
662,701.7829295801397
663,701.8015097694391
664,701.8175738657471
665,701.8310531975093
666,701.8418881918327
667,701.8500285664633
668,701.8554334780722
669,701.8580716389905
670,701.8579214106552
671,701.8549708785429
672,701.8492179100623
673,701.8406701941096
674,701.8293452591125
675,701.8152704649491
676,701.7984829628577
677,701.7790296168521
678,701.7569668805513
679,701.7323606243672
680,701.7052859094113
681,701.6758267063387
682,701.6440755591524
683,701.6101331948937
684,701.5741080802558
685,701.5361159266632
686,701.4962791470078
687,701.4547262692937
688,701.4115913135672
689,701.367013137855
690,701.3211347564073
691,701.274102630278
692,701.226065927876
693,701.1771757529278
694,701.1275843390214
695,701.0774442123677
696,701.0269073271131
697,700.9761241805198
698,700.9252429181184
699,700.874408440704
700,700.8237615255192
701,700.77343797375
702,700.7235677964716
703,700.6742744514455
704,700.6256741423623
705,700.5778751894192
706,700.5309774767117
707,700.4850719795264
708,700.4402403735639
709,700.3965547278503
710,700.3540772830574
711,700.3128603160305
712,700.2729460883668
713,700.234366872666
714,700.1971450471754
715,700.1612932494921
716,700.1268145816348
717,700.0937028603375
718,700.061942907604
719,700.0315108780273
720,700.0023746211774
721,699.9744940787579
722,699.9478217161902
723,699.9223029862243
724,699.8978768190814
725,699.8744761316498
726,699.8520283488815
727,699.8304559336268
728,699.8096769252054
729,699.7896054902574
730,699.7701524908906
731,699.751226075371
732,699.7327322965114
733,699.7145757623044
734,699.6966603214101
735,699.6788897829157
736,699.6611686662234
737,699.6434029735252
738,699.6255009742335
739,699.6073739880351
740,699.5889371512905
741,699.570110150927
742,699.5508179110257
743,699.5309912195095
744,699.5105672848889
745,699.4894902154275
746,699.4677114154673
747,699.445189896286
748,699.4218925016108
749,699.3977940504743
750,699.3728774026844
751,699.3471334550795
752,699.3205610793442
753,699.2931670132443
754,699.2649657160546
755,699.2359791959716
756,699.2062368130125
757,699.1757750557143
758,699.1446372845205
759,699.1128734303447
760,699.0805396348907
761,699.047697820608
762,699.0144151822468
763,698.9807635974331
764,698.946818958838
765,698.9126604345283
766,698.8783696664378
767,698.8440299204144
768,698.8097252048136
769,698.7755393769372
770,698.7415552567742
771,698.7078537656911
772,698.6745131048709
773,698.6416079851425
774,698.6092089170503
775,698.5773815684746
776,698.5461861973281
777,698.5156771681892
778,698.4859025626198
779,698.4569038917595
780,698.428715916075
781,698.401366572194
782,698.3748770028328
783,698.3492616839134
784,698.3245286420679
785,698.3006797548389
786,698.27771112529
787,698.255613523017
788,698.234372884376
789,698.21397086546
790,698.1943854420643
791,698.1755915518489
792,698.1575617746087
793,698.140267045909
794,698.1236773971674
795,698.1077627126747
796,698.0924934923818
797,698.0778416089291
798,698.0637810478756
799,698.0502886210463
800,698.0373446444331
801,698.0249335738162
802,698.0130445920823
803,698.0016721411808
804,697.9908163893756
805,697.9804836226369
806,697.970686548686
807,697.9614445028151
808,697.9527835455547
809,697.944736443905
810,697.937342530512
811,697.9306474384388
812,697.9247027128382
813,697.9195653046474
814,697.9152969544352
815,697.9119634759024
816,697.9096339486545
817,697.908379830042
818,697.9082739977297
819,697.9093897392098
820,697.911799710559
821,697.9155748912127
822,697.9207835622436
823,697.9274903331128
824,697.9357552377063
825,697.945632915417
826,697.9571718876671
827,697.9704139355645
828,697.9853935808342
829,698.0021376690454
830,698.0206650506135
831,698.040986351342
832,698.063103821873
833,698.0870112556368
834,698.1126939676321
835,698.1401288304619
836,698.1692843680584
837,698.2001209104524
838,698.2325908143921
839,698.2666387546195
840,698.3022020893293
841,698.3392113010389
842,698.3775905108416
843,698.4172580596363
844,698.458127145227
845,698.500106500891
846,698.5431011000412
847,698.5870128722008
848,698.6317414167613
849,698.677184703057
850,698.7232397484726
851,698.7698032696601
852,698.8167723040501
853,698.8640447995509
854,698.9115201707198
855,698.9590998203671
856,699.0066876262648
857,699.0541903929951
858,699.1015182690494
859,699.148585129253
860,699.1953089223673
861,699.2416119826568
862,699.2874213016755
863,699.3326687532463
864,699.3772912626076
865,699.4212309117917
866,699.4644349775074
867,699.5068559031686
868,699.5484512104969
869,699.5891833571162
870,699.6290195457909
871,699.6679314902483
872,699.7058951427223
873,699.7428903894806
874,699.7789007225235
875,699.8139128979686
876,699.8479165934438
877,699.8809040772089
878,699.9128699007626
879,699.9438106251008
880,699.9737245888501
881,700.0026117236071
882,700.0304734176101
883,700.0573124239679
884,700.0831328052781
885,700.1079399036014
886,700.1317403237942
887,700.1545419191557
888,700.1763537709014
889,700.1971861560627
890,700.2170505009345
891,700.2359593190082
892,700.2539261335662
893,700.2709653851019
894,700.2870923219907
895,700.3023228705327
896,700.3166734792765
897,700.3301609329737
898,700.3428021334855
899,700.354613848279
900,700.3656124313608
901,700.3758135256262
902,700.3852317585752
903,700.3938804442798
904,700.4017713032501
905,700.40891420918
906,700.4153169686372
907,700.4209851374939
908,700.4259218762128
909,700.4301278441407
910,700.4336011302697
911,700.4363372151612
912,700.4383289570209
913,700.4395665953441
914,700.440037768594
915,700.4397275471133
916,700.4386184866838
917,700.4366907102262
