frame_number,force
0,544.3492800038956
1,544.268193067444
2,544.1873837234468
3,544.1071272815989
4,544.0276945252892
5,543.9493495450041
6,543.8723476834522
7,543.7969336227595
8,543.7233396387525
9,543.6517840416096
10,543.5824698162738
11,543.515583470271
12,543.4512940914868
13,543.3897526144565
14,543.3310912910665
15,543.2754233601446
16,543.2228429096504
17,543.1734249242113
18,543.1272255092857
19,543.0842822816055
20,543.0446149140957
21,543.0082258221622
22,542.9751009769886
23,542.9452108303957
24,542.9185113352233
25,542.8949450453092
26,542.8744422796796
27,542.8569223359765
28,542.8422947380778
29,542.8304605025297
30,542.8213134081861
31,542.8147412535262
32,542.8106270865233
33,542.8088503926742
34,542.8092882278399
35,542.8118162839877
36,542.8163098779887
37,542.8226448560989
38,542.8306984089604
39,542.8403497935963
40,542.851480960484
41,542.8639770859113
42,542.8777270121515
43,542.8926235996806
44,542.9085639961645
45,542.9254498264926
46,542.9431873075489
47,542.9616872915585
48,542.980865242921
49,543.000641154625
50,543.0209394107865
51,543.0416886016963
52,543.062821297931
53,543.0842737910939
54,543.1059858100281
55,543.1279002218419
56,543.1499627262194
57,543.1721215496617
58,543.1943271444861
59,543.216531896583
60,543.2386898464233
61,543.2607564291667
62,543.2826882409654
63,543.3044428388803
64,543.3259785807192
65,543.3472545084459
66,543.3682302751731
67,543.3888661125602
68,543.4091228341038
69,543.4289618705037
70,543.4483453346725
71,543.4672361145119
72,543.4855979911056
73,543.5033957793967
74,543.520595488613
75,543.5371645005254
76,543.5530717641986
77,543.5682880054966
78,543.5827859482141
79,543.5965405418369
80,543.6095291892127
81,543.6217319664137
82,543.6331318269723
83,543.6437147833312
84,543.6534700595694
85,543.6623902110751
86,543.670471208745
87,543.677712487514
88,543.684116961357
89,543.6896910086541
90,543.6944444323734
91,543.6983903988915
92,543.7015453578595
93,543.7039289438806
94,543.7055638595706
95,543.7064757392005
96,543.7066929924296
97,543.7062466282583
98,543.705170060137
99,543.7034988940637
100,543.7012707022237
101,543.6985247850415
102,543.695301924552
103,543.6916441319664
104,543.6875943922174
105,543.6831964079654
106,543.6784943450065
107,543.6735325804382
108,543.6683554544743
109,543.6630070264855
110,543.6575308356701
111,543.6519696666548
112,543.646365320096
113,543.6407583878548
114,543.6351880316271
115,543.6296917632867
116,543.6243052250254
117,543.6190619678889
118,543.6139932284935
119,543.6091277052993
120,543.6044913374175
121,543.6001070901227
122,543.5959947517256
123,543.5921707462668
124,543.5886479660118
125,543.5854356272215
126,543.5825391520478
127,543.5799600786154
128,543.5776960007493
129,543.5757405386364
130,543.5740833418223
131,543.5727101262048
132,543.5716027470652
133,543.5707393103776
134,543.5700943240805
135,543.5696388893883
136,543.5693409299446
137,543.5691654545957
138,543.5690748486988
139,543.5690291893359
140,543.568986580858
141,543.5689035081057
142,543.5687352053861
143,543.5684360402499
144,543.5679599123995
145,543.5672606690626
146,543.566292538036
147,543.5650105783196
148,543.5633711467145
149,543.5613323774786
150,543.5588546708776
151,543.5559011850613
152,543.5524383244353
153,543.5484362166766
154,543.5438691694632
155,543.5387160969741
156,543.5329609060441
157,543.526592833148
158,543.5196067256559
159,543.5120032628188
160,543.5037891129398
161,543.4949770235884
162,543.4855858425066
163,543.4756404684942
164,543.4651717337593
165,543.4542162214677
166,543.4428160240753
167,543.4310184491337
168,543.4188756796473
169,543.4064443961221
170,543.3937853675345
171,543.3809630185159
172,543.3680449797757
173,543.3551016280109
174,543.3422056205169
175,543.3294314288136
176,543.3168548748515
177,543.3045526725189
178,543.2926019762115
179,543.2810799376928
180,543.2700632730728
181,543.2596278435144
182,543.2498482551385
183,543.2407974839364
184,543.2325465296831
185,543.2251640999534
186,543.2187163229677
187,543.2132664867273
188,543.2088748013791
189,543.2055981815587
190,543.2034900454956
191,543.20260012794
192,543.2029743046112
193,543.204654426906
194,543.2076781667481
195,543.2120788722947
196,543.2178854355642
197,543.2251221730887
198,543.2338087205317
199,543.2439599418315
200,543.2555858531551
201,543.2686915624233
202,543.2832772266007
203,543.2993380308081
204,543.3168641947165
205,543.3358410120094
206,543.3562489279295
207,543.3780636584478
208,543.4012563528414
209,543.4257937996277
210,543.4516386738449
211,543.4787498216241
212,543.507082576187
213,543.5365890983716
214,543.5672187348722
215,543.598918388213
216,543.6316328931629
217,543.6653053941757
218,543.6998777178218
219,543.735290734335
220,543.7714847042375
221,543.8083996090429
222,543.8459754677223
223,543.8841526418016
224,543.922872131559
225,543.9620758643805
226,544.0017069743473
227,544.0417100697248
228,544.082031482677
229,544.1226194940807
230,544.1634245263939
231,544.2043992990358
232,544.2454989430371
233,544.2866810741403
234,544.3279058255468
235,544.3691358426801
236,544.4103362424947
237,544.451474539433
238,544.4925205399127
239,544.5334462077444
240,544.5742255040133
241,544.6148342063038
242,544.6552497132666
243,544.6954508410265
244,544.7354176176831
245,544.7751310814216
246,544.8145730868648
247,544.8537261232401
248,544.8925731464959
249,544.9310974254245
250,544.9692823993324
251,545.0071115427262
252,545.0445682317486
253,545.0816356076906
254,545.1182964340557
255,545.1545329447397
256,545.190326681827
257,545.2256583224652
258,545.2605074953867
259,545.2948525887543
260,545.3286705518263
261,545.3619366932548
262,545.394624478874
263,545.4267053321188
264,545.4581484408424
265,545.4889205748025
266,545.5189859180425
267,545.5483059199356
268,545.5768391681615
269,545.6045412865575
270,545.6313648607653
271,545.6572593949649
272,545.6821713033446
273,545.7060439397707
274,545.7288176684572
275,545.7504299779528
276,545.770815640797
277,545.7899069214241
278,545.8076338348174
279,545.8239244580027
280,545.838705295896
281,545.8519017019242
282,545.8634383515179
283,545.8732397630913
284,545.8812308577347
285,545.8873375469489
286,545.8914873377217
287,545.8936099454373
288,545.8936379065458
289,545.8915071839297
290,545.8871577583726
291,545.880534199617
292,545.8715862103312
293,545.8602691361142
294,545.846544434658
295,545.8303800974976
296,545.8117510185398
297,545.7906393047359
298,545.7670345255686
299,545.740933899306
300,545.7123424153916
301,545.6812728939182
302,545.6477459845474
303,545.611790108038
304,545.573441343535
305,545.5327432641894
306,545.4897467230713
307,545.4445095912083
308,545.3970964499047
309,545.347578240092
310,545.2960318724495
311,545.2425398036079
312,545.1871895855579
313,545.1300733964763
314,545.071287560786
315,545.0109320644253
316,544.949110068924
317,544.885927425997
318,544.821492193414
319,544.7559141527779
320,544.6893043303826
321,544.6217745234829
322,544.5534368359732
323,544.4844032292109
324,544.4147850948655
325,544.3446928564292
326,544.2742356040247
327,544.2035207638027
328,544.1326537996158
329,544.0617379417828
330,543.9908739362185
331,543.9201598071936
332,543.849690628111
333,543.7795582961463
334,543.7098513078291
335,543.6406545337479
336,543.5720489918679
337,543.5041116204198
338,543.4369150524881
339,543.3705273950322
340,543.3050120154401
341,543.24042733929
342,543.1768266637721
343,543.1142579917066
344,543.0527638908997
345,542.99238138264
346,542.9331418618408
347,542.8750710503814
348,542.8181889851039
349,542.7625100423139
350,542.7080430007304
351,542.6547911443585
352,542.6027524060513
353,542.5519195518491
354,542.5022804054795
355,542.4538181117019
356,542.406511436611
357,542.3603351026248
358,542.3152601555266
359,542.271254360273
360,542.2282826210346
361,542.186307419235
362,542.1452892619197
363,542.1051871322438
364,542.0659589341159
365,542.0275619235289
366,541.9899531196409
367,541.9530896893613
368,541.9169293000355
369,541.8814304358607
370,541.8465526752602
371,541.8122569287873
372,541.7785056397889
373,541.7452629521921
374,541.7124948507712
375,541.6801692791457
376,541.648256240161
377,541.6167278828731
378,541.5855585801955
379,541.5547250009329
380,541.5242061789191
381,541.4939835804299
382,541.464041169763
383,541.4343654723308
384,541.404945634059
385,541.3757734743749
386,541.3468435277662
387,541.3181530671503
388,541.2897021022499
389,541.2614933477477
390,541.2335321582801
391,541.205826429489
392,541.1783864662032
393,541.1512248204743
394,541.1243561037181
395,541.0977967784618
396,541.0715649359627
397,541.0456800661473
398,541.020162825941
399,540.9950348111215
400,540.9703183353876
401,540.9460362186492
402,540.9222115849104
403,540.8988676689203
404,540.8760276303437
405,540.8537143746048
406,540.8319503804282
407,540.8107575350131
408,540.7901569783972
409,540.770168958742
410,540.7508126998856
411,540.7321062816336
412,540.714066532224
413,540.6967089318274
414,540.6800475263481
415,540.6640948522715
416,540.648861875188
417,540.6343579457099
418,540.6205907761237
419,540.6075664397795
420,540.595289393926
421,540.5837625258155
422,540.5729872211791
423,540.5629634534162
424,540.5536898910648
425,540.545164020408
426,540.5373822796986
427,540.5303402018749
428,540.5240325636645
429,540.5184535398265
430,540.5135968612875
431,540.5094559751518
432,540.5060242036664
433,540.5032948988799
434,540.501261590095
435,540.4999181216516
436,540.4992587784251
437,540.4992783957942
438,540.4999724504733
439,540.5013371288837
440,540.5033693702101
441,540.5060668815904
442,540.5094281233927
443,540.5134522636952
444,540.5181391027737
445,540.5234889699263
446,540.5295025958
447,540.5361809634472
448,540.5435251410543
449,540.5515360993123
450,540.5602145172322
451,540.5695605815793
452,540.5795737862632
453,540.5902527383229
454,540.6015949764848
455,540.6135968069973
456,540.6262531602431
457,540.6395574710585
458,540.653501585688
459,540.6680756982769
460,540.6832683193799
461,540.699066278368
462,540.7154547614455
463,540.7324173873977
464,540.7499363235085
465,540.7679924434173
466,540.7865655270284
467,540.8056345005817
468,540.8251777130097
469,540.8451732426454
470,540.865599226528
471,540.886434203758
472,540.9076574648325
473,540.9292494000181
474,540.9511918405778
475,540.9734683864871
476,540.9960647134544
477,541.0189688514098
478,541.0421714265425
479,541.0656658593373
480,541.0894485117226
481,541.113518777632
482,541.1378791131312
483,541.1625350042806
484,541.187494872322
485,541.2127699165734
486,541.23837389641
487,541.2643228556962
488,541.2906347958971
489,541.3173293070316
490,541.3444271676506
491,541.3719499255296
492,541.3999194698815
493,541.4283576043334
494,541.4572856282779
495,541.4867239326396
496,541.5166916148328
497,541.5472061171617
498,541.578282893073
499,541.6099351054932
500,541.6421733602821
501,541.6750054762155
502,541.7084362921095
503,541.7424675121596
504,541.777097591742
505,541.8123216669302
506,541.8481315310084
507,541.8845156601265
508,541.9214592885377
509,541.9589445324528
510,541.9969505607935
511,542.0354538108213
512,542.074428246291
513,542.1138456551614
514,542.1536759830694
515,542.1938876979315
516,542.2344481802672
517,542.2753241331337
518,542.3164820050525
519,542.3578884190619
520,542.399510600661
521,542.4413167965039
522,542.483276674474
523,542.5253616950795
524,542.567545444653
525,542.6098039227418
526,542.6521157789612
527,542.6944624976945
528,542.7368285313952
529,542.7792013844177
530,542.8215716496437
531,542.8639330003916
532,542.9062821406084
533,542.94861871711
534,542.9909451984184
535,543.0332667251341
536,543.075590936455
537,543.1179277765604
538,543.1602892837232
539,543.2026893644912
540,543.2451435547705
541,543.287668768791
542,543.3302830360357
543,543.373005226004
544,543.4158547614746
545,543.4588513221383
546,543.5020145412001
547,543.5453636973411
548,543.5889174035779
549,543.6326932936961
550,543.6767077066274
551,543.7209753696735
552,543.7655090828307
553,543.810319407923
554,543.8554143668357
555,543.9007991527075
556,543.9464758574322
557,543.9924432192016
558,544.0386963950358
559,544.0852267645325
560,544.132021771761
561,544.1790648119852
562,544.2263351685538
563,544.2738080031443
564,544.3214544005345
565,544.3692414678844
566,544.4171324878772
567,544.4650871242899
568,544.5130616775707
569,544.5610093871704
570,544.6088807768583
571,544.6566240389947
572,544.7041854537403
573,544.7515098392189
574,544.7985410280941
575,544.8452223644866
576,544.8914972131037
577,544.9373094708769
578,544.9826040709765
579,545.0273274696685
580,545.0714281075595
581,545.1148568379912
582,545.1575673168126
583,545.1995163495641
584,545.2406641938528
585,545.2809748157727
586,545.3204160994791
587,545.3589600089471
588,545.3965827010464
589,545.4332645894458
590,545.468990359342
591,545.5037489335832
592,545.5375333915802
593,545.5703408435244
594,545.6021722634009
595,545.6330322844155
596,545.6629289599076
597,545.6918734928227
598,545.7198799380955
599,545.7469648838237
600,545.7731471174004
601,545.7984472817011
602,545.8228875251971
603,545.8464911494485
604,545.8692822576538
605,545.8912854080723
606,545.9125252758431
607,545.9330263262632
608,545.9528125023152
609,545.9719069292082
610,545.9903316389377
611,546.0081073183306
612,546.0252530842967
613,546.0417862896319
614,546.0577223619132
615,546.0730746772936
616,546.0878544705268
617,546.1020707822352
618,546.115730444195
619,546.1288381030455
620,546.1413962821351
621,546.1534054803817
622,546.1648643063338
623,546.1757696451366
624,546.1861168554933
625,546.1958999927481
626,546.2051120530441
627,546.2137452325774
628,546.221791195634
629,546.2292413452903
630,546.2360870909572
631,546.2423201072239
632,546.2479325790594
633,546.2529174294982
634,546.257268527118
635,546.2609808715114
636,546.2640507556326
637,546.2664759045
638,546.2682555903019
639,546.2693907245393
640,546.2698839284735
641,546.2697395836647
642,546.2689638645418
643,546.2675647548751
644,546.2655520503133
645,546.2629373501724
646,546.2597340428889
647,546.2559572898931
648,546.2516240115457
649,546.2467528765791
650,546.241364294014
651,546.2354804044273
652,546.2291250660014
653,546.2223238300538
654,546.2151039008279
655,546.2074940753487
656,546.1995246607657
657,546.1912273679815
658,546.1826351809202
659,546.1737822007055
660,546.1647034636874
661,546.15543473188
662,546.1460122542499
663,546.1364724980405
664,546.1268518513389
665,546.1171863009768
666,546.1075110927342
667,546.0978603830106
668,546.088266892322
669,546.078761570968
670,546.0693732860954
671,546.060128537667
672,546.0510512091581
673,546.0421623575713
674,546.0334800468127
675,546.0250192285532
676,546.0167916749475
677,546.0088059673097
678,546.0010675436268
679,545.9935788057776
680,545.9863392851568
681,545.9793458635155
682,545.9725930441579
683,545.9660732670329
684,545.9597772599283
685,545.9536944171864
686,545.9478131972116
687,545.9421215305678
688,545.936607231641
689,545.9312584080895
690,545.9260638626843
691,545.9210134813004
692,545.9160985993765
693,545.9113123381039
694,545.9066499014028
695,545.9021088252957
696,545.8976891726135
697,545.8933936681599
698,545.8892277723164
699,545.885199694025
700,545.8813203467013
701,545.8776032526309
702,545.8740644025354
703,545.8707220771245
704,545.867596636814
705,545.8647102847764
706,545.8620868075077
707,545.8597512964415
708,545.8577298538618
709,545.8560492861011
710,545.8547367862774
711,545.8538196077109
712,545.8533247282993
713,545.8532785060894
714,545.8537063271425
715,545.85463224813
716,545.8560786372376
717,545.8580658175047
718,545.8606117168753
719,545.8637315292722
720,545.8674373907841
721,545.8717380744529
722,545.8766387065543
723,545.8821405071826
724,545.888240558074
725,545.8949316002158
726,545.9022018630504
727,545.9100349271041
728,545.918409623106
729,545.927299972197
730,545.9366751725652
731,545.9464996374874
732,545.9567330887791
733,545.9673307086368
734,545.9782433519622
735,545.9894178200633
736,546.0007971948937
737,546.0123212310295
738,546.0239268009344
739,546.0355483878171
740,546.0471186194037
741,546.0585688351442
742,546.0698296787273
743,546.0808317072774
744,546.0915060083456
745,546.1017848158804
746,546.1116021166591
747,546.1208942389446
748,546.1296004155058
749,546.1376633138593
750,546.1450295274565
751,546.151650022168
752,546.157480532961
753,546.1624819066993
754,546.1666203888033
755,546.1698678536561
756,546.1722019802843
757,546.1736063754126
758,546.1740706457836
759,546.1735904213517
760,546.1721673308766
761,546.1698089312239
762,546.1665285910722
763,546.1623453287967
764,546.1572836033821
765,546.1513730566313
766,546.1446482048453
767,546.1371480786268
768,546.1289158106605
769,546.119998173393
770,546.1104450712147
771,546.1003089942965
772,546.0896444429558
773,546.0785073322405
774,546.0669543867552
775,546.0550425360823
776,546.0428283216729
777,546.0303673267307
778,546.0177136410346
779,546.0049193723657
780,545.9920342148772
781,545.9791050826324
782,545.9661758144441
783,545.9532869546568
784,545.9404756133641
785,545.9277754080204
786,545.915216486242
787,545.9028256270111
788,545.8906264147264
789,545.8786394778128
790,545.8668827811075
791,545.8553719590527
792,545.844120674935
793,545.8331409905521
794,545.8224437313775
795,545.8120388345081
796,545.8019356696199
797,545.7921433256946
798,545.7826708579292
799,545.7735274905116
800,545.7647227727955
801,545.7562666889248
802,545.748169723362
803,545.7404428864672
804,545.7330977053572
805,545.7261461860428
806,545.7196007533563
807,545.7134741753281
808,545.7077794783966
809,545.7025298591673
810,545.6977385976493
811,545.693418976416
812,545.6895842101275
813,545.6862473899324
814,545.6834214468887
815,545.6811191376651
816,545.6793530549625
817,545.6781356648004
818,545.6774793728023
819,545.6773966211815
820,545.6779000171407
821,545.6790024924272
822,545.680717493241
823,545.6830591993152
824,545.6860427702856
825,545.6896846161851
826,545.6940026872103
827,545.6990167761962
828,545.704748825778
829,545.7112232311002
830,545.7184671282549
831,545.7265106583844
832,545.7353871974587
833,545.7451335422603
834,545.7557900446202
835,545.7674006884315
836,545.7800131064794
837,545.7936785356834
838,545.8084517099521
839,545.8243906902611
840,545.8415566322192
841,545.8600134922694
842,545.8798276750033
843,545.9010676262853
844,545.9238033796239
845,545.9481060653029
846,545.9740473924155
847,546.0016991133907
848,546.031132479577
849,546.0624176952354
850,546.0956233759173
851,546.1308160161046
852,546.1680594707972
853,546.2074144564721
854,546.2489380776668
855,546.2926833853151
856,546.3386989715876
857,546.3870286039848
858,546.4377108996241
859,546.4907790393798
860,546.5462605209193
861,546.6041769501456
862,546.6645438721905
863,546.7273706450526
864,546.7926603600538
865,546.8604098128109
866,546.9306095265065
867,547.0032438264892
868,547.0782909625902
869,547.1557232739306
870,547.2355073906378
871,547.317604467176
872,547.4019704420981
873,547.4885563187407
874,547.5773084610248
875,547.6681688983844
876,547.7610756337858
877,547.8559629489039
878,547.9527617012996
879,548.0513996100542
880,548.1518015280958
881,548.2538897006891
882,548.3575840102955
883,548.4628022088522
884,548.5694601397781
885,548.6774719533422
886,548.7867503198298
887,548.8972066449492
888,549.008751291248
889,549.1212938081673
890,549.2347431718964
891,549.3490080346419
892,549.4639969815897
893,549.5796187928946
894,549.6957827073213
895,549.8123986836986
896,549.9293776563862
897,550.0466317815125
898,550.1640746713916
899,550.2816216150062
900,550.3991897829243
901,550.516698415667
902,550.6340689949586
903,550.7512253969502
904,550.8680940253063
905,550.9846039205739
906,551.1006868414106
907,551.2162773136755
908,551.331312644811
909,551.4457329026222
910,551.559480859174
911,551.6725019020582
912,551.784743916407
913,551.8961571413055
914,552.0066940039277
915,552.116308934534
916,552.2249581658864
917,552.3325995214473
