frame_number,force
0,885.8912400094182
1,885.9332694684451
2,885.9754593449388
3,886.0179678739411
4,886.0609489610368
5,886.104550103499
6,886.1489104081223
7,886.1941587291946
8,886.2404119450049
9,886.287773386966
10,886.3363314322415
11,886.3861582683977
12,886.4373088361897
13,886.4898199536905
14,886.5437096218714
15,886.5989765092039
16,886.6555996116185
17,886.7135380844975
18,886.7727312448094
19,886.8330987427823
20,886.8945409023765
21,886.9569392277059
22,887.0201570691023
23,887.0840404390386
24,887.1484189655436
25,887.2131069688311
26,887.2779046447007
27,887.3425993357121
28,887.4069668693728
29,887.4707729428823
30,887.5337745362083
31,887.5957213381076
32,887.6563571720671
33,887.7154214108522
34,887.7726503697238
35,887.8277786698819
36,887.8805405655843
37,887.930671230331
38,887.9779079987926
39,888.0219915613243
40,888.0626671068917
41,888.0996854083346
42,888.1328038417741
43,888.1617873307226
44,888.1864092058685
45,888.2064519736772
46,888.2217079903234
47,888.2319800410969
48,888.2370818282425
49,888.2368383716116
50,888.2310863267144
51,888.2196742243085
52,888.2024626351076
53,888.179324263037
54,888.1501439709698
55,888.114818743891
56,888.0732575955756
57,888.0253814256242
58,887.9711228336234
59,887.9104258963104
60,887.8432459124829
61,887.7695491197679
62,887.6893123875134
63,887.602522890584
64,887.5091777691641
65,887.4092837796325
66,887.3028569413154
67,887.1899221834578
68,887.0705129960567
69,886.9446710873935
70,886.8124460503989
71,886.6738950393434
72,886.5290824574623
73,886.3780796548482
74,886.2209646346463
75,886.0578217647234
76,885.8887414917943
77,885.7138200554966
78,885.5331592008135
79,885.346865887952
80,885.155051998627
81,884.9578340364936
82,884.7553328176854
83,884.5476731460785
84,884.3349834678663
85,884.1173955013737
86,883.8950438403058
87,883.6680655312827
88,883.4365996291108
89,883.200786735298
90,882.9607685265457
91,882.7166872804534
92,882.4686854056621
93,882.2169049831878
94,881.9614873246038
95,881.7025725509535
96,881.4402991941946
97,881.1748038211089
98,880.9062206781484
99,880.6346813546473
100,880.3603144613945
101,880.0832453221042
102,879.8035956768753
103,879.5214833988457
104,879.2370222272318
105,878.9503215210189
106,878.6614860372483
107,878.37061573629
108,878.0778056146186
109,877.7831455645442
110,877.4867202604449
111,877.188609071638
112,876.888886002187
113,876.5876196575322
114,876.2848732373617
115,875.9807045539841
116,875.6751660755372
117,875.3683049933917
118,875.0601633128372
119,874.7507779654861
120,874.4401809411598
121,874.1283994366399
122,873.8154560183829
123,873.5013687958666
124,873.1861516020689
125,872.8698141781731
126,872.5523623607228
127,872.2337982703617
128,871.9141205017153
129,871.5933243143803
130,871.2714018260764
131,870.9483422106555
132,870.6241319049261
133,870.298754828164
134,869.9721926166949
135,869.6444248738721
136,869.3154294338907
137,868.9851826363869
138,868.6536596077111
139,868.320834544436
140,867.9866809952604
141,867.6511721385849
142,867.3142810539102
143,866.9759809855174
144,866.6362455968955
145,866.2950492144357
146,865.9523670591466
147,865.6081754654002
148,865.2624520859424
149,864.9151760827359
150,864.5663283037836
151,864.215891446684
152,863.8638502099699
153,863.5101914332406
154,863.1549042271737
155,862.7979800949432
156,862.4394130470312
157,862.0791997111708
158,861.7173394380727
159,861.3538344021886
160,860.9886896955662
161,860.6219134119125
162,860.2535167172966
163,859.8835139036808
164,859.5119224217062
165,859.1387628896874
166,858.7640590761869
167,858.3878378535657
168,858.0101291196224
169,857.6309656844055
170,857.2503831199797
171,856.8684195722715
172,856.4851155356673
173,856.100513592348
174,855.7146581190614
175,855.3275949640987
176,854.9393710968784
177,854.5500342322863
178,854.1596324323326
179,853.7682136890005
180,853.3758254939268
181,852.9825144018773
182,852.5883255954064
183,852.1933024580213
184,851.7974861633535
185,851.4009152884735
186,851.0036254599911
187,850.6056490413732
188,850.207014868961
189,849.8077480427978
190,849.4078697767173
191,849.0073973100226
192,848.6063438808451
193,848.2047187595374
194,847.8025273392786
195,847.3997712797781
196,846.9964486985194
197,846.5925544031948
198,846.1880801593243
199,845.7830149880017
200,845.3773454893479
201,844.9710561871864
202,844.5641298899827
203,844.1565480629425
204,843.7482912068302
205,843.3393392404414
206,842.9296718851002
207,842.5192690504855
208,842.1081112212484
209,841.696179843186
210,841.2834577063426
211,840.8699293206788
212,840.4555812783528
213,840.0404025955343
214,839.6243850261324
215,839.2075233397034
216,838.7898155561272
217,838.3712631308017
218,837.95187108626
219,837.5316480888749
220,837.1106064720948
221,836.688762210033
222,836.266134846825
223,835.8427473876643
224,835.4186261569452
225,834.993800628054
226,834.5683032288463
227,834.1421691271618
228,833.7154360017233
229,833.2881438047119
230,832.8603345224793
231,832.4320519398414
232,832.0033414113515
233,831.574249640439
234,831.1448244651259
235,830.7151146482075
236,830.2851696707347
237,829.8550395296505
238,829.4247745421324
239,828.9944251595177
240,828.564041792389
241,828.1336746461125
242,827.7033735641011
243,827.2731878753061
244,826.843166242837
245,826.4133565114766
246,825.9838055526856
247,825.554559106435
248,825.1256616197483
249,824.6971560820357
250,824.2690838572797
251,823.8414845131091
252,823.4143956469287
253,822.9878527094215
254,822.5618888256536
255,822.1365346136371
256,821.711817999972
257,821.2877640326111
258,820.8643946919482
259,820.441728703127
260,820.0197813546013
261,819.5985643302432
262,819.1780855638141
263,818.7583491245687
264,818.3393551412762
265,817.9210997700234
266,817.5035752095522
267,817.0867697663952
268,816.6706679702173
269,816.2552507375149
270,815.8404955796943
271,815.4263768502223
272,815.0128660252396
273,814.5999320124916
274,814.1875414841547
275,813.7756592298772
276,813.3642485270641
277,812.9532715259459
278,812.5426896469772
279,812.1324639875547
280,811.7225557342724
281,811.3129265762835
282,810.9035391146042
283,810.4943572612057
284,810.0853466207526
285,809.6764748473876
286,809.2677119691496
287,808.8590306732966
288,808.4504065467613
289,808.0418182669483
290,807.6332477388081
291,807.2246801747573
292,806.816104115153
293,806.4075113890714
294,805.9988970177448
295,805.5902590653435
296,805.1815984430149
297,804.7729186719525
298,804.3642256103593
299,803.955527148558
300,803.5468328767942
301,803.1381537310108
302,802.729501622161
303,802.3208890541539
304,801.9123287346613
305,801.5038331821895
306,801.0954143322485
307,800.6870831452161
308,800.2788492185126
309,799.8707204059103
310,799.4627024474034
311,799.0547986143026
312,798.6470093760785
313,798.239332097527
314,797.8317607762814
315,797.4242858306611
316,797.0168939461787
317,796.609567986451
318,796.2022869717298
319,795.7950261260083
320,795.3877569915749
321,794.9804476081724
322,794.5730627528982
323,794.1655642364427
324,793.757911250713
325,793.3500607623207
326,792.941967946276
327,792.533586654639
328,792.1248699153247
329,791.7157704562393
330,791.306241249381
331,790.8962360689208
332,790.4857100569079
333,790.0746202899932
334,789.6629263401804
335,789.2505908223775
336,788.8375799219261
337,788.4238638964445
338,788.0094175477009
339,787.5942206602489
340,787.1782584038799
341,786.7615216969901
342,786.3440075281892
343,785.9257192338318
344,785.5066667292328
345,785.086866691237
346,784.6663426899985
347,784.2451252682746
348,783.8232519670298
349,783.4007672969254
350,782.9777226565943
351,782.5541761999831
352,782.1301926557114
353,781.7058431010968
354,781.2812046924515
355,780.8563603519972
356,780.4313984108725
357,780.0064122075268
358,779.5814996411799
359,779.1567626807121
360,778.7323068301437
361,778.3082405530803
362,777.8846746606075
363,777.4617216698007
364,777.0394951420993
365,776.6181090116337
366,776.1976769138194
367,775.7783115248703
368,775.3601239231442
369,774.9432229829671
370,774.5277148108249
371,774.1137022327414
372,773.7012843402623
373,773.290556100915
374,772.8816080375907
375,772.4745259799877
376,772.0693908896611
377,771.6662787584094
378,771.2652605783306
379,770.8664023813911
380,770.4697653464984
381,770.075405972211
382,769.6833763128519
383,769.2937242749938
384,768.906493970458
385,768.5217261210978
386,768.1394585093727
387,767.7597264671626
388,767.3825633940625
389,767.0080012958397
390,766.6360713334744
391,766.2668043726794
392,765.900231522936
393,765.5363846544489
394,765.1752968817954
395,764.817003004692
396,764.461539898651
397,764.1089468503492
398,763.7592658339305
399,763.4125417258151
400,763.0688224574974
401,762.7281591080693
402,762.39060594009
403,762.0562203836172
404,761.7250629738314
405,761.3971972478084
406,761.072689605712
407,760.7516091410553
408,760.4340274438039
409,760.1200183793137
410,759.8096578459707
411,759.5030235146778
412,759.2001945528942
413,758.9012513342092
414,758.6062751322999
415,758.3153477968657
416,758.0285514091566
417,757.7459679153498
418,757.4676787364715
419,757.1937643537624
420,756.9243038689355
421,756.6593745400913
422,756.399051295983
423,756.1434062334492
424,755.8925081045921
425,755.646421801214
426,755.4052078441596
427,755.1689218849281
428,754.9376142267513
429,754.7113293726021
430,754.4901056079473
431,754.2739746255457
432,754.0629611978277
433,753.857082899989
434,753.6563498848301
435,753.4607647089546
436,753.2703222090142
437,753.0850094257722
438,752.9048055728106
439,752.7296820461114
440,752.5596024705555
441,752.3945227791638
442,752.234391320363
443,752.0791489879687
444,751.928729368577
445,751.783058902096
446,751.6420570530705
447,751.5056364925897
448,751.3737032922884
449,751.2461571328292
450,751.1228915290616
451,751.0037940730831
452,750.8887466952305
453,750.7776259420061
454,750.6703032694048
455,750.5666453502963
456,750.4665143954317
457,750.3697684888954
458,750.2762619400111
459,750.1858456544329
460,750.0983675271292
461,750.0136728590951
462,749.9316047979873
463,749.8520048005704
464,749.7747131120566
465,749.6995692547298
466,749.6264125166525
467,749.5550824312036
468,749.4854192392293
469,749.4172643270165
470,749.350460634636
471,749.2848530302908
472,749.2202886471897
473,749.1566171802739
474,749.0936911408627
475,749.0313660678364
476,748.9695006943184
477,748.9079570691662
478,748.8466006332396
479,748.7853002515326
480,748.7239282036986
481,748.6623601370578
482,748.6004749878201
483,748.5381548780078
484,748.4752849970254
485,748.4117534774041
486,748.3474512737201
487,748.2822720523441
488,748.2161120981231
489,748.1488702428691
490,748.0804478199633
491,748.0107486493239
492,747.9396790568411
493,747.8671479317838
494,747.7930668249121
495,747.7173500894773
496,747.6399150667837
497,747.5606823171021
498,747.4795758954702
499,747.396523670547
500,747.3114576833606
501,747.2243145414559
502,747.1350358427576
503,747.0435686226876
504,746.9498658177089
505,746.8538867380466
506,746.7555975414497
507,746.65497169856
508,746.5519904394329
509,746.4466431707855
510,746.338927854943
511,746.228851343651
512,746.116429662088
513,746.0016882401055
514,745.8846620889329
515,745.7653959223934
516,745.6439442222533
517,745.5203712478793
518,745.3947509908281
519,745.2671670750784
520,745.1377126032949
521,745.0064899490517
522,744.8736104946886
523,744.7391943146715
524,744.6033698051039
525,744.4662732613684
526,744.3280484076339
527,744.1888458835829
528,744.0488226945303
529,743.9081416309773
530,743.7669706631124
531,743.6254823151095
532,743.4838530231499
533,743.3422624799537
534,743.2008929676045
535,743.0599286799545
536,742.9195550360279
537,742.7799579863159
538,742.6413233142518
539,742.5038359354444
540,742.3676791978462
541,742.2330341871892
542,742.1000790436013
543,741.9689882968902
544,741.8399322291176
545,741.7130762735837
546,741.5885804591658
547,741.4665989081875
548,741.3472793949063
549,741.2307629707416
550,741.1171836618571
551,741.0066682445639
552,740.8993361037852
553,740.795299178841
554,740.6946619985531
555,740.5975218040048
556,740.5039687526005
557,740.4140861923768
558,740.3279509921733
559,740.2456339122276
560,740.167200000956
561,740.0927090062614
562,740.0222157926969
563,739.9557707584094
564,739.8934202473439
565,739.8352069524653
566,739.7811703052809
567,739.7313468465798
568,739.6857705735348
569,739.644473258976
570,739.6074847394823
571,739.5748331699662
572,739.5465452438247
573,739.5226463793333
574,739.5031608743233
575,739.4881120319747
576,739.4775222606087
577,739.4714131496984
578,739.469805523136
579,739.4727194693929
580,739.4801743470882
581,739.492188764119
582,739.5087805288634
583,739.5299665725952
584,739.5557628427152
585,739.5861841666039
586,739.621244085875
587,739.6609546605412
588,739.7053262419693
589,739.7543672127305
590,739.8080836910829
591,739.8664791983845
592,739.9295542893406
593,739.997306147491
594,740.0697281512633
595,740.1468094183753
596,740.2285343376027
597,740.3148820971184
598,740.405826218665
599,740.5013341072471
600,740.6013666262335
601,740.7058777070669
602,740.8148140011651
603,740.9281145796745
604,741.0457106851694
605,741.1675255383835
606,741.293474202204
607,741.423463504301
608,741.5573920192265
609,741.6951501108839
610,741.8366200365454
611,741.9816761136764
612,742.1301849506408
613,742.2820057420912
614,742.4369906297092
615,742.5949851290737
616,742.7558286234608
617,742.9193549246645
618,743.0853928990382
619,743.2537671540406
620,743.424298777474
621,743.5968061193282
622,743.7711056051394
623,743.9470125697821
624,744.1243421011243
625,744.3029098836118
626,744.4825330325223
627,744.6630309102919
628,744.8442259169698
629,745.0259442475614
630,745.2080166101917
631,745.3902789007217
632,745.5725728309749
633,745.7547465081914
634,745.9366549629397
635,746.118160622681
636,746.2991337290514
637,746.4794526982656
638,746.6590044255682
639,746.8376845365773
640,747.0153975902798
641,747.1920572389173
642,747.3675863481866
643,747.5419170778734
644,747.7149909197169
645,747.8867586869088
646,748.0571804486402
647,748.2262254037206
648,748.3938716893555
649,748.5601061241657
650,748.7249238879473
651,748.8883281440387
652,749.0503296130601
653,749.2109461090463
654,749.3702020504202
655,749.5281279584011
656,749.6847599540741
657,749.8401392629705
658,749.9943117336522
659,750.1473273750095
660,750.2992399154995
661,750.4501063860105
662,750.5999867265482
663,750.7489434157573
664,750.8970411211264
665,751.0443463662748
666,751.1909272102321
667,751.3368529324284
668,751.4821937161051
669,751.6270203221536
670,751.771403745487
671,751.9154148470377
672,752.0591239558553
673,752.202600437302
674,752.3459122252578
675,752.4891253186357
676,752.6323032450022
677,752.7755064960751
678,752.9187919410784
679,753.0622122247162
680,753.2058151575075
681,753.3496431075109
682,753.4937324036437
683,753.6381127616203
684,753.782806744108
685,753.9278292669527
686,754.0731871629848
687,754.2188788141109
688,754.3648938616187
689,754.511213003839
690,754.6578078887234
691,754.8046411061597
692,754.951666281629
693,755.0988282704084
694,755.2460634504939
695,755.3933001120687
696,755.5404589405587
697,755.6874535887384
698,755.8341913314275
699,755.9805737945707
700,756.1264977490205
701,756.2718559581989
702,756.4165380683862
703,756.5604315309643
704,756.7034225471347
705,756.8453970264665
706,756.98624155042
707,757.1258443310811
708,757.2640961546755
709,757.4008912996841
710,757.5361284203323
711,757.6697113871429
712,757.8015500765764
713,757.9315611016306
714,758.0596684752618
715,758.1858041991906
716,758.3099087721795
717,758.4319316139844
718,758.5518314035724
719,758.6695763325687
720,758.7851442769786
721,758.8985228919146
722,759.009709635427
723,759.1187117285209
724,759.2255460585657
725,759.3302390318639
726,759.4328263782601
727,759.533352907854
728,759.6318722187306
729,759.7284463553555
730,759.8231454190179
731,759.916047133597
732,760.0072363714387
733,760.0968046447443
734,760.1848495674354
735,760.2714742915269
736,760.3567869214194
737,760.4408999095291
738,760.5239294372723
739,760.6059947866729
740,760.6872177097874
741,760.7677218051064
742,760.8476319112028
743,760.9270735275089
744,761.0061722701847
745,761.0850533683056
746,761.16384120305
747,761.2426588909836
748,761.3216279119235
749,761.4008677815342
750,761.4804957680254
751,761.5606266510048
752,761.6413725189632
753,761.7228426001027
754,761.8051431194776
755,761.8883771745683
756,761.9726446220852
757,762.0580419708374
758,762.144662278123
759,762.2325950496081
760,762.3219261445597
761,762.4127376893699
762,762.5051080026525
763,762.5991115350892
764,762.6948188267992
765,762.7922964840886
766,762.891607175823
767,762.9928096479414
768,763.0959587537985
769,763.2011054983461
770,763.3082970949682
771,763.4175770342636
772,763.5289851640255
773,763.6425577792878
774,763.7583277205932
775,763.8763244773778
776,763.9965742917166
777,764.1191002564765
778,764.2439224018968
779,764.3710577655842
780,764.5005204422262
781,764.6323216105404
782,764.7664695360023
783,764.9029695488882
784,765.0418239983426
785,765.1830321845378
786,765.326590272036
787,765.4724911877405
788,765.6207245066198
789,765.7712763285108
790,765.924129150236
791,766.0792617388648
792,766.2366490135674
793,766.3962619444264
794,766.5580674763834
795,766.7220284851751
796,766.8881037697666
797,767.056248082806
798,767.2264121977884
799,767.3985430096807
800,767.5725836647855
801,767.748473715267
802,767.9261492938542
803,768.1055433048638
804,768.2865856286247
805,768.4692033371101
806,768.6533209187992
807,768.8388605107216
808,769.0257421356697
809,769.2138839430102
810,769.4032024523714
811,769.5936128003292
812,769.7850289906221
813,769.9773641483482
814,770.1705307783797
815,770.3644410280602
816,770.5590069540054
817,770.754140792555
818,770.9497552335687
819,771.1457636977182
820,771.3420806175043
821,771.538621721602
822,771.7353043213815
823,771.9320475981581
824,772.128772889709
825,772.3254039744097
826,772.5218673509657
827,772.7180925113272
828,772.914012203768
829,773.1095626819709
830,773.3046839345354
831,773.4993198882839
832,773.6934185785727
833,773.8869322805061
834,774.0798175961821
835,774.2720354943907
836,774.463551299984
837,774.6543346303021
838,774.8443592761421
839,775.0336030256801
840,775.2220474317047
841,775.4096775248754
842,775.5964814778197
843,775.7824502265469
844,775.967577057051
845,776.1518571660988
846,776.3352872058817
847,776.5178648223601
848,776.6995881969399
849,776.8804556007798
850,777.0604649704356
851,777.2396135126111
852,777.4178973446744
853,777.5953111763863
854,777.7718480366731
855,777.9474990473173
856,778.122253243778
857,778.296097442564
858,778.469016154261
859,778.6409915406496
860,778.812003413343
861,778.982029270868
862,779.1510443715397
863,779.3190218402309
864,779.4859328074153
865,779.6517465784813
866,779.8164308303345
867,779.979951830697
868,780.1422746734402
869,780.3033635213046
870,780.4631818460493
871,780.621692655936
872,780.7788587017178
873,780.9346426548403
874,781.089007255036
875,781.2419154284615
876,781.3933303814954
877,781.5432156785488
878,781.6915353138527
879,781.8382537866855
880,781.9833361874876
881,782.1267483001209
882,782.2684567241915
883,782.4084290207873
884,782.5466338846251
885,782.6830413450493
886,782.8176229974733
887,782.9503522656998
888,783.0812046942239
889,783.2101582683428
890,783.3371937588736
891,783.4622950873854
892,783.5854497069064
893,783.7066489920426
894,783.8258886317223
895,783.9431690177837
896,784.0584956231842
897,784.1718793640678
898,784.2833369398442
899,784.3928911448024
900,784.5005711438441
901,784.6064127041286
902,784.7104583742943
903,784.8127576037369
904,784.9133667959787
905,785.0123492919558
906,785.1097752807143
907,785.20572163657
908,785.3002716834243
909,785.3935148886609
910,785.4855464906387
911,785.5764670650296
912,785.6663820362131
913,785.7554011407406
914,785.8436378503852
915,785.9312087622706
916,786.0182329630319
917,786.104831373102
