frame_number,force
0,702.0406666600473
1,702.0610993491084
2,702.0806324945413
3,702.0991864626119
4,702.1166790780933
5,702.1330260999279
6,702.1481417530823
7,702.1619393105311
8,702.1743317182243
9,702.1852322552556
10,702.1945552219365
11,702.2022166496022
12,702.2081350262345
13,702.2122320303533
14,702.2144332627346
15,702.214668963215
16,702.2128746997304
17,702.2089920188866
18,702.2029690503489
19,702.1947610594432
20,702.1843309431341
21,702.1716496648017
22,702.1566966238477
23,702.1394599572138
24,702.1199367711714
25,702.0981333029679
26,702.0740650127656
27,702.0477566065235
28,702.0192419903011
29,701.988564156434
30,701.9557750024595
31,701.9209350844674
32,701.8841133077183
33,701.8453865591063
34,701.8048392882008
35,701.7625630454659
36,701.7186559869865
37,701.6732223542696
38,701.6263719358778
39,701.5782195158612
40,701.5288843127524
41,701.4784894119016
42,701.4271611926592
43,701.3750287508016
44,701.322223316426
45,701.2688776684076
46,701.2151255475836
47,701.1611010714371
48,701.1069381532267
49,701.052769928649
50,700.9987281932983
51,700.9449428541893
52,700.8915413983925
53,700.8386483815246
54,700.7863849384381
55,700.7348683180186
56,700.6842114439424
57,700.6345225041146
58,700.5859045732802
59,700.5384552751747
60,700.4922664914151
61,700.4474241234593
62,700.4040079115633
63,700.3620913116478
64,700.3217414282735
65,700.283019000049
66,700.2459784328506
67,700.2106678760467
68,700.1771293370223
69,700.1453988292784
70,700.1155065492688
71,700.0874770775258
72,700.0613296009167
73,700.0370781547334
74,700.0147318848376
75,699.9942953304435
76,699.9757687272391
77,699.9591483290754
78,699.944426745168
79,699.9315932890489
80,699.9206343354042
81,699.9115336812191
82,699.9042729078707
83,699.8988317404733
84,699.8951884000365
85,699.8933199435091
86,699.8932025868073
87,699.8948120059351
88,699.8981236109408
89,699.9031127869517
90,699.9097550961199
91,699.9180264341361
92,699.9279031355777
93,699.9393620244249
94,699.9523804092862
95,699.9669360257233
96,699.9830069294443
97,700.0005713443627
98,700.0196074694677
99,700.0400932484773
100,700.0620061063509
101,700.0853226569532
102,700.1100183864941
103,700.1360673178901
104,700.1634416620384
105,700.1921114631797
106,700.2220442468673
107,700.2532046801366
108,700.2855542537494
109,700.3190509956747
110,700.3536492238002
111,700.3892993448496
112,700.4259477055463
113,700.4635365008165
114,700.5020037424596
115,700.5412832908357
116,700.5813049517684
117,700.6219946400571
118,700.6632746089782
119,700.7050637423031
120,700.7472779029235
121,700.7898303310607
122,700.8326320852392
123,700.8755925200886
124,700.9186197957022
125,700.9616214129568
126,701.0045047678348
127,701.0471777163432
128,701.0895491411071
129,701.1315295112462
130,701.1730314282503
131,701.213970151848
132,701.2542641010965
133,701.293835326862
134,701.3326099523887
135,701.3705185790011
136,701.4074966543659
137,701.4434848009213
138,701.4784291017471
139,701.5122813406443
140,701.5449991934557
141,701.5765463692794
142,701.6068927027385
143,701.6360142008152
144,701.6638930491281
145,701.6905175826691
146,701.715882225103
147,701.73998739927
148,701.7628394101484
149,701.7844503007381
150,701.804837681172
151,701.8240245310462
152,701.8420389736771
153,701.8589140192295
154,701.8746872728916
155,701.889400605295
156,701.903099784502
157,701.9158340708851
158,701.9276557776298
159,701.9386198007184
160,701.9487831233702
161,701.958204300869
162,701.9669429322888
163,701.975059125826
164,701.9826129643222
165,701.9896639770303
166,701.9962706227152
167,702.0024897880367
168,702.0083763042771
169,702.0139824852366
170,702.0193576894933
171,702.0245479107936
172,702.0295954004994
173,702.0345383254581
174,702.0394104637257
175,702.0442409400456
176,702.0490540031318
177,702.0538688470638
178,702.0586994788905
179,702.0635546340333
180,702.0684377407267
181,702.0733469344729
182,702.0782751227814
183,702.0832100992848
184,702.088134705392
185,702.093027037568
186,702.0978606984429
187,702.1026050890705
188,702.1072257377253
189,702.1116846589904
190,702.1159407366596
191,702.1199501248749
192,702.1236666628643
193,702.127042298885
194,702.1300275186123
195,702.1325717730576
196,702.1346239018776
197,702.1361325495955
198,702.1370465741009
199,702.1373154480967
200,702.1368896545994
201,702.135721077236
202,702.1337633851008
203,702.130972410528
204,702.1273065166683
205,702.1227269508181
206,702.1171981796084
207,702.1106882034858
208,702.1031688498638
209,702.0946160460335
210,702.0850100736366
211,702.0743358060764
212,702.0625829291791
213,702.0497461444616
214,702.0358253540619
215,702.0208258267585
216,702.004758344878
217,701.9876393313887
218,701.9694909549834
219,701.95034120935
220,701.9302239621169
221,701.9091789694862
222,701.8872518538504
223,701.8644940430991
224,701.8409626717636
225,701.8167204458467
226,701.791835474834
227,701.766381075104
228,701.7404355482264
229,701.7140819358868
230,701.6874077513544
231,701.6605046863054
232,701.6334682917274
233,701.6063976320355
234,701.5793949116743
235,701.5525650732119
236,701.5260153659814
237,701.4998548852844
238,701.4741940838661
239,701.4491442590281
240,701.4248170199082
241,701.4013237401822
242,701.3787750018097
243,701.3572800352554
244,701.3369461607881
245,701.3178782343587
246,701.3001781006691
247,701.2839440554977
248,701.2692703188435
249,701.2562465197202
250,701.2449571926994
251,701.2354812862401
252,701.227891683844
253,701.2222547405878
254,701.218629838498
255,701.2170689639938
256,701.2176163097104
257,701.2203079022721
258,701.2251712574073
259,701.2322250640299
260,701.2414788993134
261,701.2529329772959
262,701.2665779342132
263,701.2823946544653
264,701.3003541416598
265,701.3204174392554
266,701.3425356048185
267,701.3666497410667
268,701.3926910863274
269,701.4205811670228
270,701.4502320147859
271,701.4815464502974
272,701.5144184349774
273,701.548733490537
274,701.5843691849868
275,701.6211956819826
276,701.6590763486942
277,701.6978684162445
278,701.7374236864608
279,701.7775892790014
280,701.8182084131495
281,701.8591212181697
282,701.9001655654735
283,701.9411779156626
284,701.9819941740053
285,702.0224505486514
286,702.0623844064738
287,702.1016351216587
288,702.1400449119949
289,702.1774596573647
290,702.2137296946225
291,702.2487105834621
292,702.2822638392171
293,702.3142576303973
294,702.344567440313
295,702.3730766928386
296,702.3996773421516
297,702.4242704254593
298,702.4467665765162
299,702.4670864959625
300,702.485161372008
301,702.5009332424111
302,702.5143552875018
303,702.5253920450182
304,702.5340195402642
305,702.5402253284411
306,702.5440084490593
307,702.5453792946328
308,702.544359397304
309,702.540981137909
310,702.5352873826155
311,702.5273310529496
312,702.5171746359413
313,702.5048896423293
314,702.4905560218195
315,702.4742615445209
316,702.456101156693
317,702.4361763176244
318,702.4145943239672
319,702.3914676284177
320,702.3669131604092
321,702.341051656547
322,702.314007007736
323,702.2859056286954
324,702.2568758541084
325,702.2270473643914
326,702.1965506433626
327,702.1655164697813
328,702.1340754441412
329,702.102357550938
330,702.0704917553521
331,702.0386056325754
332,702.0068250281415
333,701.9752737482075
334,701.9440732788992
335,701.9133425329087
336,701.8831976198579
337,701.8537516357235
338,701.8251144666357
339,701.7973926032262
340,701.7706889626411
341,701.7451027160339
342,701.7207291199519
343,701.6976593508833
344,701.6759803436603
345,701.6557746362469
346,701.6371202249238
347,701.6200904341129
348,701.6047538036956
349,701.5911739942019
350,701.5794097079546
351,701.5695146231964
352,701.5615373383228
353,701.5555213239335
354,701.5515048810943
355,701.5495211049225
356,701.5495978532795
357,701.5517577208021
358,701.5560180186797
359,701.5623907604594
360,701.5708826536724
361,701.5814950961496
362,701.5942241748662
363,701.6090606646518
364,701.625990024577
365,701.6449923909234
366,701.6660425665832
367,701.6891100070629
368,701.7141588030915
369,701.7411476593745
370,701.7700298685336
371,701.8007532793056
372,701.8332602593044
373,701.8674876548216
374,701.9033667521264
375,701.9408232457957
376,701.9797772202131
377,702.0201431512393
378,702.0618299359484
379,702.1047409583699
380,702.148774198016
381,702.1938223860915
382,702.2397732123366
383,702.2865095838555
384,702.3339099361039
385,702.3818485951816
386,702.4301961894728
387,702.4788201073892
388,702.5275849962682
389,702.5763532951266
390,702.6249857914426
391,702.673342190456
392,702.7212816853795
393,702.76866351835
394,702.8153475246078
395,702.8611946556925
396,702.906067480384
397,702.9498306637058
398,702.9923514244007
399,703.0334999704536
400,703.073149911279
401,703.1111786449572
402,703.1474677199365
403,703.181903172384
404,703.214375841656
405,703.2447816664212
406,703.2730219632109
407,703.2990036884082
408,703.3226396843197
409,703.34384890965
410,703.3625566539355
411,703.3786947341713
412,703.3922016703173
413,703.4030228351767
414,703.4111105739929
415,703.4164242904088
416,703.4189304977283
417,703.4186028365616
418,703.4154220611048
419,703.409375996656
420,703.4004594711066
421,703.3886742233144
422,703.3740287914627
423,703.3565383847316
424,703.3362247417022
425,703.3131159786897
426,703.2872464309248
427,703.2586564897036
428,703.2273924391957
429,703.1935062966817
430,703.1570556590709
431,703.1181035569808
432,703.0767183158497
433,703.0329734214632
434,702.9869473850558
435,702.938723601649
436,702.8883901952722
437,702.8360398459912
438,702.7817695952621
439,702.7256806271707
440,702.6678780235069
441,702.608470490853
442,702.5475700584088
443,702.4852917461518
444,702.4217532037737
445,702.357074321333
446,702.2913768128755
447,702.2247837747777
448,702.1574192213621
449,702.0894076011973
450,702.0208732982697
451,701.9519401229148
452,701.8827307978795
453,701.8133664446332
454,701.7439660738526
455,701.6746460826236
456,701.6055197603446
457,701.5366968057502
458,701.4682828582655
459,701.4003790474188
460,701.3330815640311
461,701.2664812563834
462,701.2006632538411
463,701.1357066199546
464,701.07168403716
465,701.0086615258024
466,700.9466982012742
467,700.885846074772
468,700.8261499051636
469,700.7676471104398
470,700.710367746096
471,700.6543345548735
472,700.5995630888643
473,700.5460619019419
474,700.4938328080414
475,700.4428711990453
476,700.3931664151016
477,700.3447021599558
478,700.297456953617
479,700.2514046138774
480,700.2065147573335
481,700.162753310705
482,700.1200830246635
483,700.0784639841006
484,700.0378541096613
485,699.9982096452726
486,699.9594856259479
487,699.9216363198566
488,699.8846156387938
489,699.848377511976
490,699.8128762194706
491,699.7780666831653
492,699.7439047147407
493,699.7103472217022
494,699.6773523741672
495,699.6448797365279
496,699.6128903691235
497,699.5813469055397
498,699.5502136110357
499,699.5194564269846
500,699.4890430056201
501,699.4589427393539
502,699.4291267893291
503,699.3995681181293
504,699.3702415312625
505,699.341123731144
506,699.3121933857495
507,699.2834312119
508,699.2548200706526
509,699.2263450703149
510,699.1979936718693
511,699.1697557921822
512,699.1416239016185
513,699.113593113606
514,699.0856612636585
515,699.0578289744784
516,699.0300997027036
517,699.0024797623391
518,698.974978320319
519,698.9476073609437
520,698.9203816179063
521,698.8933184750194
522,698.8664378393385
523,698.8397619926972
524,698.8133154292
525,698.7871246866656
526,698.761218179395
527,698.7356260381421
528,698.7103799612908
529,698.6855130794369
530,698.6610598338958
531,698.6370558680078
532,698.6135379286402
533,698.5905437741974
534,698.5681120847796
535,698.5462823697833
536,698.5250948682109
537,698.5045904375822
538,698.4848104288552
539,698.4657965467469
540,698.4475906963473
541,698.4302348173238
542,698.4137707064957
543,698.3982398287961
544,698.3836831161324
545,698.3701407536236
546,698.3576519532713
547,698.3462547161988
548,698.335985585601
549,698.3268793929734
550,698.3189690001897
551,698.3122850400823
552,698.3068556583444
553,698.3027062592042
554,698.2998592562229
555,698.2983338283123
556,698.2981456804297
557,698.2993068086921
558,698.3018252707012
559,698.3057049630974
560,698.3109454089933
561,698.3175415577086
562,698.3254835985996
563,698.3347567905575
564,698.3453413095
565,698.3572121177575
566,698.3703388607008
567,698.3846857963089
568,698.4002117627084
569,698.41687018786
570,698.4346091450658
571,698.4533714576698
572,698.4730948559173
573,698.4937121885454
574,698.5151516915687
575,698.5373373167664
576,698.5601891219429
577,698.5836237235103
578,698.6075548093903
579,698.6318937075117
580,698.6565500029768
581,698.6814321953078
582,698.7064483858347
583,698.7315069842703
584,698.7565174230327
585,698.7813908680608
586,698.8060409155909
587,698.8303842652139
588,698.8543413601689
589,698.8778369864574
590,698.9008008235168
591,698.9231679410427
592,698.9448792384886
593,698.9658818249623
594,698.9861293376375
595,699.0055821970955
596,699.02420779875
597,699.0419806405881
598,699.0588823884266
599,699.0749018805183
600,699.090035073568
601,699.1042849321766
602,699.1176612638244
603,699.1301805021834
604,699.1418654427633
605,699.1527449360029
606,699.1628535434721
607,699.1722311628961
608,699.180922627483
609,699.1889772847642
610,699.1964485599646
611,699.2033935087569
612,699.2098723639256
613,699.2159480799884
614,699.2216858792214
615,699.2271528016822
616,699.2324172608519
617,699.2375486059499
618,699.2426166921227
619,699.2476914599664
620,699.2528425252978
621,699.2581387785201
622,699.2636479911988
623,699.2694364269249
624,699.2755684548372
625,699.2821061665722
626,699.2891089995684
627,699.2966333707653
628,699.3047323249248
629,699.3134552015481
630,699.322847324054
631,699.3329497145497
632,699.3437988370702
633,699.3554263713874
634,699.367859018363
635,699.3811183366086
636,699.395220609514
637,699.4101767418921
638,699.4259921863008
639,699.4426668999242
640,699.4601953333615
641,699.4785664530377
642,699.4977637995953
643,699.5177655855147
644,699.5385448358425
645,699.5600695759346
646,699.5823030695577
647,699.605204109554
648,699.6287273615774
649,699.6528237594796
650,699.6774409493536
651,699.7025237785144
652,699.7280148260265
653,699.7538549726054
654,699.7799840091837
655,699.8063412839944
656,699.8328663866921
657,699.8594998647474
658,699.8861839631155
659,699.9128633745795
660,699.9394859863579
661,699.9660036085991
662,699.9923726711555
663,700.0185548754826
664,700.0445177887916
665,700.0702353687279
666,700.0956884091926
667,700.1208649007665
668,700.1457603018065
669,700.1703777187099
670,700.1947279964089
671,700.2188297228969
672,700.2427091541628
673,700.2664000676217
674,700.2899435523655
675,700.3133877433318
676,700.3367875045338
677,700.3602040647175
678,700.3837046079166
679,700.4073618216003
680,700.4312534062091
681,700.455461551246
682,700.4800723839619
683,700.505175396307
684,700.5308628538938
685,700.5572291877977
686,700.5843703674899
687,700.6123832522309
688,700.6413649189312
689,700.6714119661037
690,700.7026197954651
691,700.7350818747365
692,700.7688889869694
693,700.8041284728567
694,700.8408834727214
695,700.8792321746172
696,700.9192470751154
697,700.9609942602889
698,701.0045327154805
699,701.0499136727644
700,701.0971800043824
701,701.1463656693487
702,701.1974952194304
703,701.2505833702063
704,701.3056346427835
705,701.3626430814344
706,701.4215920514229
707,701.4824541197631
708,701.5451910202365
709,701.6097537029938
710,701.6760824680656
711,701.7441071807324
712,701.8137475653687
713,701.8849135736745
714,701.9575058230678
715,702.0314161009031
716,702.106527929825
717,702.1827171890997
718,702.2598527865888
719,702.3377973765153
720,702.416408119236
721,702.4955374801912
722,702.5750340652336
723,702.6547434884016
724,702.7345092663427
725,702.8141737319397
726,702.8935789586791
727,702.9725676865021
728,703.0509842386986
729,703.12867541821
730,703.205491371429
731,703.2812864084244
732,703.3559197697443
733,703.4292563308745
734,703.5011672361029
735,703.5715304544963
736,703.6402312524272
737,703.707162579565
738,703.7722253678294
739,703.8353287449211
740,703.8963901656304
741,703.9553354653523
742,704.0120988411169
743,704.0666227659909
744,704.1188578429744
745,704.1687626043879
746,704.21630326205
747,704.2614534125083
748,704.3041937008526
749,704.3445114466331
750,704.3824002359621
751,704.4178594844524
752,704.4508939759868
753,704.4815133827258
754,704.5097317726385
755,704.5355671120485
756,704.5590407715795
757,704.5801770438377
758,704.5990026800906
759,704.6155464514717
760,704.629838738261
761,704.6419111489353
762,704.6517961695384
763,704.6595268439579
764,704.6651364867263
765,704.6686584312429
766,704.6701258168669
767,704.6695714176562
768,704.6670275138993
769,704.6625258057715
770,704.6560973671205
771,704.647772636821
772,704.6375814450494
773,704.6255530715849
774,704.6117163326195
775,704.5960996920481
776,704.5787313932917
777,704.5596396083712
778,704.5388526018504
779,704.5163989079015
780,704.492307518671
781,704.4666080813356
782,704.4393311003805
783,704.4105081412968
784,704.3801720319902
785,704.3483570584349
786,704.3150991514046
787,704.2804360615469
788,704.2444075206444
789,704.2070553876099
790,704.1684237784085
791,704.128559179473
792,704.0875105441285
793,704.0453293710817
794,704.0020697633614
795,703.9577884656375
796,703.9125448780051
797,703.8664010450233
798,703.8194216194946
799,703.7716738007392
800,703.7232272470554
801,703.6741539620157
802,703.624528154435
803,703.5744260722637
804,703.5239258111512
805,703.4731070988098
806,703.4220510564413
807,703.3708399382632
808,703.3195568496831
809,703.2682854444284
810,703.2171096015226
811,703.1661130844304
812,703.1153791862831
813,703.064990366031
814,703.0150278804509
815,702.9655714164732
816,702.9166987275273
817,702.8684852764821
818,702.8210038863201
819,702.77432439829
820,702.7285133364587
821,702.6836335778609
822,702.639744028764
823,702.5968993088985
824,702.5551494458153
825,702.5145395809561
826,702.4751096886179
827,702.4368943095898
828,702.3999223026792
829,702.3642166186836
830,702.3297941018927
831,702.2966653240404
832,702.2648344551857
833,702.2342991754502
834,702.2050506309322
835,702.1770734365876
836,702.1503457283989
837,702.1248392664692
838,702.1005195896017
839,702.0773462205237
840,702.0552729196733
841,702.0342479848684
842,702.0142145942617
843,701.9951111903204
844,701.9768719027242
845,701.9594270078354
846,701.9427034216922
847,701.9266252224352
848,701.9111141970252
849,701.8960904062541
850,701.8814727614313
851,701.8671796058229
852,701.8531292939716
853,701.83924076213
854,701.8254340828582
855,701.8116309966307
856,701.7977554137888
857,701.7837338815257
858,701.7694960121295
859,701.7549748697396
860,701.7401073132364
861,701.7248342930264
862,701.7091011001404
863,701.6928575676641
864,701.6760582268521
865,701.6586624227591
866,701.6406343963124
867,701.621943340894
868,701.6025634411862
869,701.5824739001763
870,701.5616589574524
871,701.5401078993276
872,701.517815059753
873,701.4947798107693
874,701.4710065421813
875,701.4465046316774
876,701.4212884080182
877,701.3953771106168
878,701.3687948487386
879,701.3415705629433
880,701.3137379902134
881,701.2853356320546
882,701.2564067219263
883,701.2269991858808
884,701.1971655893042
885,701.1669630630441
886,701.1364532031052
887,701.1057019387704
888,701.074779364344
889,701.0437595300773
890,701.0127201886058
891,700.9817424944167
892,700.9509106552847
893,700.9203115363027
894,700.8900342191
895,700.8601695207174
896,700.830809477878
897,700.8020468028993
898,700.7739743174786
899,700.7466843703301
900,700.7202682443195
901,700.6948155585151
902,700.6704136705846
903,700.6471470851691
904,700.6250968740779
905,700.6043401143161
906,700.5849493500224
907,700.5669920842683
908,700.5505303062472
909,700.5356200586468
910,700.5223110487909
911,700.5106463053844
912,700.5006618808684
913,700.4923865982486
914,700.4858418410561
915,700.4810413854084
916,700.4779912734513
917,700.4766897277077
