frame_number,force
0,702.0406666648801
1,702.0610993539639
2,702.0806324994204
3,702.0991864675149
4,702.1166790830202
5,702.1330261048789
6,702.1481417580578
7,702.161939315531
8,702.1743317232474
9,702.1852322603002
10,702.1945552269997
11,702.2022166546802
12,702.2081350313233
13,702.2122320354483
14,702.2144332678307
15,702.214668968307
16,702.2128747048123
17,702.2089920239524
18,702.2029690553925
19,702.1947610644588
20,702.1843309481163
21,702.1716496697455
22,702.1566966287486
23,702.139459962068
24,702.1199367759752
25,702.0981333077182
26,702.0740650174598
27,702.0477566111598
28,702.0192419948785
29,701.9885641609523
30,701.9557750069192
31,701.9209350888698
32,701.8841133120651
33,701.8453865633999
34,701.8048392924444
35,701.7625630496634
36,701.7186559911424
37,701.6732223583889
38,701.6263719399659
39,701.5782195199241
40,701.5288843167973
41,701.4784894159363
42,701.4271611966922
43,701.3750287548405
44,701.3222233204784
45,701.2688776724807
46,701.215125551684
47,701.1611010755707
48,701.106938157399
49,701.052769932865
50,700.9987281975627
51,700.944942858507
52,700.8915414027683
53,700.8386483859634
54,700.7863849429447
55,700.7348683225969
56,700.6842114485959
57,700.634522508846
58,700.5859045780917
59,700.5384552800674
60,700.4922664963893
61,700.4474241285144
62,700.404007916698
63,700.3620913168601
64,700.3217414335612
65,700.2830190054094
66,700.2459784382808
67,700.2106678815435
68,700.1771293425824
69,700.1453988348983
70,700.115506554945
71,700.0874770832552
72,700.0613296066963
73,700.03707816056
74,700.0147318907074
75,699.9942953363521
76,699.9757687331819
77,699.959148335047
78,699.9444267511625
79,699.93159329506
80,699.9206343414254
81,699.9115336872436
82,699.9042729138918
83,699.8988317464843
84,699.8951884060313
85,699.893319949481
86,699.8932025927496
87,699.8948120118413
88,699.8981236168041
89,699.9031127927652
90,699.9097551018765
91,699.9180264398285
92,699.9279031411983
93,699.9393620299661
94,699.9523804147408
95,699.9669360310841
96,699.9830069347041
97,700.0005713495142
98,700.0196074745036
99,700.0400932533902
100,700.0620061111333
101,700.0853226615976
102,700.1100183909933
103,700.1360673222375
104,700.1634416662278
105,700.1921114672057
106,700.222044250725
107,700.2532046838217
108,700.2855542572581
109,700.3190509990044
110,700.3536492269494
111,700.3892993478183
112,700.4259477083355
113,700.4635365034287
114,700.5020037448988
115,700.5412832931077
116,700.5813049538799
117,700.6219946420165
118,700.6632746107952
119,700.705063743988
120,700.7472779044874
121,700.7898303325152
122,700.8326320865968
123,700.875592521363
124,700.9186197969078
125,700.9616214141084
126,701.004504768947
127,701.0471777174308
128,701.0895491421859
129,701.1315295123323
130,701.1730314293603
131,701.213970152998
132,701.2542641023015
133,701.2938353281364
134,701.332609953746
135,701.3705185804538
136,701.4074966559258
137,701.4434848025994
138,701.4784291035535
139,701.5122813425877
140,701.5449991955438
141,701.5765463715186
142,701.606892705134
143,701.636014203371
144,701.6638930518473
145,701.690517585554
146,701.7158822281552
147,701.7399874024908
148,701.7628394135377
149,701.7844503042949
150,701.8048376848944
151,701.8240245349313
152,701.84203897772
153,701.8589140234238
154,701.8746872772291
155,701.8894006097653
156,701.9030997890931
157,701.9158340755835
158,701.9276557824207
159,701.9386198055863
160,701.9487831282985
161,701.9582043058407
162,701.9669429372861
163,701.9750591308309
164,701.9826129693165
165,701.9896639819959
166,701.9962706276345
167,702.0024897928924
168,702.0083763090523
169,702.0139824899148
170,702.0193576940586
171,702.0245479152309
172,702.0295954047949
173,702.0345383295997
174,702.0394104677032
175,702.0442409438504
176,702.0490540067573
177,702.0538688505053
178,702.058699482145
179,702.0635546370991
180,702.0684377436031
181,702.07334693716
182,702.07827512528
183,702.0832101015967
184,702.0881347075201
185,702.0930270395162
186,702.0978607002163
187,702.1026050906755
188,702.1072257391694
189,702.1116846602819
190,702.115940737808
191,702.1199501258908
192,702.1236666637595
193,702.127042299673
194,702.1300275193074
195,702.132571773675
196,702.134623902433
197,702.1361325501049
198,702.1370465745806
199,702.1373154485631
200,702.1368896550684
201,702.1357210777234
202,702.1337633856211
203,702.1309724110952
204,702.1273065172957
205,702.1227269515181
206,702.1171981803926
207,702.1106882043647
208,702.1031688508473
209,702.0946160471307
210,702.0850100748557
211,702.074335807425
212,702.0625829306634
213,702.0497461460877
214,702.0358253558354
215,702.0208258286842
216,702.0047583469603
217,701.9876393336313
218,701.9694909573893
219,701.9503412119223
220,701.9302239648576
221,701.9091789723967
222,701.8872518569312
223,701.8644940463502
224,701.8409626751843
225,701.8167204494351
226,701.7918354785864
227,701.7663810790154
228,701.7404355522903
229,701.7140819400956
230,701.6874077556995
231,701.6605046907773
232,701.6334682963158
233,701.6063976367301
234,701.5793949164645
235,701.5525650780872
236,701.5260153709319
237,701.4998548903002
238,701.4741940889372
239,701.4491442641446
240,701.4248170250598
241,701.4013237453589
242,701.3787750070019
243,701.3572800404535
244,701.3369461659827
245,701.3178782395407
246,701.3001781058302
247,701.2839440606307
248,701.2692703239422
249,701.25624652478
250,701.2449571977161
251,701.2354812912104
252,701.2278916887656
253,701.2222547454597
254,701.2186298433204
255,701.2170689687675
256,701.2176163144371
257,701.2203079069537
258,701.2251712620453
259,701.2322250686257
260,701.241478903868
261,701.2529329818095
262,701.2665779386855
263,701.2823946588964
264,701.3003541460494
265,701.3204174436029
266,701.3425356091236
267,701.3666497453289
268,701.3926910905465
269,701.4205811711987
270,701.4502320189189
271,701.4815464543874
272,701.5144184390242
273,701.5487334945404
274,701.5843691889471
275,701.6211956858999
276,701.6590763525688
277,701.6978684200775
278,701.7374236902536
279,701.7775892827564
280,701.8182084168697
281,701.859121221859
282,701.9001655691364
283,701.9411779193035
284,701.9819941776286
285,702.0224505522615
286,702.0623844100743
287,702.1016351252522
288,702.1400449155835
289,702.1774596609503
290,702.2137296982066
291,702.2487105870459
292,702.2822638428019
293,702.3142576339837
294,702.3445674439013
295,702.3730766964288
296,702.3996773457444
297,702.4242704290558
298,702.4467665801179
299,702.4670864995712
300,702.4851613756265
301,702.5009332460427
302,702.51435529115
303,702.5253920486864
304,702.534019543956
305,702.5402253321596
306,702.5440084528075
307,702.5453792984135
308,702.5443594011203
309,702.5409811417637
310,702.5352873865119
311,702.5273310568908
312,702.51717463993
313,702.504889646368
314,702.4905560259101
315,702.4742615486646
316,702.4561011608902
317,702.4361763218749
318,702.4145943282704
319,702.3914676327723
320,702.3669131648136
321,702.3410516609982
322,702.3140070122305
323,702.2859056332293
324,702.2568758586774
325,702.2270473689912
326,702.1965506479885
327,702.1655164744284
328,702.1340754488036
329,702.1023575556094
330,702.0704917600261
331,702.0386056372455
332,702.0068250328013
333,701.9752737528504
334,701.9440732835186
335,701.9133425374987
336,701.8831976244129
337,701.8537516402386
338,701.8251144711066
339,701.797392607649
340,701.7706889670119
341,701.7451027203487
342,701.7207291242067
343,701.697659355075
344,701.6759803477858
345,701.6557746403037
346,701.63712022891
347,701.6200904380275
348,701.6047538075389
349,701.5911739979749
350,701.5794097116592
351,701.569514626835
352,701.5615373418991
353,701.5555213274521
354,701.5515048845602
355,701.5495211083414
356,701.5495978566565
357,701.5517577241417
358,701.556018021985
359,701.5623907637331
360,701.5708826569164
361,701.5814950993649
362,701.5942241780526
363,701.6090606678077
364,701.6259900276999
365,701.6449923940098
366,701.6660425696293
367,701.689110010065
368,701.7141588060455
369,701.7411476622763
370,701.7700298713789
371,701.8007532820909
372,701.8332602620269
373,701.8674876574794
374,701.9033667547187
375,701.9408232483227
376,701.9797772226758
377,702.0201431536394
378,702.0618299382888
379,702.1047409606543
380,702.1487742002488
381,702.1938223882782
382,702.239773214483
383,702.2865095859669
384,702.3339099381859
385,702.3818485972405
386,702.4301961915147
387,702.4788201094203
388,702.5275849982942
389,702.5763532971532
390,702.6249857934753
391,702.6733421925002
392,702.7212816874403
393,702.7686635204325
394,702.8153475267171
395,702.8611946578342
396,702.9060674825632
397,702.9498306659277
398,702.99235142667
399,703.0334999727747
400,703.0731499136564
401,703.1111786473956
402,703.1474677224401
403,703.1819031749569
404,703.2143758443019
405,703.2447816691435
406,703.2730219660125
407,703.2990036912917
408,703.3226396872875
409,703.3438489127045
410,703.3625566570792
411,703.3786947374069
412,703.3922016736482
413,703.403022838606
414,703.411110577524
415,703.4164242940451
416,703.418930501473
417,703.4186028404177
418,703.4154220650745
419,703.4093760007404
420,703.400459475306
421,703.3886742276287
422,703.3740287958916
423,703.3565383892742
424,703.3362247463572
425,703.3131159834554
426,703.2872464357986
427,703.258656494682
428,703.2273924442743
429,703.1935063018553
430,703.1570556643335
431,703.1181035623251
432,703.0767183212678
433,703.0329734269461
434,702.9869473905932
435,702.9387236072295
436,702.8883902008837
437,702.836039851621
438,702.7817696008973
439,702.7256806327982
440,702.6678780291134
441,702.6084704964253
442,702.5475700639338
443,702.4852917516165
444,702.421753209166
445,702.3570743266423
446,702.2913768180925
447,702.2247837798948
448,702.1574192263726
449,702.0894076060961
450,702.0208733030533
451,701.9519401275811
452,701.8827308024275
453,701.8133664490633
454,701.7439660781663
455,701.6746460868233
456,701.6055197644333
457,701.536696809732
458,701.4682828621447
459,701.4003790512002
460,701.3330815677191
461,701.2664812599828
462,701.2006632573567
463,701.1357066233916
464,701.0716840405245
465,701.0086615291018
466,700.9466982045172
467,700.8858460779683
468,700.8261499083234
469,700.7676471135742
470,700.7103677492163
471,700.6543345579911
472,700.5995630919907
473,700.5460619050879
474,700.4938328112167
475,700.4428712022589
476,700.3931664183607
477,700.344702163266
478,700.2974569569832
479,700.2514046173036
480,700.206514760823
481,700.1627533142607
482,700.1200830282877
483,700.0784639877959
484,700.0378541134301
485,699.9982096491168
486,699.9594856298687
487,699.9216363238542
488,699.8846156428671
489,699.8483775161229
490,699.812876223688
491,699.7780666874494
492,699.7439047190861
493,699.7103472261027
494,699.6773523786155
495,699.6448797410166
496,699.612890373645
497,699.5813469100863
498,699.5502136155997
499,699.5194564315578
500,699.4890430101947
501,699.4589427439217
502,699.4291267938819
503,699.3995681226588
504,699.3702415357603
505,699.3411237356024
506,699.3121933901618
507,699.2834312162599
508,699.2548200749542
509,699.2263450745523
510,699.1979936760372
511,699.1697557962751
512,699.1416239056313
513,699.1135931175339
514,699.0856612674972
515,699.0578289782248
516,699.0300997063553
517,699.0024797658947
518,698.974978323778
519,698.9476073643067
520,698.9203816211744
521,698.8933184781944
522,698.866437842422
523,698.8397619956917
524,698.8133154321084
525,698.7871246894916
526,698.761218182143
527,698.7356260408175
528,698.7103799638996
529,698.6855130819861
530,698.6610598363934
531,698.6370558704627
532,698.6135379310624
533,698.5905437765975
534,698.5681120871689
535,698.5462823721725
536,698.5250948706104
537,698.5045904400014
538,698.4848104313024
539,698.4657965492297
540,698.4475906988724
541,698.4302348198971
542,698.413770709122
543,698.3982398314797
544,698.3836831188773
545,698.3701407564341
546,698.3576519561512
547,698.3462547191517
548,698.3359855886297
549,698.3268793960794
550,698.3189690033732
551,698.3122850433427
552,698.3068556616801
553,698.3027062626127
554,698.2998592597005
555,698.2983338318546
556,698.2981456840322
557,698.2993068123495
558,698.301825274408
559,698.3057049668479
560,698.3109454127821
561,698.3175415615301
562,698.3254836024487
563,698.3347567944298
564,698.3453413133917
565,698.3572121216654
566,698.370338864622
567,698.384685800241
568,698.4002117666494
569,698.4168701918076
570,698.4346091490174
571,698.453371461623
572,698.4730948598685
573,698.4937121924908
574,698.5151516955036
575,698.5373373206854
576,698.5601891258399
577,698.5836237273783
578,698.607554813222
579,698.6318937113
580,698.6565500067143
581,698.681432198987
582,698.706448389448
583,698.7315069878102
584,698.7565174264922
585,698.7813908714335
586,698.8060409188711
587,698.8303842683965
588,698.8543413632497
589,698.8778369894327
590,698.9008008263835
591,698.9231679437988
592,698.9448792411334
593,698.965881827496
594,698.9861293400612
595,699.005582199411
596,699.0242078009604
597,699.0419806426971
598,699.0588823904384
599,699.0749018824375
600,699.0900350753997
601,699.1042849339267
602,699.1176612654995
603,699.1301805037906
604,699.1418654443103
605,699.1527449374977
606,699.1628535449229
607,699.1722311643116
608,699.1809226288725
609,699.1889772861374
610,699.1964485613315
611,699.203393510128
612,699.2098723653114
613,699.2159480814001
614,699.2216858806701
615,699.227152803179
616,699.2324172624078
617,699.2375486075755
618,699.242616693828
619,699.2476914617602
620,699.2528425271869
621,699.2581387805102
622,699.2636479932943
623,699.2694364291297
624,699.2755684571541
625,699.2821061690036
626,699.2891090021153
627,699.2966333734279
628,699.3047323277021
629,699.313455204439
630,699.3228473270568
631,699.3329497176627
632,699.3437988402917
633,699.3554263747156
634,699.3678590217962
635,699.3811183401446
636,699.3952206131497
637,699.410176745624
638,699.4259921901247
639,699.4426669038352
640,699.4601953373541
641,699.4785664571062
642,699.4977638037336
643,699.5177655897161
644,699.5385448400997
645,699.5600695802395
646,699.5823030739016
647,699.6052041139275
648,699.628727365971
649,699.6528237638842
650,699.6774409537596
651,699.7025237829125
652,699.7280148304071
653,699.7538549769588
654,699.7799840135003
655,699.8063412882649
656,699.8328663909081
657,699.8594998689011
658,699.8861839672003
659,699.9128633785892
660,699.9394859902877
661,699.9660036124455
662,699.9923726749164
663,700.0185548791566
664,700.0445177923788
665,700.0702353722296
666,700.0956884126111
667,700.120864904105
668,700.1457603050682
669,700.1703777218981
670,700.1947279995272
671,700.2188297259493
672,700.2427091571536
673,700.2664000705556
674,700.2899435552475
675,700.3133877461677
676,700.3367875073297
677,700.3602040674799
678,700.3837046106523
679,700.4073618243158
680,700.4312534089106
681,700.4554615539396
682,700.4800723866535
683,700.5051753990025
684,700.5308628565984
685,700.5572291905161
686,700.5843703702258
687,700.6123832549873
688,700.641364921711
689,700.6714119689091
690,700.7026197982979
691,700.7350818775981
692,700.768888989861
693,700.8041284757787
694,700.8408834756734
695,700.8792321775986
696,700.9192470781257
697,700.9609942633278
698,701.0045327185485
699,701.0499136758618
700,701.0971800075099
701,701.1463656725072
702,701.197495222621
703,701.2505833734301
704,701.3056346460415
705,701.3626430847277
706,701.4215920547525
707,701.4824541231308
708,701.5451910236442
709,701.6097537064438
710,701.6760824715607
711,701.7441071842758
712,701.8137475689639
713,701.8849135773252
714,701.9575058267772
715,702.0314161046736
716,702.1065279336578
717,702.1827171929954
718,702.2598527905471
719,702.3377973805352
720,702.4164081233163
721,702.4955374843299
722,702.5750340694291
723,702.6547434926513
724,702.734509270644
725,702.8141737362894
726,702.8935789630733
727,702.972567690937
728,703.05098424317
729,703.1286754227134
730,703.2054913759597
731,703.2812864129776
732,703.3559197743153
733,703.4292563354592
734,703.5011672406976
735,703.571530459098
736,703.6402312570333
737,703.7071625841731
738,703.772225372437
739,703.8353287495253
740,703.8963901702283
741,703.9553354699409
742,704.0120988456929
743,704.0666227705512
744,704.1188578475166
745,704.16876260891
746,704.2163032665505
747,704.2614534169859
748,704.304193705306
749,704.3445114510613
750,704.3824002403636
751,704.4178594888257
752,704.4508939803303
753,704.4815133870378
754,704.5097317769167
755,704.5355671162903
756,704.5590407757815
757,704.5801770479962
758,704.5990026842019
759,704.6155464555319
760,704.6298387422664
761,704.641911152882
762,704.6517961734228
763,704.6595268477755
764,704.6651364904722
765,704.6686584349114
766,704.6701258204521
767,704.6695714211518
768,704.6670275172986
769,704.6625258090678
770,704.6560973703071
771,704.647772639891
772,704.6375814479965
773,704.6255530744032
774,704.6117163353038
775,704.5960996945939
776,704.5787313956956
777,704.5596396106303
778,704.5388526039623
779,704.5163989098644
780,704.4923075204845
781,704.4666080830003
782,704.4393311018991
783,704.4105081426732
784,704.3801720332292
785,704.3483570595419
786,704.3150991523858
787,704.2804360624087
788,704.244407521394
789,704.207055388255
790,704.1684237789569
791,704.128559179933
792,704.0875105445085
793,704.0453293713908
794,704.0020697636088
795,703.9577884658328
796,703.9125448781584
797,703.8664010451449
798,703.8194216195951
799,703.771673800829
800,703.723227247145
801,703.6741539621157
802,703.6245281545561
803,703.574426072416
804,703.5239258113445
805,703.4731070990537
806,703.4220510567451
807,703.3708399386354
808,703.3195568501312
809,703.2682854449591
810,703.2171096021408
811,703.1661130851396
812,703.1153791870855
813,703.0649903669278
814,703.0150278814419
815,702.9655714175574
816,702.9166987287027
817,702.8684852777459
818,702.821003887669
819,702.7743243997209
820,702.7285133379677
821,702.6836335794434
822,702.6397440304152
823,702.5968993106133
824,702.5551494475882
825,702.5145395827816
826,702.4751096904907
827,702.4368943115048
828,702.3999223046316
829,702.3642166206691
830,702.3297941039085
831,702.2966653260848
832,702.2648344572581
833,702.2342991775512
834,702.2050506330633
835,702.1770734387513
836,702.1503457305986
837,702.1248392687097
838,702.1005195918888
839,702.0773462228636
840,702.0552729220726
841,702.034247987334
842,702.0142145968002
843,701.9951111929383
844,701.976871905428
845,701.9594270106309
846,701.9427034245848
847,701.9266252254299
848,701.9111142001265
849,701.896090409465
850,701.8814727647534
851,701.8671796092563
852,701.8531292975149
853,701.839240765781
854,701.825434086614
855,701.8116310004879
856,701.7977554177439
857,701.7837338855751
858,701.7694960162692
859,701.7549748739655
860,701.7401073175438
861,701.7248342974099
862,701.7091011045937
863,701.6928575721807
864,701.6760582314249
865,701.6586624273804
866,701.6406344009741
867,701.6219433455883
868,701.6025634459057
869,701.5824739049139
870,701.561658962201
871,701.5401079040804
872,701.5178150645031
873,701.4947798155098
874,701.4710065469054
875,701.4465046363782
876,701.4212884126889
877,701.3953771152504
878,701.3687948533278
879,701.3415705674797
880,701.313737994688
881,701.2853356364581
882,701.2564067262495
883,701.2269991901153
884,701.1971655934427
885,701.1669630670806
886,701.1364532070346
887,701.1057019425887
888,701.0747793680483
889,701.0437595336662
890,701.0127201920787
891,700.9817424977742
892,700.9509106585286
893,700.9203115394358
894,700.8900342221255
895,700.8601695236385
896,700.8308094806985
897,700.8020468056227
898,700.7739743201083
899,700.7466843728694
900,700.720268246772
901,700.6948155608849
902,700.6704136728769
903,700.6471470873895
904,700.625096876233
905,700.6043401164127
906,700.5849493520674
907,700.5669920862686
908,700.5505303082094
909,700.5356200605777
910,700.5223110506972
911,700.5106463072733
912,700.5006618827475
913,700.492386600126
914,700.4858418429405
915,700.4810413873092
916,700.4779912753781
917,700.4766897296703
