acceleration,velocity,displacement
0.016774151451352984,0.0,0.0
0.016753154540082662,8.381826497858913e-06,2.0954566244647284e-09
0.01672892779863871,1.6752347082539255e-05,8.379000019564271e-09
0.016700367704591188,2.510967095834673e-05,1.8844504529785765e-08
0.016666360160903292,3.345135292472035e-05,3.3484760500552533e-08
0.01662578732017802,4.1774389794990675e-05,5.2291196180480286e-08
0.016577534575175284,5.0075220268829e-05,7.52535986964352e-08
0.016520497682940852,5.8349728333358034e-05,1.0235983584698196e-07
0.01645358997929032,6.659325024891583e-05,1.3359558049255044e-07
0.01637574962892305,7.480058515096917e-05,1.689440393425217e-07
0.01628594684945375,8.296600927056337e-05,2.0838568794790483e-07
0.016183191042215692,9.108329374348073e-05,2.518980137014159e-07
0.016066537756533612,9.914572594316806e-05,2.9945526862307807e-07
0.015935095412729156,0.00010714613423548375,3.5102823366774104e-07
0.015788031716666182,0.00011507691601783258,4.0658399623107013e-07
0.015624579710109969,0.00012293006887452662,4.6608574245415993e-07
0.015444043411019265,0.00013069722465480893,5.294925658364938e-07
0.015245803006430648,0.0001383696862591714,5.96759293564989e-07
0.015029319566543619,0.00014593846690241498,6.678363318553855e-07
0.014794139245897224,0.00015339433160552519,7.426695314823706e-07
0.014539896925643508,0.00016072784064841036,8.212000745458544e-07
0.014266319240038464,0.00016792939468983085,9.033643833804148e-07
0.013973226930917139,0.00017498928123256974,9.89094052361015e-07
0.013660536484334056,0.00018189772208638253,1.078315803190753e-06
0.013328261016087835,0.000188644921461488,1.1709514640777208e-06
0.012976510387993571,0.00019522111431250836,1.2669179730212198e-06
0.012605490559156945,0.000201616614549296,1.3661274052366709e-06
0.01221550219975036,0.00020782186273902284,1.4684870245587505e-06
0.011806938606230135,0.00021382747294051798,1.5738993584786357e-06
0.011380282955181245,0.00021962427833087083,1.682262296296483e-06
0.01093610492854149,0.0002252033753018015,1.793469209704651e-06
0.010475056743945499,0.00023055616571992325,1.907409094960082e-06
0.009997868629997648,0.00023567439706340904,2.0239667356559154e-06
0.009505343792773695,0.00024055020016910188,2.143022884964043e-06
0.008998352920212001,0.0002451761243473483,2.2644544660931557e-06
0.008477828259429653,0.0002495451696422587,2.3881347895905577e-06
0.007944757280810174,0.00025365081602731865,2.513933786007952e-06
0.007400175924029886,0.00025748704932852866,2.641718252346914e-06
0.006845161418441144,0.0002610483836641464,2.7713521105950825e-06
0.0062808246899999365,0.0002643298801912567,2.9026966765589333e-06
0.005708302406541344,0.000267327161965392,3.0356109370980953e-06
0.0051287487608946405,0.000270036424757251,3.169951833778756e-06
0.004543327128290459,0.0002724544437295473,3.3055745509004557e-06
0.003953201744477245,0.0002745785759477392,3.4423328058197775e-06
0.003359529531554598,0.00027640675876674717,3.580079139498399e-06
0.002763452163492629,0.00027793750419050897,3.718665205237713e-06
0.002166088429614413,0.00027916988933878573,3.8579420536200365e-06
0.0015685269307966943,0.0002801035431788885,3.997760411749455e-06
0.0009718191299090765,0.00028073862969406495,4.137970954967694e-06
0.000376972772459866,0.0002810758276696572,4.278424569308624e-06
-0.00021505430556219158,0.0002811163072863816,4.418972603047634e-06
-0.0008033599586287564,0.0002808617037203339,4.5594671057993125e-06
-0.0013871030690667384,0.00028031408796341003,4.699761053720249e-06
-0.001965508404860067,0.00027947593509492836,4.839708559484833e-06
-0.0025378709633148955,0.0002783500902528846,4.979165065821787e-06
-0.0031035597713493217,0.00027693973256921853,5.117987521527313e-06
-0.0036620211243116995,0.0002752483373453033,5.256034539005943e-06
-0.004212781264027981,0.00027327963674821836,5.393166532529323e-06
-0.004755448518997603,0.00027103757930246197,5.529245836541993e-06
-0.005289714947715986,0.00026852628843578356,5.664136803476555e-06
-0.005815357535286669,0.0002657500203150329,5.797705880664259e-06
-0.006332238993129632,0.0002627131211829288,5.929821666038749e-06
-0.006840308201806631,0.00025941998438419475,6.06035494243053e-06
-0.007339600316388732,0.0002558750072546459,6.18917869034024e-06
-0.00783023652467834,0.00025208254804437913,6.316168079164997e-06
-0.00831242342238965,0.00024804688305761214,6.441200436940494e-06
-0.008786451960184698,0.00024377216421196855,6.56415519875789e-06
-0.00925269592849159,0.00023926237723979947,6.684913834120832e-06
-0.009711609965145354,0.00023452130076639024,6.8033597536223794e-06
-0.010163727083280063,0.00022955246650428388,6.919378195440048e-06
-0.010609655719537614,0.00022435912080357947,7.032856092267014e-06
-0.011050076301293463,0.0002189441877983717,7.143681919417502e-06
-0.011485737329604222,0.0002133102343906473,7.251745524964757e-06
-0.011917450971037816,0.00020745943731548678,7.35693794289129e-06
-0.012346088147082889,0.00020139355253595662,7.459151190354151e-06
-0.012772573105085224,0.0001951138872229146,7.558278050293869e-06
-0.013197877447962875,0.00018862127458465258,7.654211840745761e-06
-0.013623013592892964,0.0001819160518244386,7.746846172348034e-06
-0.014049027631046462,0.00017499804151845376,7.836074695683757e-06
-0.014476991580241341,0.0001678665367156318,7.921790840242278e-06
-0.014907995058201179,0.00016052029005602118,8.00388754693519e-06
-0.015343136443285069,0.00015295750718064962,8.082256996244359e-06
-0.015783513618118084,0.00014517584466529882,8.156790334205845e-06
-0.01623021440236614,0.00013717241266017778,8.227377398537215e-06
-0.016684306777523025,0.0001289437823652055,8.293906447293561e-06
-0.017146828999842392,0.00012048599842086413,8.356263892490079e-06
-0.017618779698302438,0.00011179459624632793,8.414334041156877e-06
-0.018101108067068994,0.00010286462430498506,8.467998846294704e-06
-0.018594704280703707,9.369067121804189e-05,8.517137670175461e-06
-0.019100390276081364,8.426689757884562e-05,8.561627062374683e-06
-0.019618911052924994,7.458707224659402e-05,8.601340554831042e-06
-0.020150926643362092,6.464461282252226e-05,8.636148476098322e-06
-0.020697004883969094,5.4432629940689466e-05,8.665917786789126e-06
-0.021257615085501405,4.394397494832184e-05,8.690511938011378e-06
-0.021833122642076243,3.317129051642743e-05,8.709790754377565e-06
-0.022423784572196955,2.210706371285913e-05,8.723610342934887e-06
-0.023029745955473697,1.0743681080941467e-05,8.731823029133337e-06
-0.023651037220773486,-9.265147131203302e-07,8.734277320725293e-06
-0.024287572242622263,-1.2911167078969267e-05,8.73081790027727e-06
-0.024939147205137627,-2.521784694090924e-05,8.7212856467723e-06
-0.025605440195471604,-3.785399379106155e-05,8.705517686589308e-06
-0.02628601149217476,-5.082685671297314e-05,8.683347473963298e-06
-0.02698030451922255,-6.414343571582246e-05,8.6546049008561e-06
-0.02768764744651996,-7.781042370725808e-05,8.61911643600033e-06
-0.028407255431825793,-9.183414942684452e-05,8.576705292716805e-06
-0.029138233507257933,-0.00010622052166161544,8.52719162494469e-06
-0.029879580104631296,-0.00012097497506458776,8.470392750763139e-06
-0.030630191188173197,-0.00013610241788778889,8.406123402525044e-06
-0.03138886493459262,-0.00015160718191848033,8.334196002573477e-06
-0.032154306884686096,-0.00016749297487330002,8.254420963375531e-06
-0.03292513549366849,-0.00018376283546788866,8.166607010790234e-06
-0.03369988802466618,-0.00020041909134747233,8.070561529086393e-06
-0.034477026750449426,-0.00021746332004125125,7.966090926239212e-06
-0.035254945443591014,-0.00023489631308976135,7.85300101795646e-06
-0.03603197614408115,-0.0002527180434866794,7.73109742881235e-06
-0.036806396200732866,-0.0002709276365728829,7.60018600879746e-06
-0.03757643559186006,-0.00028952334452103114,7.460073263523981e-06
-0.03834028454146088,-0.00030850252455436137,7.310566796255133e-06
-0.039096101457362344,-0.00032786162105406715,7.1514757598530264e-06
-0.039842021221183146,-0.0003475961517237035,6.982611316658584e-06
-0.04057616384710997,-0.0003677006979907768,6.803787104229964e-06
-0.04129664349484386,-0.0003881688998262653,6.6148197047757035e-06
-0.04200157778351057,-0.0004089934551458539,6.4155291160326734e-06
-0.04268909732613219,-0.0004301661239232646,6.205739221265394e-06
-0.0433573553954553,-0.00045167773710366147,5.985278256008662e-06
-0.04400453763322724,-0.0004735182103608321,5.753979269142538e-06
-0.04462887171856448,-0.0004956765626987801,5.511680575877635e-06
-0.045228636918769105,-0.0005181409398581135,5.258226200238412e-06
-0.04580217345731209,-0.0005408986424521338,4.99346630466085e-06
-0.046347891640894756,-0.0005639361587266855,4.717257604366146e-06
-0.04686428068487062,-0.0005872392018081268,4.429463764232443e-06
-0.04734991716706756,-0.0006107927512711113,4.129955775962633e-06
-0.04780347303254459,-0.0006345810988210143,3.818612313439602e-06
-0.04822372307463649,-0.0006585878978478095,3.495320064272396e-06
-0.04860955183132573,-0.0006827962165743001,3.1599740356668684e-06
-0.04895995985039303,-0.0007071885944947298,2.8124778328996106e-06
-0.04927406928260333,-0.0007317471017779789,2.4527439088314334e-06
-0.04955112876109007,-0.0007564534012889022,2.080693783064713e-06
-0.04979051752573078,-0.0007812888128606074,1.6962582295273358e-06
-0.04999174875893559,-0.0008062343794317739,1.2993774314542405e-06
-0.05015447211320711,-0.0008312709346498096,8.900011029338445e-07
-0.05027847542761551,-0.0008563791715350154,4.680885763876383e-07
-0.05036368564859815,-0.0008815397118040688,3.360885555286727e-08
-0.05041016898857203,-0.0009067331754633613,-4.134593662639903e-07
-0.050418130368524806,-0.0009319402503026355,-8.731277227054895e-07
-0.050387912194646396,-0.0009571417609434283,-1.3453982255170055e-06
-0.05031999251945825,-0.0009823187371219544,-1.8302633500333512e-06
-0.050214982641480464,-0.001007452480912189,-2.327706154541887e-06
-0.05007362420294524,-0.0010325246326232955,-2.837700432925758e-06
-0.049896785844247504,-0.0010575172351350937,-3.3602108998653554e-06
-0.049685459459012246,-0.0010824127964609086,-3.895193407764356e-06
-0.0494407560641046,-0.0011071943503416877,-4.442595194465005e-06
-0.04916390126374579,-0.0011318455146736503,-5.002355160718839e-06
-0.048856230258731426,-0.0011563505475542695,-5.57440417627582e-06
-0.04851918233857302,-0.0011806944007035957,-6.158665413340286e-06
-0.048154294798751066,-0.0012048627699879266,-6.755054706013167e-06
-0.047763196246694804,-0.001228842142749288,-7.363480934197471e-06
-0.047347599292430875,-0.0012526198416340695,-7.98384643029331e-06
-0.046909292651724936,-0.0012761840646201084,-8.616047406856856e-06
-0.04645013271221232,-0.0012995239209610927,-9.259974403252156e-06
-0.045972034624437066,-0.001322629462795255,-9.915512749191243e-06
-0.04547696298113496,-0.001345491712196648,-1.0582543042939219e-05
-0.044966922142091276,-0.0013681026834774547,-1.1260941641857745e-05
-0.04444394625275803,-0.001390455400576167,-1.1950581162871151e-05
-0.04391008899757752,-0.0014125439093887508,-1.2651330990362381e-05
-0.0433674131271973,-0.0014343632849199445,-1.3363057788939555e-05
-0.042817979803532115,-0.001455909633152627,-1.4085626018457697e-05
-0.04226383781500254,-0.0014771800875572605,-1.4818898448635169e-05
-0.04170701272101033,-0.0014981728001912638,-1.55627366705723e-05
-0.04114949599111069,-0.001518886927369294,-1.631700160246244e-05
-0.040593234218054705,-0.0015393226099215855,-1.7081553986785158e-05
-0.04004011850676497,-0.0015594809481027905,-1.7856254876291252e-05
-0.03949197416152639,-0.0015793639712698634,-1.8640966106134414e-05
-0.038950550798132186,-0.0015989746025097781,-1.9435550749579324e-05
-0.03841751299532883,-0.0016183166184581435,-2.0239873554821304e-05
-0.03789443157948726,-0.0016373946046018475,-2.10538013605863e-05
-0.03738277561793784,-0.0016562139064012038,-2.1877203488337065e-05
-0.03688390518347352,-0.0016747805766015567,-2.2709952109087757e-05
-0.03639906494059839,-0.0016931013191325748,-2.355192258302129e-05
-0.03592937858874672,-0.001711183430014911,-2.440299377030816e-05
-0.03547584418251877,-0.0017290347357077273,-2.526304831173882e-05
-0.035039330337413174,-0.0017466635293377102,-2.613197287800018e-05
-0.034620573317363915,-0.0017640785052514046,-2.700965838664746e-05
-0.03422017498620384,-0.0017812886923272966,-2.7896000186042136e-05
-0.03383860159561665,-0.0017983033864727518,-2.879089820574215e-05
-0.0334761833816678,-0.0018151320827170729,-2.9694257073039604e-05
-0.03313311494687791,-0.0018317844072992093,-3.0605986195543675e-05
-0.03280945641005573,-0.0018482700501384426,-3.152599980990309e-05
-0.0325051353090245,-0.0018645986980682127,-3.245421699695475e-05
-0.03221994923763199,-0.001880779969204877,-3.3390561663773024e-05
-0.0319535691840435,-0.0018968233488102957,-3.433496249327682e-05
-0.03170554351344754,-0.0019127381269846684,-3.528735286222556e-05
-0.03147530251276534,-0.0019285333384912217,-3.624767072859453e-05
-0.03126216339696019,-0.0019442177049686532,-3.72158584894595e-05
-0.03106533567363684,-0.0019597995797363023,-3.8191862810635744e-05
-0.030883926775196167,-0.0019752868953485103,-3.917563442940695e-05
-0.03071694788911875,-0.001990687114014589,-4.0167127931747725e-05
-0.03056331994151891,-0.0020060071809722487,-4.116630150549443e-05
-0.030421879717207303,-0.0020212534808869303,-4.217311667095923e-05
-0.030291386127311574,-0.00203643179734806,-4.318753799051798e-05
-0.030170526654413204,-0.002051547275543491,-4.420953275874087e-05
-0.030057924011751863,-0.0020666043882100324,-4.523907067467925e-05
-0.029952143049943456,-0.0020816069049754563,-4.627612349797562e-05
-0.029851697932501708,-0.0020965578652210677,-4.7320664690524756e-05
-0.029755059582043546,-0.002111459554599704,-4.837266904547995e-05
-0.029660663380973527,-0.0021263134853404583,-4.9432112305464994e-05
-0.0295669171042959,-0.0021411203804617756,-5.0498970771915555e-05
-0.02947220906820323,-0.0021558801620049006,-5.1573220907532226e-05
-0.029374916486002267,-0.002170591943393452,-5.265483893388181e-05
-0.029273414022601394,-0.0021852540260206025,-5.3743800426235326e-05
-0.02916608253159781,-0.0021998639001591523,-5.4840079907780266e-05
-0.029051317954905738,-0.0022144182502807784,-5.594365044539025e-05
-0.028927540368048444,-0.002228912964861517,-5.705448324917582e-05
-0.028793203154389543,-0.0022433431507421268,-5.817254727807674e-05
-0.028646802274023025,-0.0022577031520992297,-5.9297808853787075e-05
-0.028486885558311387,-0.002271986574057313,-6.043023128532621e-05
-0.0283120619284259,-0.0022861863109289973,-6.156977450657279e-05
-0.028121010425115642,-0.0023002945790173827,-6.271639472905938e-05
-0.027912488948568362,-0.0023143029538608036,-6.387004411227892e-05
-0.02768534262608792,-0.0023282024117544675,-6.503067045368273e-05
-0.027438511734874688,-0.002341983375344708,-6.619821690045752e-05
-0.027171039103374053,-0.0023556357630542704,-6.737262168505727e-05
-0.026882076904958033,-0.0023691490420563533,-6.855381788633492e-05
-0.026570892750654072,-0.002382512284470256,-6.974173321796658e-05
-0.02623687498570347,-0.0023957142264043455,-7.093628984568523e-05
-0.025879537098235497,-0.0024087433294253304,-7.213740423464264e-05
-0.025498521159403934,-0.0024215878439897403,-7.334498702799641e-05
-0.025093600234747722,-0.0024342358743382783,-7.455894295757842e-05
-0.024664679732310037,-0.0024466754443300425,-7.57791707872455e-05
-0.024211797674402326,-0.0024588945636817208,-7.700556328924844e-05
-0.023735123890294016,-0.002470881294072895,-7.823800725368709e-05
-0.023234958130122094,-0.002482623814577999,-7.947638353084982e-05
-0.022711727103563197,-0.0024941104858864204,-8.072056710596592e-05
-0.022165980452655436,-0.002505329912775475,-8.197042720563139e-05
-0.021598385677052682,-0.002516271004307902,-8.322582743490223e-05
-0.021009722045053164,-0.0025269230312384284,-8.448662594378882e-05
-0.020400873544395955,-0.002537275680135791,-8.575267562163237e-05
-0.01977282094549383,-0.0025473191037582634,-8.702382431760588e-05
-0.019126633059886718,-0.0025570439672596085,-8.829991508536035e-05
-0.018463457278759192,-0.0025664414898442698,-8.958078644963632e-05
-0.017784509477909563,-0.002575503481533437,-9.086627269248075e-05
-0.01709106338360984,-0.0025842223747488168,-9.215620415655131e-05
-0.016384439507449538,-0.002592591250471582,-9.345040756285641e-05
-0.015665993771948904,-0.0026006038587914316,-9.474870634017216e-05
-0.01493710596180477,-0.00260825463372487,-9.605092096330124e-05
-0.014199168151136676,-0.002615538702253105,-9.735686929729574e-05
-0.013453573271492315,-0.0026224518876087626,-9.86663669447612e-05
-0.012701703989195663,-0.0026289907069239346,-9.997922759339438e-05
-0.011944922049927975,-0.0026351523634337154,-0.00010129526336098379
-0.011184558226282814,-0.0026409347335027682,-0.00010261428513521792
-0.010421902974987202,-0.002646336348803086,-0.00010393610290579438
-0.00965819788019768,-0.002651356374016882,-0.00010526052608649936
-0.008894627935823534,-0.002655994580470887,-0.0001065873638251213
-0.008132314708113639,-0.0026602513161318713,-0.000107916425299272
-0.00737231041684051,-0.00266412747241311,-0.00010924751999640824
-0.006615592974467313,-0.002667624448260937,-0.00011058045797657675
-0.005863062026576444,-0.002670744112011198,-0.00011191505011664478
-0.00511553604264712,-0.0026734887615285042,-0.0001132511083350297
-0.004373750507222046,-0.0026758610831659714,-0.00011458844579620332
-0.0036383572486262225,-0.0026778641101049333,-0.00011592687709452105
-0.002909924914201808,-0.0026795011806456403,-0.00011726621841720869
-0.002188940565271605,-0.0026807758970155086,-0.00011860628768662398
-0.0014758123317719155,-0.0026816920852397695,-0.0001199469046821878
-0.0007708730407680498,-0.0026822537565829043,-0.00012128789114264346
-7.438471589910693e-05,-0.0026824650710220712,-0.0001226290708495447
0.0006134561633434404,-0.00268233030316021,-0.00012397026969309028
0.001292512753969262,-0.002681853810930882,-0.00012531131572161304
0.001962701402504769,-0.0026810400073917634,-0.0001266520391761937
0.002623984766397982,-0.002679893335849538,-0.00012799227251200401
0.003276364613298706,-0.0026784182485046137,-0.00012933185040809255
0.003919874414872415,-0.002676619188747571,-0.0001306706097674056
0.004554571863220096,-0.0026745005771780478,-0.000132008389708887
0.005180531445470875,-0.002672066801350875,-0.00013334503155351923
0.005797837208403508,-0.002669322209187406,-0.0001346803788061538
0.006406575831892268,-0.002666271105927332,-0.0001360142771349325
0.007006830116412398,-0.002662917754440256,-0.00013734657435002438
0.007598672982801892,-0.0026592663786654523,-0.0001386771203833008
0.008182162079360164,-0.002655321169899912,-0.00014000576727044213
0.00875733508255129,-0.002651086295609434,-0.00014133236913681945
0.009324205758484302,-0.0026465659103991753,-0.0001426567821883216
0.009882760828170495,-0.0026417641687525115,-0.00014397886470810954
0.010432957655645177,-0.0026366852391315576,-0.00014529847706008057
0.01097472275467656,-0.0026313333190289773,-0.0001466154816996207
0.011507951085998065,-0.0026257126505688086,-0.00014792974319202015
0.012032506093699373,-0.002619827536273884,-0.00014924112823873082
0.01254822041028686,-0.0026136823546478874,-0.00015054950571146127
0.013054897150770234,-0.002607281575257623,-0.00015185474669393765
0.013552311719570468,-0.002600629773040038,-0.00015315672453101206
0.014040214063503075,-0.0025937316415942696,-0.00015445531488467062
0.014518331308411538,-0.002586592005251291,-0.00015575039579638202
0.01498637071303337,-0.00257921582974593,-0.00015704184775513133
0.015444022868454442,-0.002571608231350558,-0.00015832955377040545
0.015890965072889455,-0.002563774484365222,-0.00015961339944933439
0.016326864820138585,-0.002555720026891965,-0.00016089327307714868
0.016751383352358835,-0.0025474504648488406,-0.0001621690657000839
0.017164179240153597,-0.0025389715742007123,-0.00016344067120984627
0.017564911962475442,-0.002530289301400055,-0.00016470798642874646
0.01795324546593325,-0.0025214097620429527,-0.00016597091119460722
0.01832885169093956,-0.0025123392377537344,-0.00016722934844455638
