acceleration,velocity,displacement
0.0167741514749724,0.0,0.0
0.016753154562307346,8.381826509319935e-06,2.0954566273299836e-09
0.016728927819524682,1.6752347104777942e-05,8.379000030854454e-09
0.016700367724194462,2.510967099070773e-05,1.884450455472587e-08
0.01666636017927676,3.345135296657554e-05,3.348476054404669e-08
0.016625787337373018,4.1774389845737984e-05,5.2291196247125076e-08
0.01657753459124625,5.00752203278928e-05,7.525359879053277e-08
0.016520497697943778,5.834972840019031e-05,1.0235983597255355e-07
0.01645358999328119,6.659325032299655e-05,1.3359558065335027e-07
0.01637574964195318,7.480058523180514e-05,1.689440395420507e-07
0.016285946861565103,8.296600935768472e-05,2.0838568818942317e-07
0.016183191053444006,9.108329383643699e-05,2.5189801398795357e-07
0.01606653776690839,9.914572604152509e-05,2.994552689574441e-07
0.015935095422279902,0.00010714613433882216,3.510282340525309e-07
0.015788031725423948,0.00011507691612574813,4.065839966686735e-07
0.015624579718102691,0.0001229300689866298,4.66085742946768e-07
0.015444043418267099,0.00013069722477072223,5.29492566386106e-07
0.015245803012950625,0.00013836968637852666,5.967592941734182e-07
0.015029319572346546,0.00014593846702485095,6.678363325242626e-07
0.01479413925099235,0.00015339433173068567,7.426695322131468e-07
0.014539896930044748,0.00016072784077594495,8.212000753398044e-07
0.014266319243765957,0.00016792939481939762,9.033643842386401e-07
0.013973226933995693,0.00017498928136383803,9.89094053284449e-07
0.013660536486796266,0.00018189772221903602,1.0783158041801676e-06
0.01332826101797874,0.00018864492159522978,1.1709514651337341e-06
0.012976510389372224,0.00019522111444706753,1.2669179741443084e-06
0.012605490560093295,0.00020161661468443392,1.3661274064271837e-06
0.012215502200320581,0.00020782186287453738,1.4684870258169265e-06
0.011806938606511963,0.0002138274730762455,1.5738993598046222e-06
0.011380282955252416,0.0002196242784666866,1.6822622976903552e-06
0.010936104928476633,0.00022520337543761887,1.7934692111664317e-06
0.010475056743817684,0.00023055616585569244,1.9074090964897596e-06
0.009997868629875284,0.00023567439719911567,2.023966737253462e-06
0.009505343792723638,0.00024055020030476542,2.143022886629432e-06
0.008998352920301109,0.0002451761244830216,2.264454467826379e-06
0.00847782825973257,0.00024954516977803,2.388134791391642e-06
0.007944757281415561,0.00025365081616331706,2.5139337878769786e-06
0.007400175925037303,0.0002574870494649303,2.64171825428404e-06
0.006845161419959497,0.0002610483838011795,2.7713521126005677e-06
0.006280824692141245,0.00026432988032920466,2.9026966786331637e-06
0.005708302409419195,0.00026732716210459476,3.0356109392416134e-06
0.005128748764617954,0.00027003642489810403,3.169951835992288e-06
0.0045433271329650485,0.0002724544438724998,3.305574553184939e-06
0.003953201750202705,0.0002745785760932917,3.442332808176387e-06
0.0033595295384258564,0.00027640675891544886,3.580079141928572e-06
0.0027634521716015086,0.0002779375043429557,3.7186652077431733e-06
0.0021660884390449584,0.0002791698894956173,3.857942056202817e-06
0.0015685269416236167,0.00028010354334078444,3.997760414411917e-06
0.0009718191422024229,0.00028073862986174094,4.137970957712548e-06
0.0003769727862819055,0.000281075827843862,4.278424572138949e-06
-0.00021505429016630646,0.0002811163074678909,4.418972605966887e-06
-0.0008033599416216513,0.00028086170390994393,4.559467108811346e-06
-0.001387103050417261,0.00028031408816193423,4.699761056829315e-06
-0.0019655083845432873,0.0002794759353031941,4.839708562695597e-06
-0.0025378709413198886,0.0002783500904717283,4.9791650691393275e-06
-0.0031035597476776113,0.00027693973279947895,5.1179875249571295e-06
-0.0036620210989788153,0.0002752483375878148,5.256034542553953e-06
-0.004212781237065016,0.00027327963700380384,5.393166536201857e-06
-0.004755448490444986,0.0002710375795719263,5.52924584034579e-06
-0.005289714917623483,0.0002685262887199092,5.6641368074187484e-06
-0.005815357503714944,0.0002657500206145746,5.7977058847523695e-06
-0.006332238960145569,0.00026271312149860944,5.929821670280666e-06
-0.006840308167488015,0.000259419984716701,6.060354946834493e-06
-0.007339600280827353,0.0002558750076046222,6.1891786949148235e-06
-0.007830236487972216,0.0002520825484124223,6.316168083919084e-06
-0.008312423384639911,0.00024804688344426927,6.441200441883257e-06
-0.008786451921494033,0.0002437721646177358,6.564155203898758e-06
-0.009252695888961134,0.000239262377665122,6.684913839469472e-06
-0.009711609924874689,0.00023452130121166305,6.803359759188668e-06
-0.01016372704236877,0.0002295524669698522,6.919378201234047e-06
-0.010609655678077498,0.00022435912128974063,7.032856098298946e-06
-0.011050076259376332,0.00021894418830537717,7.143681925697725e-06
-0.011485737287326553,0.00021331023491870146,7.2517455315037445e-06
-0.011917450928491424,0.00020745943786474696,7.356937949699607e-06
-0.012346088104353368,0.00020139355310653577,7.459151197442428e-06
-0.012772573062261284,0.0001951138878148821,7.558278057672782e-06
-0.013197877405139457,0.0001886212751980319,7.65421184842601e-06
-0.01362301355017124,0.00018191605245920423,7.746846180340319e-06
-0.014049027588533833,0.00017499804217452797,7.836074703998752e-06
-0.014476991538051443,0.00016786653739288165,7.921790848890604e-06
-0.014907995016444539,0.00016052029075425765,8.003887555927389e-06
-0.015343136402067548,0.00015295750789962964,8.082257005590861e-06
-0.015783513577540882,0.00014517584540472752,8.15679034391695e-06
-0.016230214362527348,0.00013717241341971046,8.227377408623058e-06
-0.01668430673852385,0.00012894378314444766,8.293906457764098e-06
-0.017146828961790275,0.00012048599921936913,8.356263903355052e-06
-0.017618779661304824,0.00011179459706359536,8.414334052425793e-06
-0.018101108031233333,0.00010286462514046082,8.467998857976806e-06
-0.018594704246140563,9.369067207111735e-05,8.5171376822797e-06
-0.019100390242899754,8.426689844885727e-05,8.561627074909695e-06
-0.01961891102122771,7.458707313282541e-05,8.601340567805115e-06
-0.020150926613245704,6.464461372420705e-05,8.636148489519373e-06
-0.02069700485552083,5.4432630857015413e-05,8.665917800664679e-06
-0.021257615058808504,4.394397587843308e-05,8.69051195234854e-06
-0.021833122617219716,3.317129145942602e-05,8.709790769183005e-06
-0.02242378454925159,2.2107064667808194e-05,8.723610358214814e-06
-0.02302974593450338,1.0743682046869451e-05,8.731823044893483e-06
-0.02365103720182655,-9.26513737213031e-07,8.734277336970897e-06
-0.024287572225736135,-1.2911166094103703e-05,8.730817917013067e-06
-0.024939147190341956,-2.5217845948123227e-05,8.72128566400251e-06
-0.025605440182786692,-3.785399279140539e-05,8.705517704317628e-06
-0.026286011481611575,-5.082685570750496e-05,8.683347492192901e-06
-0.02698030451078116,-6.414343470560315e-05,8.654604919589625e-06
-0.027687647440195754,-7.781042269334738e-05,8.619116455239888e-06
-0.028407255427611057,-9.183414841029908e-05,8.576705312463975e-06
-0.02913823350513404,-0.00010622052064348535,8.52719164520053e-06
-0.029879580104567167,-0.00012097497404591066,8.47039277152818e-06
-0.030630191190122183,-0.000136102416869583,8.406123423799307e-06
-0.03138886493850029,-0.0001516071809017386,8.334196024356476e-06
-0.032154306890488656,-0.00016749297385898585,8.254420985666294e-06
-0.03292513550129281,-0.0001837628344569312,8.166607033587314e-06
-0.0336998880340329,-0.00020041909034076261,8.070561552387892e-06
-0.03447702676147139,-0.0002174633190396387,7.966090950042792e-06
-0.03525494545617951,-0.0002348963120940514,7.853001042259368e-06
-0.03603197615814745,-0.00025271804249763315,7.731097453611447e-06
-0.036806396216186685,-0.00027092763559121666,7.6001860340892345e-06
-0.03757643560860954,-0.00028952334354741575,7.460073289304576e-06
-0.03834028455941104,-0.0003085025235894209,7.310566822520367e-06
-0.03909610147641665,-0.0003278616200983778,7.151475786598418e-06
-0.03984202124124348,-0.00034759615077779285,6.982611343879375e-06
-0.040576163868072,-0.00036770069705512173,6.803787131921147e-06
-0.04129664351660011,-0.00038816889890128976,6.6148197329320435e-06
-0.042001577805953566,-0.0004089934542319282,6.415529144648739e-06
-0.0426890973491529,-0.0004301661230207048,6.2057392503355805e-06
-0.04335735541894311,-0.0004516777362127288,5.985278285527222e-06
-0.04400453765706531,-0.0004735182094817309,5.753979299103607e-06
-0.04462887174262974,-0.0004956765618316547,5.5116806062752606e-06
-0.04522863694293536,-0.0005181409390030459,5.258226231066585e-06
-0.045802173481456245,-0.0005408986416091438,4.993466335913538e-06
-0.046347891664898375,-0.0005639361578957324,4.717257636037318e-06
-0.04686428070862461,-0.0005872392009891132,4.429463796316107e-06
-0.04734991719047371,-0.0006107927504638877,4.129955808452857e-06
-0.04780347305551091,-0.0006345810980253839,3.818612346330539e-06
-0.04822372309708032,-0.0006585878970635317,3.4953200975583105e-06
-0.04860955185317375,-0.0006827962158010953,3.159974069342154e-06
-0.04895995987158747,-0.0007071885937322855,2.812477866958809e-06
-0.049274069303095774,-0.0007317471010259563,2.452743943269248e-06
-0.04955112878084453,-0.0007564534005469413,2.0806938178760237e-06
-0.04979051754472372,-0.0007812888121283334,1.696258264707205e-06
-0.049991748777160595,-0.0008062343787088045,1.2993774669979204e-06
-0.05015447213067489,-0.0008312709339357634,8.900011388367784e-07
-0.05027847544435234,-0.0008563791708295202,4.680886126454575e-07
-0.050363685664638086,-0.0008815397111067678,3.360889216138545e-08
-0.0504101690039569,-0.0009067331747739166,-4.1345932930878565e-07
-0.050418130383299564,-0.0009319402496207308,-8.731276854074475e-07
-0.050387912208862226,-0.0009571417602687712,-1.345398187879823e-06
-0.050319992533175664,-0.0009823187364542806,-1.8302633120605861e-06
-0.0502149826547631,-0.0010074524802512652,-2.3277061162369726e-06
-0.050073624215850515,-0.0010325246319689185,-2.8377003942920187e-06
-0.04989678585682661,-0.0010575172344870877,-3.3602108609060204e-06
-0.049685459471308584,-0.0010824127958191216,-3.8951933684825725e-06
-0.049440756076155376,-0.0011071943497059876,-4.4425951548638495e-06
-0.04916390127558198,-0.001131845514043922,-5.002355120801327e-06
-0.04885623027037777,-0.001156350546930412,-5.574404136044911e-06
-0.048519182350048054,-0.0011806944000855185,-6.158665372798894e-06
-0.04815429481006088,-0.0012048627693755456,-6.75505466516416e-06
-0.04776319625783149,-0.0012288421421425186,-7.363480893043676e-06
-0.04734759930337876,-0.0012526198410328212,-7.98384638883751e-06
-0.04690929266246833,-0.001276184064024283,-8.616047365101787e-06
-0.04645013272274023,-0.001299523920370585,-9.259974361200504e-06
-0.04597203463474318,-0.001322629462209956,-9.915512706845638e-06
-0.045476962991217625,-0.0013454917116164462,-1.0582543000302238e-05
-0.04496692215195353,-0.001368102682902239,-1.126094159893191e-05
-0.044443946262401376,-0.0013904554000058278,-1.1950581119658927e-05
-0.0439100890069988,-0.0014125439088231778,-1.2651330946866177e-05
-0.04336741313638556,-0.0014343632843590239,-1.3363057745161728e-05
-0.042817979812477994,-0.0014559096325962397,-1.4085625974400544e-05
-0.042263837823693556,-0.0014771800870052826,-1.4818898404300924e-05
-0.04170701272943402,-0.0014981727996435646,-1.5562736625963136e-05
-0.0411494959992546,-0.0015188869268257367,-1.631700155758046e-05
-0.0405932342259095,-0.0015393226093820278,-1.70815539416324e-05
-0.04004011851431821,-0.0015594809475670847,-1.7856254830869676e-05
-0.039491974168756314,-0.0015793639707378532,-1.864096606044591e-05
-0.03895055080500925,-0.0015989746019812946,-1.94355507036257e-05
-0.038417513001817276,-0.0016183166179330013,-2.0239873508604272e-05
-0.03789443158554823,-0.0016373946040798427,-2.1053801314107482e-05
-0.03738277562352935,-0.001656213905882112,-2.187720344159797e-05
-0.036883905188552064,-0.0016747805760851324,-2.270995206208978e-05
-0.036399064945123565,-0.0016931013186185513,-2.35519225357657e-05
-0.03592937859267968,-0.001711183429503002,-2.4402993722796088e-05
-0.035475844185830024,-0.0017290347351976295,-2.5263048263971245e-05
-0.03503933034007167,-0.001746663528829105,-2.613197282997793e-05
-0.0346205733193324,-0.001764078504743956,-2.7009658338371195e-05
-0.03422017498744659,-0.0017812886918206507,-2.789600013751235e-05
-0.03383860159609952,-0.0017983033859665372,-2.8790898156959146e-05
-0.033476183381359756,-0.001815132082210902,-2.9694257024003505e-05
-0.03313311494575102,-0.0018317844067926798,-3.06059861462544e-05
-0.03280945640808675,-0.0018482700496311392,-3.1525999760360355e-05
-0.03250513530618706,-0.0018645986975597076,-3.2454216947158065e-05
-0.032219949233899724,-0.0018807799686947292,-3.339056161372167e-05
-0.03195356917938536,-0.0018968233482980505,-3.4334962442969864e-05
-0.03170554350783095,-0.0019127381264698545,-3.528735281166184e-05
-0.03147530250615613,-0.0019285333379733512,-3.6247670677772644e-05
-0.031262163389327316,-0.0019442177044472222,-3.7215858438377784e-05
-0.031065335664949248,-0.0019597995792107912,-3.8191862759292286e-05
-0.030883926765432144,-0.0019752868948183866,-3.917563437779958e-05
-0.030716947878269025,-0.001990687113479312,-4.0167127879874005e-05
-0.030563319929591336,-0.002006007180431277,-4.116630145335165e-05
-0.03042187970422373,-0.0020212534803397304,-4.21731166185444e-05
-0.030291386113307853,-0.0020364317967941133,-4.318753793782786e-05
-0.030170526639437634,-0.0020515472749823,-4.420953270577196e-05
-0.030057923995869856,-0.0020666043876411268,-4.523907062142782e-05
-0.02995214303322976,-0.002081606904398402,-4.62761234444377e-05
-0.029851697915041955,-0.0020965578646354698,-4.7320664636696165e-05
-0.029755059563928033,-0.0021114595540052124,-4.8372668991356334e-05
-0.029660663362300325,-0.0021263134847367693,-4.943211225104183e-05
-0.029566917085161515,-0.0021411203798486346,-5.049897071718818e-05
-0.029472209048697937,-0.0021558801613820993,-5.157322085249587e-05
-0.02937491646621321,-0.0021705919427608272,-5.2654838878531595e-05
-0.029273414002611055,-0.002185254025378033,-5.374380037056631e-05
-0.029166082511488653,-0.002199863899506558,-5.484007985178746e-05
-0.029051317934757105,-0.0022144182496181193,-5.594365038906863e-05
-0.02892754034793345,-0.0022289129641887917,-5.705448319252036e-05
-0.028793203134371954,-0.002243343150059368,-5.81725472210824e-05
-0.028646802254158815,-0.002257703151406501,-5.929780879644887e-05
-0.028486885538650298,-0.0022719865733547033,-6.043023122763917e-05
-0.02831206190901455,-0.0022861863102166193,-6.1569774448532e-05
-0.028121010406003767,-0.002300294578295374,-6.271639467066e-05
-0.027912488929811907,-0.002314302953129328,-6.387004405351618e-05
-0.027685342607745942,-0.0023282024110137176,-6.503067039455194e-05
-0.027438511717012462,-0.0023419833745949073,-6.61982168409541e-05
-0.027171039086056854,-0.0023556357622956745,-6.737262162517675e-05
-0.026882076888248015,-0.0023691490412892507,-6.855381782607298e-05
-0.026570892734614944,-0.0023825122836949666,-6.974173315731903e-05
-0.026236874970412945,-0.0023957142256212237,-7.093628978464807e-05
-0.02587953708378685,-0.0024087433286347736,-7.213740417321207e-05
-0.025498521145898224,-0.0024215878431921947,-7.334498696616882e-05
-0.025093600222292227,-0.002434235873534242,-7.455894289535043e-05
-0.024664679721008928,-0.0024466754435200676,-7.5779170724614e-05
-0.024211797664353548,-0.002458894562866408,-7.700556322621062e-05
-0.023735123881592397,-0.0024708812932528945,-7.823800719024045e-05
-0.023234958122854685,-0.0024826238137540062,-7.947638346699218e-05
-0.022711727097807707,-0.002494110485059172,-8.072056704169547e-05
-0.022165980448470908,-0.0025053299119457417,-8.197042714094671e-05
-0.02159838567447792,-0.002516271003476479,-8.322582736980226e-05
-0.021009722044111407,-0.0025269230304061263,-8.44866258782729e-05
-0.02040087354508711,-0.002537275679303426,-8.575267555570029e-05
-0.019772820947792896,-0.002547319102926646,-8.70238242512578e-05
-0.01912663306375625,-0.0025570439664295334,-8.829991501859685e-05
-0.018463457284158644,-0.002566441489016512,-8.958078638245836e-05
-0.017784509484795274,-0.002575503480708751,-9.086627262488967e-05
-0.017091063391936594,-0.002584222373927934,-9.215620408854884e-05
-0.01638443951716591,-0.0025925912496552097,-9.345040749444462e-05
-0.01566599378300192,-0.0026006038579802515,-9.474870627135349e-05
-0.014937105974139895,-0.002608254632919537,-9.605092089407843e-05
-0.014199168164702501,-0.0026155387014542477,-9.735686922767188e-05
-0.013453573286240552,-0.0026224518868169836,-9.866636687473969e-05
-0.012701704005088927,-0.0026289907061398158,-9.997922752297889e-05
-0.011944922066936668,-0.002635152362657822,-0.0001012952632901783
-0.011184558244377345,-0.0026409347327356505,-0.00010261428506402667
-0.010421902994133316,-0.0026463363480452784,-0.0001039361028342219
-0.009658197900353346,-0.0026513563732689,-0.00010526052601455044
-0.008894627956937387,-0.0026559945797332224,-0.00010658736375280098
-0.008132314730120313,-0.002660251315404987,-0.00010791642522658553
-0.007372310439659079,-0.002664127471697432,-0.00010924751992336112
-0.006615592998007516,-0.0026676244475568487,-0.00011058045790317469
-0.005863062050741797,-0.002670744111319036,-0.00011191505004289366
-0.005115536067341144,-0.002673488760848557,-0.00011325110826093555
-0.004373750532345154,-0.0026758610824984784,-0.00011458844572177231
-0.0036383572740788296,-0.0026778641094500843,-0.00011592687701975946
-0.002909924939885888,-0.0026795011800035753,-0.00011726621834212288
-0.002188940591090691,-0.0026807758963863196,-0.00011860628761122034
-0.0014758123576248728,-0.0026816920846234986,-0.0001199469046064728
-0.0007708730665521895,-0.0026822537559795427,-0.00012128789106662356
-7.438474151174098e-05,-0.002682465070431559,-0.00012262907077322633
0.000613456138001886,-0.0026823303025824362,-0.00012397026961647982
0.0012925127289921345,-0.002681853810365688,-0.00012531131564471685
0.0019627013779791895,-0.002681040006838945,-0.00012665203909901802
0.0026239847424064013,-0.002679893335308849,-0.00012799227243455495
0.0032763645899157932,-0.0026784182479757685,-0.0001293318503303761
0.003919874392160386,-0.0026766191882302494,-0.0001306706096894276
0.004554571841231831,-0.0026745005766719014,-0.00013200838963065313
0.005180531424253024,-0.00267206680085553,-0.00013334503147503497
0.0057978371879965,-0.0026693222087024676,-0.00013468037872742448
0.0064065758123194065,-0.0026662711054523886,-0.0001360142770559632
0.007006830097682982,-0.002662917753974888,-0.00013734657427082002
0.00759867296491121,-0.0026592663782092395,-0.00013867712030386605
0.00818216206228794,-0.00265532116945244,-0.00014000576719078146
0.008757335066266355,-0.0026510862951703014,-0.00014133236905693715
0.00932420574294926,-0.0026465659099679977,-0.00014265678210822173
0.009882760813341721,-0.002641764168328925,-0.00014397886462779596
0.010432957641472822,-0.0026366852387152214,-0.000145298476979557
0.010974722741107664,-0.002631333318619576,-0.00014661548161889072
0.01150795107298122,-0.002625712650166054,-0.00014792974311108714
0.012032506081189397,-0.002619827535877511,-0.00014924112815759802
0.012548220398232347,-0.0026136823542576557,-0.00015054950563013182
0.013054897139118218,-0.002607281574873318,-0.00015185474661241457
0.013552311708277323,-0.0026006297726614692,-0.00015315672444929826
0.014040214052526727,-0.002593731641221268,-0.00015445531480276893
0.014518331297717698,-0.002586592004883707,-0.00015575039571429517
0.014986370702598641,-0.002579215829383628,-0.00015704184767286201
0.015444022858260093,-0.002571608230993413,-0.00015832955368795626
0.01589096506292454,-0.002563774484013117,-0.0001596133993667079
0.016326864810401492,-0.0025557200265447855,-0.00016089327299434738
0.016751383342855735,-0.002547450464506471,-0.0001621690656171102
0.01716417923089844,-0.0025389715738630327,-0.00016344067112670257
0.017564911953482185,-0.0025302893010669377,-0.00016470798634543506
0.017953245457218946,-0.0025214097617142625,-0.00016597091111113037
0.018328851682527496,-0.002512339237429326,-0.00016722934836091628
