frame_number,force
0,717.7463069340206
1,717.7447733223502
2,717.7430038043036
3,717.740917778746
4,717.7384338721747
5,717.735470437161
6,717.7319460629369
7,717.7277800957406
8,717.7228931657613
9,717.7172077166866
10,717.710648533345
11,717.7031432625384
12,717.6946229217125
13,717.6850223900033
14,717.6742808767552
15,717.6623423634386
16,717.6491560156155
17,717.6346765622277
18,717.6188646399125
19,717.6016870998566
20,717.5831172738266
21,717.5631351952242
22,717.5417277710562
23,717.5188889014751
24,717.4946195444569
25,717.4689277242944
26,717.4418284842139
27,717.4133437851258
28,717.383502353352
29,717.3523394800476
30,717.3198967747072
31,717.2862218752222
32,717.2513681173948
33,717.2153941672925
34,717.1783636198492
35,717.140344566273
36,717.1014091312726
37,717.0616329797472
38,717.0210947923887
39,716.9798757110846
40,716.9380587579058
41,716.8957282349465
42,716.8529691149826
43,716.8098664336416
44,716.7665046923634
45,716.7229672788663
46,716.6793359093773
47,716.6356900951628
48,716.5921066349341
49,716.5486591342923
50,716.5054175534534
51,716.4624477850097
52,716.4198112640865
53,716.3775646135298
54,716.3357593266445
55,716.2944414896226
56,716.2536515449799
57,716.2134240959518
58,716.1737877501739
59,716.1347649996536
60,716.09637213337
61,716.0586191788631
62,716.02150986989
63,715.985041638729
64,715.9492056338386
65,715.9139867654948
66,715.879363782699
67,715.8453093838469
68,715.8117903622502
69,715.7787677866988
70,715.7461972170595
71,715.7140289550051
72,715.6822083301158
73,715.650676021851
74,715.6193684182184
75,715.5882180123119
76,715.5571538383807
77,715.5261019496057
78,715.4949859396238
79,715.4637275083928
80,715.4322470703759
81,715.4004644001603
82,715.368299308542
83,715.3356723413137
84,715.3025054932461
85,715.2687229302373
86,715.2342517125566
87,715.1990225111853
88,715.1629703078892
89,715.1260350685058
90,715.0881623783521
91,715.0493040287673
92,715.0094185450417
93,714.9684716487787
94,714.9264366516395
95,714.8832947810259
96,714.8390354403422
97,714.7936564070677
98,714.747163971796
99,714.6995730212126
100,714.6509070677901
101,714.6011982287259
102,714.5504871562607
103,714.4988229207772
104,714.4462628470508
105,714.3928723034192
106,714.3387244442924
107,714.2838999083
108,714.2284864764588
109,714.1725786959008
110,714.1162774744777
111,714.0596896503005
112,714.0029275387662
113,713.9461084585175
114,713.8893542371367
115,713.8327906968425
116,713.7765471197889
117,713.7207556917799
118,713.6655509224685
119,713.6110690398588
120,713.5574473578703
121,713.5048236180334
122,713.4533353092024
123,713.4031189711594
124,713.3543094886229
125,713.3070393820839
126,713.2614381016293
127,713.2176313293519
128,713.1757402951135
129,713.1358811099062
130,713.0981641212442
131,713.0626932956978
132,713.0295656342275
133,712.9988706257689
134,712.9706897435226
135,712.945095987349
136,712.922153475242
137,712.90191708694
138,712.8844321626816
139,712.8697342595603
140,712.8578489669119
141,712.848791780943
142,712.8425680374763
143,712.8391729003656
144,712.8385914022085
145,712.8407985337014
146,712.8457593779503
147,712.8534292857908
148,712.8637540877704
149,712.8766703385078
150,712.8921055902214
151,712.9099786943838
152,712.9302001330219
153,712.9526723832432
154,712.9772903195288
155,713.0039416580166
156,713.0325074454316
157,713.0628625929601
158,713.0948764530349
159,713.1284134353444
160,713.1633336575419
161,713.1994936260292
162,713.236746942628
163,713.2749450336189
164,713.3139378981572
165,713.3535748732036
166,713.3937054117597
167,713.4341798705856
168,713.4748503030858
169,713.5155712525827
170,713.5562005401949
171,713.5966000398646
172,713.636636431604
173,713.6761819237029
174,713.715114935546
175,713.7533207341794
176,713.7906920191161
177,713.8271294508162
178,713.8625421191459
179,713.8968479492447
180,713.9299740433343
181,713.9618569578514
182,713.9924429161741
183,714.0216879582463
184,714.0495580291055
185,714.0760290083524
186,714.1010866822443
187,714.1247266597111
188,714.1469542333808
189,714.1677841869725
190,714.1872405514679
191,714.2053563142148
192,714.2221730869825
193,714.2377407403013
194,714.2521170116331
195,714.2653670939993
196,714.2775632101378
197,714.288784175465
198,714.2991149510672
199,714.3086461859142
200,714.3174737461078
201,714.3256982284939
202,714.3334244561971
203,714.3407609545212
204,714.3478194070796
205,714.354714093338
206,714.3615613092032
207,714.3684787718512
208,714.375585009411
209,714.3829987361465
210,714.3908382143006
211,714.3992206040674
212,714.4082613029253
213,714.4180732755525
214,714.4287663768282
215,714.440446672961
216,714.4532157681678
217,714.4671701451405
218,714.482400526688
219,714.498991264562
220,714.5170197607781
221,714.5365559270222
222,714.5576616884409
223,714.5803905386298
224,714.6047871527728
225,714.6308870656338
226,714.6587164202892
227,714.6882917920026
228,714.7196200897581
229,714.7526985364111
230,714.7875147276538
231,714.8240467697752
232,714.862263495956
233,714.902124760413
234,714.9435818090584
235,714.9865777242369
236,715.0310479395989
237,715.076920819801
238,715.1241182989871
239,715.1725565718543
240,715.2221468309923
241,715.2727960435997
242,715.3244077596815
243,715.3768829428333
244,715.4301208137599
245,715.4840196955487
246,715.5384778486604
247,715.5933942833263
248,715.648669537819
249,715.7042064126812
250,715.7599106531211
251,715.8156915739934
252,715.8714626234969
253,715.9271418825786
254,715.982652497243
255,716.0379230408909
256,716.0928878035259
257,716.1474870042435
258,716.2016669233485
259,716.2553799513846
260,716.3085845544239
261,716.3612451575706
262,716.4133319510672
263,716.4648206252682
264,716.515692042001
265,716.565931850429
266,716.6155300555581
267,716.6644805473494
268,716.7127805983077
269,716.7604303375421
270,716.8074322098184
271,716.8537904289605
272,716.8995104354983
273,716.9445983681978
274,716.9890605581458
275,717.032903053078
276,717.0761311791232
277,717.1187491469055
278,717.1607597083091
279,717.2021638688087
280,717.2429606585088
281,717.2831469632839
282,717.3227174157093
283,717.3616643437307
284,717.399977773322
285,717.4376454799833
286,717.4746530832605
287,717.5109841787216
288,717.5466205025147
289,717.5815421239466
290,717.6157276612338
291,717.6491545151893
292,717.6817991157166
293,717.7136371766061
294,717.744643955029
295,717.7747945130266
296,717.8040639789857
297,717.8324278076104
298,717.8598620374711
299,717.8863435458807
300,717.9118503013635
301,717.9363616140612
302,717.9598583838595
303,717.9823233447601
304,718.0037413023317
305,718.0240993597201
306,718.043387127456
307,718.0615969131156
308,718.0787238878632
309,718.0947662273977
310,718.1097252251682
311,718.1236053763539
312,718.1364144319447
313,718.1481634230847
314,718.158866656687
315,718.1685416840882
316,718.17720924478
317,718.1848931868251
318,718.1916203648104
319,718.1974205156374
320,718.2023261124589
321,718.206372197866
322,718.2095961989057
323,718.2120377280951
324,718.2137383756667
325,718.2147414984499
326,718.2150920100971
327,718.2148361762984
328,718.2140214177173
329,718.2126961227451
330,718.2109094716085
331,718.2087112728835
332,718.2061518131452
333,718.2032817203491
334,718.2001518416444
335,718.1968131365674
336,718.1933165864375
337,718.1897131197237
338,718.1860535514969
339,718.1823885337524
340,718.1787685129217
341,718.1752436911693
342,718.1718639887059
343,718.1686790047839
344,718.1657379748309
345,718.1630897206325
346,718.1607825903561
347,718.1588643857874
348,718.1573822751133
349,718.1563826906854
350,718.1559112124369
351,718.1560124388558
352,718.1567298482234
353,718.1581056528219
354,718.160180648036
355,718.1629940570956
356,718.1665833709594
357,718.1709841817957
358,718.1762300081713
359,718.1823521109274
360,718.1893793004289
361,718.1973377372597
362,718.2062507288464
363,718.2161385243826
364,718.2270181105595
365,718.2389030111525
366,718.2518030939221
367,718.2657243879054
368,718.2806689130307
369,718.2966345230327
370,718.313614762677
371,718.331598741064
372,718.3505710234799
373,718.3705115445255
374,718.391395544949
375,718.4131935337147
376,718.4358712758509
377,718.4593898064891
378,718.4837054725203
379,718.5087700045717
380,718.5345306223722
381,718.5609301757206
382,718.5879073219147
383,718.6153967396733
384,718.6433293795212
385,718.6716327504881
386,718.7002312418457
387,718.7290464768204
388,718.7579976940616
389,718.7870021525619
390,718.8159755558331
391,718.8448324905029
392,718.8734868732861
393,718.9018523995607
394,718.9298429873373
395,718.9573732120091
396,718.9843587289746
397,719.0107166822506
398,719.0363660970876
399,719.0612282534571
400,719.085227035908
401,719.1082892549122
402,719.1303449358858
403,719.1513275739803
404,719.1711743544544
405,719.1898263391756
406,719.2072286193684
407,719.2233304336514
408,719.2380852496691
409,719.2514508079626
410,719.2633891283696
411,719.2738664819157
412,719.2828533341714
413,719.2903242683462
414,719.2962578970178
415,719.3006367703624
416,719.3034472870585
417,719.3046796125909
418,719.3043276085396
419,719.3023887750381
420,719.2988642066924
421,719.2937585600948
422,719.2870800291824
423,719.2788403233236
424,719.2690546420172
425,719.2577416393009
426,719.2449233708714
427,719.2306252181696
428,719.214875786068
429,719.197706773302
430,719.1791528165385
431,719.1592513097476
432,719.1380422003535
433,719.1155677626837
434,719.0918723483258
435,719.067002113228
436,719.0410047230138
437,719.0139290402875
438,718.9858247998507
439,718.9567422793715
440,718.9267319740092
441,718.8958442835843
442,718.864129220081
443,718.831636141729
444,718.7984135176996
445,718.7645087245862
446,718.729967872895
447,718.6948356598714
448,718.6591552447898
449,718.6229681437472
450,718.586314141936
451,718.549231222061
452,718.5117555083544
453,718.4739212263331
454,718.4357606784494
455,718.3973042350485
456,718.3585803394611
457,718.3196155264594
458,718.2804344546153
459,718.2410599543226
460,718.2015130936144
461,718.1618132635891
462,718.1219782849398
463,718.0820245369836
464,718.0419671103425
465,718.0018199835858
466,717.9615962226594
467,717.9213082000126
468,717.8809678282739
469,717.8405868014048
470,717.8001768349021
471,717.7597498963137
472,717.7193184184373
473,717.6788954897404
474,717.6384950187717
475,717.5981318707919
476,717.55782197552
477,717.5175824052496
478,717.4774314230249
479,717.4373885011813
480,717.3974743112428
481,717.3577106866037
482,717.318120559414
483,717.2787278728509
484,717.2395574697778
485,717.2006349585005
486,717.1619865555901
487,717.1236389048242
488,717.0856188710158
489,717.0479533083454
490,717.0106688045765
491,716.9737914046735
492,716.9373463192962
493,716.9013576248101
494,716.8658479613932
495,716.8308382346202
496,716.796347324368
497,716.7623918039856
498,716.7289856728501
499,716.6961401065653
500,716.66386323082
501,716.6321599270535
502,716.6010316800187
503,716.57047647827
504,716.5404887780311
505,716.5110595388395
506,716.4821763362457
507,716.4538235532281
508,716.425982648531
509,716.3986324971632
510,716.3717497957591
511,716.345309523561
512,716.3192854486578
513,716.293650668518
514,716.2683781731528
515,716.2434414183398
516,716.2188148957408
517,716.1944746866928
518,716.1703989867483
519,716.1465685885552
520,716.1229673116374
521,716.0995823692575
522,716.0764046647298
523,716.0534290120817
524,716.0306542783911
525,716.008083446826
526,715.9857236002654
527,715.9635858260681
528,715.9416850436871
529,715.9200397581454
530,715.8986717434306
531,715.8776056610192
532,715.8568686207011
533,715.8364896934967
534,715.8164993888623
535,715.7969291099188
536,715.7778106008687
537,715.7591754000841
538,715.7410543106889
539,715.7234768982598
540,715.7064710230015
541,715.6900624117535
542,715.6742742736242
543,715.6591269618931
544,715.6446376839252
545,715.6308202601564
546,715.6176849327678
547,715.6052382243397
548,715.5934828464198
549,715.5824176575543
550,715.5720376698926
551,715.5623341031268
552,715.5532944846389
553,715.5449027952152
554,715.5371396597855
555,715.529982581742
556,715.5234062178799
557,715.5173826897617
558,715.5118819268416
559,715.5068720367641
560,715.5023196983352
561,715.4981905725003
562,715.4944497264584
563,715.4910620661078
564,715.4879927723886
565,715.4852077376182
566,715.4826739983358
567,715.4803601611742
568,715.4782368178697
569,715.4762769450952
570,715.4744562847695
571,715.4727537009795
572,715.4711515102878
573,715.4696357825106
574,715.4681966088808
575,715.4668283343594
576,715.4655297512988
577,715.4643042527023
578,715.4631599443018
579,715.4621097146461
580,715.461171261181
581,715.4603670688089
582,715.459724336592
583,715.4592748482233
584,715.4590547822729
585,715.4591044590017
586,715.4594680220465
587,715.4601930556554
588,715.4613301409264
589,715.4629323570556
590,715.4650547356588
591,715.4677536779465
592,715.4710863460272
593,715.475110040961
594,715.47988158138
595,715.485456697331
596,715.491889453899
597,715.4992317174931
598,715.5075326742813
599,715.516838405934
600,715.5271915238286
601,715.5386308601504
602,715.5511912130788
603,715.564903143126
604,715.5797928182602
605,715.5958819064263
606,715.6131875151749
607,715.6317221788219
608,715.6514938934641
609,715.6725061993435
610,715.6947583089385
611,715.7182452781522
612,715.7429582169951
613,715.7688845351207
614,715.7960082165229
615,715.8243101167565
616,715.8537682751542
617,715.8843582340351
618,715.9160533573794
619,715.9488251428222
620,715.9826435224237
621,716.0174771490174
622,716.0532936661078
623,716.0900599603199
624,716.1277423959812
625,716.1663070311342
626,716.2057198132413
627,716.2459467516677
628,716.2869540633181
629,716.3287082877464
630,716.3711763683467
631,716.4143256965243
632,716.4581241160216
633,716.5025398851297
634,716.5475415956392
635,716.5930980492486
636,716.6391780946286
637,716.6857504310254
638,716.732783386578
639,716.780244680879
640,716.8281011815229
641,716.8763186637407
642,716.9248615811966
643,716.9736928548524
644,717.0227736855693
645,717.0720633950953
646,717.1215192993925
647,717.1710966174469
648,717.2207484171065
649,717.2704255972782
650,717.3200769039333
651,717.3696489765902
652,717.4190864221363
653,717.4683319134365
654,717.5173263108845
655,717.5660088059518
656,717.6143170866133
657,717.6621875246805
658,717.7095553843485
659,717.7563550501698
660,717.802520271865
661,717.8479844230369
662,717.8926807706869
663,717.9365427521473
664,717.9795042557078
665,718.0214999010399
666,718.0624653154731
667,718.1023374020211
668,718.1410545950831
669,718.1785571006833
670,718.2147871199458
671,718.2496890560948
672,718.2832097055523
673,718.3152984330059
674,718.3459073299035
675,718.3749913564371
676,718.402508468427
677,718.428419732038
678,718.4526894306068
679,718.4752851686118
680,718.4961779775012
681,718.5153424269618
682,718.5327567441792
683,718.5484029430552
684,718.5622669644993
685,718.5743388271407
686,718.5846127854177
687,718.5930874900405
688,718.599766144874
689,718.6046566542934
690,718.6077717559232
691,718.6091291353874
692,718.6087515217546
693,718.6066667639719
694,718.6029078895148
695,718.5975131469183
696,718.5905260337045
697,718.5819953100616
698,718.5719749965823
699,718.5605243519304
700,718.547707823946
701,718.5335949658047
702,718.5182603081839
703,718.5017831796183
704,718.4842474701251
705,718.4657413363464
706,718.4463568484316
707,718.4261895794585
708,718.4053381383818
709,718.3839036484532
710,718.3619891752131
711,718.3396991111845
712,718.3171385274643
713,718.2944125047059
714,718.2716254571044
715,718.2488804629496
716,718.2262786143748
717,718.2039183975199
718,718.1818951126683
719,718.160300341992
720,718.1392214706552
721,718.1187412654768
722,718.0989375137307
723,718.079882722204
724,718.0616438737612
725,718.0442822367847
726,718.0278532225706
727,718.0124062861996
728,717.9979848666583
729,717.9846263620391
730,717.9723621360795
731,717.961217553438
732,717.9512120428863
733,717.9423591896142
734,717.9346668592896
735,717.9281373565312
736,717.9227676189536
737,717.9185494458392
738,717.9154697587985
739,717.9135108907113
740,717.9126508984729
741,717.9128638943796
742,717.9141203904937
743,717.9163876502635
744,717.9196300422
745,717.9238093914659
746,717.9288853264596
747,717.9348156185417
748,717.9415565137502
749,717.9490630557676
750,717.95728939957
751,717.9661891150868
752,717.9757154798532
753,717.9858217591817
754,717.9964614717187
755,718.0075886371409
756,718.0191580016618
757,718.0311252369668
758,718.0434471093627
759,718.0560816172984
760,718.0689880961601
761,718.0821272895143
762,718.0954613862556
763,718.1089540236221
764,718.1225702569479
765,718.1362764982786
766,718.1500404274014
767,718.1638308802733
768,718.1776177213382
769,718.1913717076374
770,718.2050643532307
771,718.2186678017937
772,718.2321547137497
773,718.2454981728266
774,718.2586716159334
775,718.2716487896516
776,718.2844037361764
777,718.2969108107981
778,718.3091447317456
779,718.3210806617053
780,718.3326943191119
781,718.3439621164111
782,718.3548613213771
783,718.3653702358998
784,718.3754683848621
785,718.3851367066723
786,718.394357737373
787,718.4031157819053
788,718.4113970684815
789,718.419189884488
790,718.4264846943641
791,718.4332742409651
792,718.439553631865
793,718.4453204112855
794,718.4505746174567
795,718.4553188246315
796,718.4595581688276
797,718.4633003565722
798,718.4665556561827
799,718.4693368711131
800,718.4716592945231
801,718.4735406436467
802,718.4750009720357
803,718.4760625576297
804,718.4767497651237
805,718.4770888823233
806,718.4771079318921
807,718.4768364616729
808,718.4763053181554
809,718.4755464083493
810,718.4745924551183
811,718.4734767501658
812,718.4722329079259
813,718.47089462312
814,718.4694954346636
815,718.4680684984763
816,718.46664637102
817,718.4652608039518
818,718.4639425485514
819,718.4627211672612
820,718.461624849137
821,718.4606802261528
822,718.4599121878504
823,718.4593436926094
824,718.4589955747423
825,718.4588863476821
826,718.4590320048654
827,718.4594458214347
828,718.4601381611175
829,718.4611162930486
830,718.4623842228012
831,718.4639425409608
832,718.4657882919622
833,718.4679148660897
834,718.4703119182673
835,718.4729653178708
836,718.4758571336728
837,718.4789656570193
838,718.48226546468
839,718.4857275208486
840,718.4893193158238
841,718.4930050373791
842,718.4967457701855
843,718.5004997189712
844,718.5042224521112
845,718.5078671634475
846,718.5113849507192
847,718.5147251086257
848,718.517835433523
849,718.5206625356801
850,718.5231521542935
851,718.5252494701188
852,718.5268994106611
853,718.5280469433989
854,718.5286373533119
855,718.5286165019722
856,718.5279310670404
857,718.5265287635634
858,718.5243585512476
859,718.521370833261
860,718.5175176512008
861,718.5127528783707
862,718.5070324110175
863,718.5003143556446
864,718.4925592099055
865,718.4837300343062
866,718.4737926116933
867,718.4627155912511
868,718.4504706135727
869,718.4370324133953
870,718.4223788970238
871,718.4064911924861
872,718.3893536720566
873,718.3709539486135
874,718.3512828486852
875,718.3303343654885
876,718.308105595063
877,718.2845966585103
878,718.2598106135787
879,718.2337533590113
880,718.2064335351212
881,718.1778624243856
882,718.1480538566236
883,718.1170241240468
884,718.08479191182
885,718.0513782499501
886,718.016806492448
887,717.9811023293389
888,717.9442938357287
889,717.9064115598933
890,717.86748864959
891,717.8275610128367
892,717.7866675068187
893,717.7448501470325
894,717.7021543284197
895,717.6586290506743
896,717.6143271405739
897,717.5693054646446
898,717.5236251254516
899,717.477351634529
900,717.4305550549187
901,717.383310106977
902,717.3356962325254
903,717.287797614021
904,717.2397031465366
905,717.1915063611491
906,717.1433052995319
907,717.0952023411521
908,717.0473039854743
909,716.9997205913326
910,716.9525660746257
911,716.9059575646093
912,716.8600150187654
913,716.8148607965015
914,716.770619192602
915,716.7274159322294
916,716.685377630211
917,716.6446312182964
