frame_number,force
0,717.705884067047
1,717.7079650474649
2,717.7101818716195
3,717.712414200665
4,717.7145382233824
5,717.7164275735829
6,717.71795427099
7,717.7189896824526
8,717.7194054983854
9,717.7190747171788
10,717.7178726290165
11,717.7156777895182
12,717.7123729724216
13,717.7078460902186
14,717.7019910731151
15,717.694708698884
16,717.6859073680287
17,717.6755038202175
18,717.6634237889511
19,717.6496025906798
20,717.6339856419753
21,717.6165288959284
22,717.5971991887842
23,717.5759744895859
24,717.5528440477523
25,717.5278084361859
26,717.5008794915987
27,717.4720801579953
28,717.4414442411493
29,717.4090160811709
30,717.3748501489991
31,717.3390105724604
32,717.3015705983618
33,717.2626119980138
34,717.2222244232842
35,717.1805047176265
36,717.1375561819806
37,717.0934877914159
38,717.0484133575552
39,717.0024506354864
40,716.9557203815185
41,716.9083453774151
42,716.8604494439203
43,716.8121564682226
44,716.7635894660309
45,716.7148696918724
46,716.6661158044739
47,716.6174430893882
48,716.5689627384182
49,716.5207811843287
50,716.472999489639
51,716.4257127898035
52,716.3790097928842
53,716.3329723387519
54,716.2876750207649
55,716.2431848720585
56,716.1995611166251
57,716.1568549819214
58,716.115109565631
59,716.0743597459494
60,716.0346321232928
61,715.9959449817701
62,715.9583082610883
63,715.921723534062
64,715.8861839910919
65,715.8516744386037
66,715.8181713206905
67,715.7856427714167
68,715.7540487018572
69,715.7233409238821
70,715.693463312583
71,715.6643520098877
72,715.6359356726996
73,715.6081357699586
74,715.5808669342531
75,715.5540373748884
76,715.5275493609554
77,715.5012997846211
78,715.4751808147391
79,715.4490806471691
80,715.4228843512597
81,715.3964748043054
82,715.3697337002478
83,715.3425426168252
84,715.3147841261092
85,715.2863429347385
86,715.257107039993
87,715.2269688853077
88,715.195826495005
89,715.1635845647858
90,715.1301554827783
91,715.0954602560703
92,715.0594293208011
93,715.0220032212557
94,714.9831331537705
95,714.9427813807739
96,714.9009215256427
97,714.8575387603155
98,714.812629897016
99,714.7662033945653
100,714.7182792888143
101,714.6688890556231
102,714.618075413331
103,714.5658920692072
104,714.5124034111343
105,714.457684143683
106,714.4018188690686
107,714.3449016181623
108,714.2870353419742
109,714.2283313767504
110,714.1689088948043
111,714.1088943493729
112,714.0484209173014
113,713.9876279399805
114,713.926660360859
115,713.8656681560758
116,713.8048057526352
117,713.7442314261397
118,713.6841066678129
119,713.624595509655
120,713.5658637989447
121,713.5080784194429
122,713.4514064642084
123,713.3960143702627
124,713.3420670270284
125,713.2897268701958
126,713.2391529719685
127,713.1905001371621
128,713.1439180124372
129,713.0995502146427
130,713.0575334849025
131,713.0179968771052
132,712.9810609911556
133,712.9468372610219
134,712.9154273051627
135,712.8869223443352
136,712.8614026909579
137,712.8389373147484
138,712.8195834896077
139,712.8033865255783
140,712.7903795873307
141,712.7805835977048
142,712.7740072216271
143,712.7706469225582
144,712.7704870815455
145,712.7735001686336
146,712.7796469567509
147,712.7888767679328
148,712.8011277410961
149,712.8163271111824
150,712.83439149288
151,712.8552271684295
152,712.8787303864333
153,712.9047876845864
154,712.933276252249
155,712.9640643482732
156,712.9970117855653
157,713.031970487753
158,713.0687851172642
159,713.1072937698806
160,713.1473287287845
161,713.1887172710333
162,713.231282520775
163,713.2748443454698
164,713.3192202929202
165,713.3642265673493
166,713.4096790418381
167,713.4553943027835
168,713.5011907206459
169,713.5468895399263
170,713.5923159784671
171,713.6373003214895
172,713.6816789915695
173,713.7252955746703
174,713.7680017845787
175,713.8096583518832
176,713.850135827024
177,713.8893152891874
178,713.9270889548491
179,713.9633606824555
180,713.9980463723616
181,714.0310742630431
182,714.0623851265851
183,714.0919323688497
184,714.1196820411782
185,714.1456127701194
186,714.1697156102482
187,714.191993823629
188,714.2124625884475
189,714.2311486396064
190,714.2480898465111
191,714.2633347375657
192,714.2769419855641
193,714.2889798713156
194,714.2995257430338
195,714.3086654861203
196,714.316493013389
197,714.323109780542
198,714.3286243258083
199,714.3331518268378
200,714.3368136639231
201,714.3397369770839
202,714.3420542049798
203,714.3439025958604
204,714.3454236845159
205,714.3467627326835
206,714.3480681315441
207,714.3494907637174
208,714.3511833206115
209,714.3532995711034
210,714.3559935790447
211,714.3594188680252
212,714.3637275313541
213,714.3690692853847
214,714.3755904680294
215,714.3834329914911
216,714.3927332650155
217,714.4036211060103
218,714.41621865591
219,714.430639313787
220,714.4469866991955
221,714.4653536569244
222,714.4858213186876
223,714.50845823864
224,714.5333196204485
225,714.5604466534214
226,714.5898659734585
227,714.6215892609993
228,714.6556129834898
229,714.6919182860935
230,714.7304710327567
231,714.7712219995816
232,714.814107222225
233,714.8590484982799
234,714.9059540441983
235,714.9547193036627
236,715.0052279005273
237,715.0573527259986
238,715.1109571479736
239,715.165896330248
240,715.2220186491672
241,715.2791671938195
242,715.3371813332384
243,715.3958983314019
244,715.4551549882159
245,715.5147892815392
246,715.5746419823628
247,715.6345582143674
248,715.6943889310545
249,715.7539922878436
250,715.8132348920792
251,715.8719929196507
252,715.9301530912915
253,715.9876135036354
254,716.0442843103339
255,716.1000882479607
256,716.1549610002778
257,716.2088513928762
258,716.2617214096197
259,716.3135460244698
260,716.3643128474823
261,716.4140215904768
262,716.4626833641083
263,716.5103198228069
264,716.5569621771107
265,716.6026500941861
266,716.6474305070805
267,716.691356352474
268,716.7344852561631
269,716.7768781856155
270,716.8185980901612
271,716.8597085514762
272,716.9002724683604
273,716.9403507989693
274,716.980001380982
275,717.0192778474583
276,717.0582286547165
277,717.0968962379833
278,717.1353163088646
279,717.1735173049741
280,717.2115199973648
281,717.2493372567924
282,717.2869739753512
283,717.3244271354804
284,717.3616860139001
285,717.398732504457
286,717.4355415422714
287,717.4720816124999
288,717.5083153291583
289,717.5442000705783
290,717.5796886575115
291,717.6147300591249
292,717.649270112653
293,717.6832522444242
294,717.7166181826699
295,717.7493086552038
296,717.7812640671646
297,717.812425155627
298,717.8427336196289
299,717.8721327261452
300,717.9005678941018
301,717.9279872588662
302,717.9543422182376
303,717.9795879576127
304,718.0036839474899
305,718.0265944028281
306,718.0482886931569
307,718.0687416945841
308,718.0879340774893
309,718.1058525250389
310,718.122489878547
311,718.1378452073781
312,718.151923803325
313,718.1647371015732
314,718.176302532581
315,718.1866433111888
316,718.1957881698984
317,718.2037710419787
318,718.2106306978984
319,718.21641033695
320,718.2211571358358
321,718.2249217580332
322,718.2277578316452
323,718.2297214076456
324,718.2308704132151
325,718.2312641152037
326,718.2309626067434
327,718.2300263270116
328,718.2285156215547
329,718.2264903487395
330,718.2240095362669
331,718.2211310902602
332,718.217911558471
333,718.2144059486892
334,718.2106676036387
335,718.2067481342392
336,718.2026974126826
337,718.1985636238422
338,718.1943933689475
339,718.1902318117673
340,718.1861228562173
341,718.1821093450059
342,718.1782332706005
343,718.1745359909326
344,718.1710584416442
345,718.167841335141
346,718.1649253363524
347,718.1623512066413
348,718.1601599098975
349,718.1583926778062
350,718.1570910346369
351,718.1562967852279
352,718.1560519720165
353,718.1563988069383
354,718.1573795818953
355,718.1590365582665
356,718.1614118325634
357,718.1645471724851
358,718.1684838167097
359,718.1732622341514
360,718.178921843096
361,718.1855006944548
362,718.1930351245398
363,718.2015593825158
364,718.2111052381342
365,718.2217015769021
366,718.2333739910432
367,718.2461443736619
368,718.2600305205125
369,718.2750457412839
370,718.2911984825193
371,718.3084919664885
372,718.3269238523758
373,718.3464859269947
374,718.3671638315667
375,718.3889368288101
376,718.4117776120465
377,718.4356521578396
378,718.4605196265928
379,718.486332319178
380,718.5130356988215
381,718.5405684852896
382,718.5688628248922
383,718.5978445377004
384,718.6274334433589
385,718.6575437666762
386,718.6880846212329
387,718.7189605644942
388,718.7500722148615
389,718.7813169209647
390,718.8125894738705
391,718.8437828511993
392,718.8747889789049
393,718.9054994945284
394,718.9358064972906
395,718.9656032747428
396,718.9947850003356
397,719.0232493990248
398,719.0508973777305
399,719.0776336142734
400,719.1033670946232
401,719.1280115871724
402,719.1514860455654
403,719.1737149367038
404,719.1946284951034
405,719.2141629066642
406,719.2322604235892
407,719.2488694091325
408,719.2639443086773
409,719.2774455444209
410,719.289339335252
411,719.2995974505287
412,719.3081969145032
413,719.315119684215
414,719.3203523252237
415,719.323885706576
416,719.325714731601
417,719.3258381170467
418,719.3242582297846
419,719.3209809863603
420,719.3160158153382
421,719.3093756763983
422,719.3010771248545
423,719.2911404064389
424,719.2795895643487
425,719.2664525383059
426,719.25176123504
427,719.235551552913
428,719.2178633498523
429,719.1987403505151
430,719.1782299933282
431,719.1563832201335
432,719.1332542106225
433,719.108900061131
434,719.0833804049015
435,719.056756971542
436,719.0290930879039
437,719.0004531289327
438,718.9709019329238
439,718.940504200125
440,718.9093238963075
441,718.8774236832566
442,718.8448643960423
443,718.8117045828471
444,718.7780001172046
445,718.743803884824
446,718.7091655392821
447,718.6741313158044
448,718.6387438919685
449,718.6030422867722
450,718.5670617921975
451,718.5308339334232
452,718.494386456098
453,718.4577433411306
454,718.4209248475684
455,718.3839475822687
456,718.3468245935682
457,718.3095654873694
458,718.2721765677157
459,718.2346610073539
460,718.1970190548624
461,718.1592482841316
462,718.121343891156
463,718.083299042884
464,718.0451052822252
465,718.0067529910431
466,717.9682319089198
467,717.9295317002577
468,717.8906425566375
469,717.8515558161039
470,717.812264577285
471,717.7727642853832
472,717.7330532700096
473,717.6931332206746
474,717.6530095917524
475,717.6126919326238
476,717.5721941404322
477,717.5315346337763
478,717.4907364467435
479,717.4498272442809
480,717.4088392616701
481,717.3678091719814
482,717.3267778852601
483,717.2857902824727
484,717.2448948866863
485,717.2041434730844
486,717.1635906173467
487,717.12329317938
488,717.0833097185813
489,717.0436998390954
490,717.0045234683297
491,716.965840077825
492,716.927707860905
493,716.8901828847494
494,716.8533182344019
495,716.8171631630141
496,716.781762258507
497,716.7471546344301
498,716.7133731533894
499,716.6804436945802
500,716.6483844818616
501,716.617205494706
502,716.5869079897533
503,716.5574841633645
504,716.5289169840897
505,716.5011802184775
506,716.4742386652276
507,716.4480486029278
508,716.422558447282
509,716.3977096056914
510,716.3734375102159
511,716.3496728046757
512,716.3263426586052
513,716.3033721791612
514,716.280685890154
515,716.2582092448871
516,716.2358701377973
517,716.2136003796978
518,716.1913371021409
519,716.1690240577252
520,716.1466127857096
521,716.1240636165803
522,716.101346495043
523,716.0784416076641
524,716.0553398078379
525,716.0320428352368
526,716.0085633290597
527,715.984924636101
528,715.9611604175931
529,715.9373140622016
530,715.9134379152454
531,715.8895923372171
532,715.8658446099
533,715.8422677153964
534,715.8189390198444
535,715.7959388977105
536,715.7733493336685
537,715.7512525371665
538,715.7297296002556
539,715.7088592232642
540,715.6887165267535
541,715.6693719627979
542,715.6508903344453
543,715.6333299291722
544,715.6167417698113
545,715.6011689847037
546,715.5866462977776
547,715.5731996385272
548,715.5608458710861
549,715.5495926407267
550,715.5394383351193
551,715.5303721569582
552,715.5223743050614
553,715.5154162626029
554,715.5094611916095
555,715.5044644306088
556,715.5003740883858
557,715.4971317236301
558,715.4946730991558
559,715.492928999765
560,715.4918261032026
561,715.4912878933234
562,715.4912356041705
563,715.4915891839124
564,715.4922682686702
565,715.4931931577631
566,715.4942857830563
567,715.4954706651026
568,715.4966758476374
569,715.4978338007536
570,715.4988822829488
571,715.4997651534283
572,715.5004331276848
573,715.5008444700645
574,715.5009656164139
575,715.5007717193216
576,715.5002471094674
577,715.4993856692266
578,715.4981911171255
579,715.496677201443
580,715.4948677977272
581,715.4927969006969
582,715.4905084985265
583,715.4880563171718
584,715.4855034232309
585,715.4829216757516
586,715.4803910213187
587,715.4779986330283
588,715.4758379013617
589,715.4740072917499
590,715.4726090891052
591,715.4717480541514
592,715.4715300203632
593,715.472060463915
594,715.4734430822582
595,715.4757784191955
596,715.4791625740595
597,715.4836860280415
598,715.4894326115274
599,715.4964786245521
600,715.5048921116576
601,715.5147322851341
602,715.526049087349
603,715.5388828826633
604,715.553264271124
605,715.5692140189486
606,715.5867431039704
607,715.6058528763228
608,715.6265353345541
609,715.6487735152542
610,715.6725419914317
611,715.6978074722813
612,715.7245294945163
613,715.752661192735
614,715.7821501336102
615,715.8129391962127
616,715.8449674784918
617,715.8781712087464
618,715.9124846423078
619,715.9478409274917
620,715.9841729292951
621,716.0214140030332
622,716.0594987133062
623,716.0983634965198
624,716.1379472667342
625,716.1781919638265
626,716.2190430400927
627,716.2604498781469
628,716.3023661309862
629,716.3447499748519
630,716.3875642662223
631,716.4307765949666
632,716.4743592263466
633,716.5182889259562
634,716.5625466646521
635,716.6071172054909
636,716.6519885813475
637,716.6971514791016
638,716.7425985524243
639,716.7883236887991
640,716.8343212569089
641,716.8805853586913
642,716.9271091075135
643,716.9738839506733
644,717.0208990510356
645,717.0681407397815
646,717.1155920503693
647,717.1632323415705
648,717.2110370131173
649,717.2589773114842
650,717.307020218243
651,717.3551284113536
652,717.4032602903391
653,717.4513700579648
654,717.4994078530626
655,717.547319931679
656,717.5950488960781
657,717.6425339716524
658,717.6897113299377
659,717.736514453079
660,717.7828745330183
661,717.8287208978778
662,717.8739814576873
663,717.9185831609517
664,717.9624524527644
665,718.0055157248369
666,718.0476997477855
667,718.0889320757207
668,718.1291414133707
669,718.1682579386184
670,718.2062135784378
671,718.2429422406391
672,718.2783800046725
673,718.3124652729143
674,718.3451388827718
675,718.376344181637
676,718.4060270704338
677,718.4341360256587
678,718.460622113491
679,718.4854390115929
680,718.5085430533328
681,718.529893306036
682,718.5494516920166
683,718.567183159464
684,718.5830559078836
685,718.5970416678531
686,718.6091160282504
687,718.6192587986303
688,718.6274543917181
689,718.6336922108371
690,718.6379670292822
691,718.6402793531433
692,718.6406357645105
693,718.6390492461928
694,718.6355394914154
695,718.6301332029655
696,718.6228643856156
697,718.6137746323124
698,718.6029133987935
699,718.5903382544618
700,718.5761150906912
701,718.5603182623845
702,718.5430306365732
703,718.5243435250255
704,718.5043564855241
705,718.4831769849396
706,718.4609199224427
707,718.4377070126149
708,718.4136660286134
709,718.3889299080297
710,718.3636357298562
711,718.3379235791632
712,718.3119353243893
713,718.2858133383656
714,718.2596991972403
715,718.233732391347
716,718.2080490795466
717,718.1827809147925
718,718.1580539642091
719,718.1339877418512
720,718.1106943672761
721,718.0882778589933
722,718.0668335675825
723,718.046447746747
724,718.0271972529301
725,718.0091493592133
726,717.9923616686116
727,717.9768821133254
728,717.9627490274088
729,717.9499912807051
730,717.9386284632968
731,717.9286711130571
732,717.9201209839723
733,717.9129713586264
734,717.9072074124012
735,717.9028066372017
736,717.8997393286298
737,717.8979691350003
738,717.8974536621469
739,717.8981451252308
740,717.8999910368123
741,717.9029349187053
742,717.9069170239131
743,717.911875054854
744,717.9177448656196
745,717.9244611389266
746,717.9319580318394
747,717.9401697872407
748,717.9490313099787
749,717.9584787077237
750,717.9684497970146
751,717.9788845746671
752,717.9897256537117
753,718.0009186617468
754,718.0124125976987
755,718.0241601398853
756,718.0361178952237
757,718.0482465791924
758,718.0605111192308
759,718.072880677887
760,718.0853285939452
761,718.0978322403959
762,718.1103727987593
763,718.1229349505642
764,718.1355064891181
765,718.1480778580561
766,718.1606416269188
767,718.1731919178274
768,718.1857238013557
769,718.1982326834566
770,718.2107137069146
771,718.2231611889515
772,718.2355681124509
773,718.2479256842271
774,718.2602229710063
775,718.2724466221347
776,718.2845806867376
777,718.2966065310229
778,718.3085028579407
779,718.3202458273042
780,718.331809271162
781,718.3431649967541
782,718.3542831663567
783,718.3651327387861
784,718.3756819524293
785,718.3858988268165
786,718.3957516607062
787,718.4052095091893
788,718.4142426287739
789,718.4228228861343
790,718.4309241317139
791,718.438522542257
792,718.4455969361778
793,718.4521290635504
794,718.4581038700833
795,718.4635097328129
796,718.4683386648059
797,718.4725864866647
798,718.4762529632883
799,718.4793419042734
800,718.4818612252675
801,718.4838229659458
802,718.485243258853
803,718.4861422429511
804,718.4865439170588
805,718.4864759316254
806,718.4859693218875
807,718.4850581902265
808,718.4837793492815
809,718.482171939171
810,718.4802770315747
811,718.4781372310067
812,718.4757962810157
813,718.4732986816555
814,718.4706893243367
815,718.4680131497662
816,718.4653148326859
817,718.4626384931823
818,718.460027429631
819,718.4575238647307
820,718.4551686946268
821,718.4530012315341
822,718.4510589317862
823,718.4493771034115
824,718.4479885899106
825,718.4469234298576
826,718.4462084956403
827,718.4458671188637
828,718.4459187133783
829,718.4463784080871
830,718.4472567004038
831,718.4485591387804
832,718.4502860411515
833,718.4524322567246
834,718.4549869806267
835,718.4579336326622
836,718.461249811212
837,718.4649073306532
838,718.468872346254
839,718.4731055652497
840,718.4775625375935
841,718.4821940158265
842,718.486946371834
843,718.491762059228
844,718.4965801128952
845,718.5013366803656
846,718.5059655812803
847,718.5103988903321
848,718.5145675363101
849,718.5184019070037
850,718.52183244777
851,718.5247902406699
852,718.5272075513335
853,718.5290183321708
854,718.5301586727364
855,718.5305671907379
856,718.5301853615043
857,718.5289577906772
858,718.5268324424403
859,718.5237608393651
860,718.5196982474235
861,718.5146038529258
862,718.5084409313104
863,718.5011770035443
864,718.4927839741883
865,718.4832382444397
866,718.4725207927471
867,718.4606172149186
868,718.4475177151942
869,718.43321703984
870,718.4177143460016
871,718.4010130013553
872,718.383120314446
873,718.364047200616
874,718.3438077922444
875,718.3224190032734
876,718.2999000574927
877,718.276271989845
878,718.2515571306874
879,718.2257785834863
880,718.1989597065939
881,718.1711236107124
882,718.142292685793
883,718.1124881731619
884,718.081729799652
885,718.0500354910528
886,718.0174211825816
887,717.9839007430843
888,717.9494860259867
889,717.9141870539062
890,717.8780123362867
891,717.8409693113583
892,717.8030648966378
893,717.7643061279116
894,717.7247008656037
895,717.684258548505
896,717.6429909765629
897,717.6009131055374
898,717.5580438361497
899,717.514406779403
900,717.4700309794662
901,717.4249515771642
902,717.3792104007683
903,717.332856474881
904,717.285946441
905,717.2385448852622
906,717.1907245718658
907,717.1425665847182
908,717.094160382307
909,717.0456037698201
910,716.9970027894831
911,716.9484715273761
912,716.9001318338899
913,716.8521129554124
914,716.8045510763791
915,716.7575887729317
916,716.7113743817106
917,716.6660612896644
