frame_number,force
0,717.7210221284597
1,717.7218290338556
2,717.7226420789821
3,717.7233555951318
4,717.7238613111085
5,717.7240491138685
6,717.723807830269
7,717.7230260268313
8,717.7215928229732
9,717.7193987115685
10,717.716336379724
11,717.7123015219063
12,717.7071936366714
13,717.7009167980314
14,717.693380393553
15,717.6844998228871
16,717.674197151786
17,717.6624017178176
18,717.6490506847479
19,717.6340895420707
20,717.6174725443361
21,717.5991630832282
22,717.5791339852972
23,717.5573677295956
24,717.5338565811043
25,717.5086026378436
26,717.4816177926089
27,717.4529236134307
28,717.4225511483213
29,717.3905406594214
30,717.356941290843
31,717.3218106744564
32,717.2852144785553
33,717.2472259050904
34,717.2079251410345
35,717.167398767603
36,717.1257391278492
37,717.0830436503107
38,717.0394141258546
39,716.9949559375784
40,716.9497772492132
41,716.9039881642208
42,716.857699873017
43,716.8110238071072
44,716.7640708160768
45,716.7169503783036
46,716.6697698513839
47,716.6226337648818
48,716.5756431561207
49,716.5288949489562
50,716.4824813756771
51,716.4364894432443
52,716.3910004463473
53,716.3460895303948
54,716.3018253074447
55,716.2582695274403
56,716.215476805651
57,716.1734944046635
58,716.1323620662386
59,716.0921118859102
60,716.0527682220821
61,716.0143476316047
62,715.9768588254216
63,715.9403026410442
64,715.9046720329987
65,715.8699520863744
66,715.8361200601358
67,715.8031454654877
68,715.7709901820442
69,715.7396086129809
70,715.7089478801738
71,715.6789480607258
72,715.649542466763
73,715.6206579710761
74,715.5922153819992
75,715.5641298717719
76,715.5363114637483
77,715.5086655849706
78,715.481093690483
79,715.4534939630338
80,715.4257620867547
81,715.3977920878575
82,715.3694772313472
83,715.3407109612456
84,715.3113878723277
85,715.2814047023649
86,715.2506613337456
87,715.2190617915178
88,715.1865152221475
89,715.1529368349778
90,715.1182487871397
91,715.0823809927978
92,715.0452718399313
93,715.0068688032294
94,714.9671289492247
95,714.9260193367253
96,714.8835173195465
97,714.8396107595262
98,714.7942981574563
99,714.7475887090123
100,714.69950229216
101,714.650069391805
102,714.5993309664672
103,714.547338260075
104,714.4941525597269
105,714.4398448988395
106,714.3844957061585
107,714.328194404575
108,714.2710389675699
109,714.2131354431611
110,714.1545974545731
111,714.0955456841592
112,714.036107343942
113,713.9764156337628
114,713.9166091865875
115,713.8568314992885
116,713.7972303457499
117,713.7379571674566
118,713.6791664351283
119,713.621014974351
120,713.5636612499164
121,713.5072646080434
122,713.4519844811402
123,713.3979795636299
124,713.3454069685945
125,713.2944213748016
126,713.2451741731627
127,713.1978126206008
128,713.1524790077017
129,713.1093098455573
130,713.0684350776564
131,713.0299773241098
132,712.9940511666802
133,712.9607624828095
134,712.930207835012
135,712.9024739200812
136,712.8776370818962
137,712.855762891941
138,712.8369058017657
139,712.8211088707143
140,712.8084035704543
141,712.7988096656461
142,712.7923351676908
143,712.788976356126
144,712.7887178606481
145,712.7915327964198
146,712.797382945501
147,712.8062189769669
148,712.8179806977207
149,712.832597326366
150,712.8499877848631
151,712.8700610071651
152,712.8927162693075
153,712.9178435496791
154,712.9453239303028
155,712.9750300495119
156,713.0068266135057
157,713.0405709697831
158,713.0761137410238
159,713.1132995148587
160,713.1519675834506
161,713.1919527267095
162,713.2330860339184
163,713.275195759937
164,713.3181082132348
165,713.3616486733072
166,713.4056423343484
167,713.4499152708606
168,713.4942954198782
169,713.5386135735386
170,713.5827043736945
171,713.626407296902
172,713.6695676151128
173,713.7120373166506
174,713.7536759737134
175,713.7943515454308
176,713.8339411080142
177,713.8723315052225
178,713.9094199139037
179,713.9451143213812
180,713.9793339134357
181,714.0120093730794
182,714.0430830918469
183,714.072509297138
184,714.1002541002961
185,714.1262954699247
186,714.1506231340103
187,714.1732384134197
188,714.1941539886866
189,714.2133936022904
190,714.230991700475
191,714.2469930218547
192,714.2614521435023
193,714.2744329975864
194,714.286008371837
195,714.2962594051081
196,714.3052750860608
197,714.3131517592789
198,714.3199926389301
199,714.3259073259356
200,714.3310113217673
201,714.3354255309182
202,714.3392757444511
203,714.3426920986823
204,714.3458085057997
205,714.3487620557589
206,714.3516923896623
207,714.3547410439487
208,714.3580507635979
209,714.3617647826313
210,714.3660260712671
211,714.3709765497457
212,714.3767562684635
213,714.3835025541332
214,714.3913491243329
215,714.400425177936
216,714.41085447375
217,714.4227544114656
218,714.4362351275151
219,714.45139861592
220,714.4683378830274
221,714.4871361458058
222,714.5078660849723
223,714.5305891654699
224,714.5553550373223
225,714.5822010296231
226,714.6111517490593
227,714.6422187916685
228,714.6754005730626
229,714.7106822795046
230,714.7480359409574
231,714.7874206270099
232,714.8287827663272
233,714.8720565896286
234,714.9171646951058
235,714.9640187331995
236,715.0125202048499
237,715.0625613647778
238,715.1140262200347
239,715.1667916138721
240,715.2207283848385
241,715.2757025899269
242,715.3315767786798
243,715.3882113032131
244,715.4454656472539
245,715.5031997550387
246,715.5612753388153
247,715.6195571430871
248,715.6779141452107
249,715.736220675044
250,715.7943574404162
251,715.8522124494234
252,715.9096818237871
253,715.9666704990477
254,716.0230928076186
255,716.0788729404023
256,716.1339452819348
257,716.1882546129939
258,716.2417561742869
259,716.2944155864836
260,716.3462086257289
261,716.3971208587159
262,716.4471471459951
263,716.4962910257068
264,716.544563992224
265,716.5919846851859
266,716.6385780042995
267,716.6843741647856
268,716.7294077080244
269,716.773716482079
270,716.8173406077043
271,716.8603214469933
272,716.9027005928106
273,716.9445188965637
274,716.9858155499452
275,717.0266272342886
276,717.0669873501591
277,717.1069253393474
278,717.1464661101867
279,717.1856295743909
280,717.224430300183
281,717.2628772830977
282,717.3009738325486
283,717.3387175689091
284,717.3761005225886
285,717.4131093239313
286,717.4497254715595
287,717.4859256673731
288,717.5216822078944
289,717.556963422395
290,717.5917341477665
291,717.625956229478
292,717.6595890382772
293,717.69258999364
294,717.7249150868635
295,717.7565193985769
296,717.7873576069215
297,717.8173844837701
298,717.8465553775735
299,717.8748266828254
300,717.9021562972309
301,717.9285040678948
302,717.9538322268005
303,717.9781058134259
304,718.0012930790625
305,718.0233658647763
306,718.0442999444994
307,718.0640753263718
308,718.0826765073784
309,718.1000926773078
310,718.1163178687277
311,718.1313510508977
312,718.1451961671794
313,718.1578621171128
314,718.1693626859485
315,718.1797164259002
316,718.1889464938608
317,718.1970804494323
318,718.2041500155915
319,718.2101908031692
320,718.21524200028
321,718.219346029352
322,718.2225481772482
323,718.2248962070374
324,718.2264399620137
325,718.2272309728345
326,718.2273220772213
327,718.2267670595032
328,718.2256203154333
329,718.2239365463923
330,718.2217704859387
331,718.2191766606445
332,718.2162091864739
333,718.2129216016438
334,718.2093667370558
335,718.2055966258338
336,718.2016624531938
337,718.1976145457653
338,718.1935023961756
339,718.1893747160474
340,718.1852795096056
341,718.1812641605992
342,718.1773755264542
343,718.173660034398
344,718.1701637738547
345,718.1669325783045
346,718.1640120895408
347,718.1614477983787
348,718.1592850577388
349,718.1575690661829
350,718.1563448223964
351,718.1556570535267
352,718.1555501218634
353,718.1560679143289
354,718.157253717718
355,718.1591500802954
356,718.1617986579269
357,718.1652400408643
358,718.1695135566395
359,718.1746570462494
360,718.1807066142059
361,718.1876963557715
362,718.1956580655514
363,718.204620931418
364,718.2146112180673
365,718.225651945603
366,718.2377625694171
367,718.2509586669245
368,718.2652516345261
369,718.2806483963501
370,718.2971511264547
371,718.3147569877392
372,718.3334578922667
373,718.3532402882829
374,718.3740849787063
375,718.3959669741732
376,718.4188553818632
377,718.44271333115
378,718.4674979392046
379,718.4931603222684
380,718.5196456591228
381,718.5468933116655
382,718.5748370049271
383,718.6034050672919
384,718.632520731649
385,718.6621024980236
386,718.6920645560841
387,718.722317262462
388,718.7527676655875
389,718.7833200706309
390,718.8138766373847
391,718.8443380026986
392,718.8746039167183
393,718.9045738807712
394,718.934147775851
395,718.9632264738099
396,718.9917124267087
397,719.0195102317814
398,719.0465271692567
399,719.072673707984
400,719.0978639710864
401,719.1220161530745
402,719.1450528819059
403,719.1669015231803
404,719.1874944269767
405,719.2067691192324
406,719.2246684386316
407,719.2411406178014
408,719.2561393060674
409,719.2696235316171
410,719.2815576040721
411,719.29191096365
412,719.3006579889454
413,719.3077777797848
414,719.3132539327694
415,719.3170743250023
416,719.319230918064
417,719.3197195913872
418,719.3185400118399
419,719.3156955435045
420,719.3111931978202
421,719.3050436199547
422,719.297261103479
423,719.2878636226784
424,719.2768728697987
425,719.2643142829224
426,719.2502170499431
427,719.2346140765133
428,719.217541910513
429,719.1990406204764
430,719.1791536288378
431,719.1579275023662
432,719.1354117017639
433,719.1116582905194
434,719.0867216013154
435,719.0606578587385
436,719.0335247602706
437,719.0053810221042
438,718.9762859005631
439,718.9462987031403
440,718.9154783050861
441,718.8838826876944
442,718.8515685128971
443,718.8185907457987
444,718.7850023324719
445,718.7508539347604
446,718.7161937180935
447,718.6810671846342
448,718.6455170437615
449,718.609583113744
450,718.5733022503726
451,718.5367082997473
452,718.4998320740101
453,718.46270135027
454,718.425340893011
455,718.3877724989048
456,718.3500150618346
457,718.3120846567956
458,718.2739946439528
459,718.2357557965947
460,718.1973764574917
461,718.1588627275769
462,718.1202186902659
463,718.0814466745725
464,718.0425475597035
465,718.0035211221843
466,717.9643664236437
467,717.9250822336256
468,717.8856674777284
469,717.8461216975924
470,717.8064455065587
471,717.7666410242069
472,717.7267122751323
473,717.6866655415654
474,717.6465096638027
475,717.6062562852574
476,717.5659200402167
477,717.5255186830681
478,717.4850731585643
479,717.444607613882
480,717.4041493545346
481,717.363728747031
482,717.3233790711081
483,717.2831363238687
484,717.2430389777737
485,717.2031276938332
486,717.1634449898505
487,717.1240348617551
488,717.0849423554836
489,717.0462130885209
490,717.0078927236879
491,716.9700264019704
492,716.9326581450256
493,716.8958302403186
494,716.8595826217314
495,716.8239522561441
496,716.7889725434877
497,716.7546727360105
498,716.7210773828924
499,716.6882058085976
500,716.6560716368681
501,716.6246823764797
502,716.5940390887511
503,716.5641361586835
504,716.5349611905023
505,716.5064950443754
506,716.478712024955
507,716.4515802253088
508,716.4250620230321
509,716.3991147194946
510,716.3736913082145
511,716.3487413545294
512,716.3242119665229
513,716.3000488359891
514,716.276197326827
515,716.2526035864596
516,716.2292156546657
517,716.2059845440835
518,716.18286526719
519,716.1598177855258
520,716.1368078588039
521,716.1138077746717
522,716.0907969441449
523,716.0677623526539
524,716.0446988613543
525,716.0216093566364
526,715.9985047473801
527,715.9754038107857
528,715.9523328897754
529,715.9293254474908
530,715.9064214863968
531,715.8836668417282
532,715.8611123628197
533,715.8388130009729
534,715.8168268272218
535,715.795214006346
536,715.7740357543248
537,715.7533533050544
538,715.7332269088935
539,715.7137148812772
540,715.6948727151877
541,715.6767522673674
542,715.6594010251196
543,715.6428614583158
544,715.6271704595166
545,715.6123588738257
546,715.5984511193024
547,715.5854648981841
548,715.5734109985581
549,715.5622931854471
550,715.5521081794975
551,715.5428457208718
552,715.5344887162516
553,715.5270134679193
554,715.5203899841699
555,715.5145823686192
556,715.5095492830835
557,715.5052444763514
558,715.5016173703248
559,715.4986136952394
560,715.496176165904
561,715.4942451906217
562,715.4927596041218
563,715.4916574159806
564,715.4908765667737
565,715.490355685271
566,715.4900348408122
567,715.4898562850075
568,715.4897651760916
569,715.4897102783907
570,715.4896446292764
571,715.4895261668726
572,715.4893183129944
573,715.4889905063385
574,715.4885186805377
575,715.4878856813269
576,715.487081617835
577,715.4861041449858
578,715.4849586758115
579,715.4836585223279
580,715.482224961138
581,715.4806872168813
582,715.4790823549255
583,715.4774550745107
584,715.4758573942232
585,715.4743482231147
586,715.4729928136741
587,715.471862097441
588,715.4710319094469
589,715.4705821126092
590,715.470595637205
591,715.4711574538657
592,715.4723535014377
593,715.4742695936634
594,715.4769903309683
595,715.4805980452759
596,715.4851718055701
597,715.490786508628
598,715.4975120726816
599,715.50541274326
600,715.5145465126117
601,715.5249646487914
602,715.536711328095
603,715.5498233643334
604,715.5643300296118
605,715.580252963276
606,715.5976061679179
607,715.616396092799
608,715.6366218049432
609,715.6582752465679
610,715.6813415754218
611,715.7057995826663
612,715.7316221811074
613,715.7587769545906
614,715.7872267573873
615,715.8169303505754
616,715.847843060731
617,715.8799174453574
618,715.9131039504566
619,715.9473515484034
620,715.9826083474605
621,716.0188221669532
622,716.0559410744248
623,716.0939138831486
624,716.132690609496
625,716.1722228891065
626,716.2124643487508
627,716.2533709284406
628,716.2949011469252
629,716.3370163035692
630,716.3796806101487
631,716.4228612466371
632,716.4665283355588
633,716.5106548305465
634,716.5552163169074
635,716.6001907256332
636,716.6455579671369
637,716.6912994962446
638,716.7373978244466
639,716.7838359980522
640,716.8305970612741
641,716.8776635219826
642,716.9250168358271
643,716.9726369221036
644,717.0205017223046
645,717.0685868102629
646,717.116865061444
647,717.1653063873398
648,717.2138775377866
649,717.262541969684
650,717.3112597769143
651,717.3599876747463
652,717.4086790324222
653,717.4572839488151
654,717.5057493674844
655,717.5540192292718
656,717.6020346622489
657,717.6497342091811
658,717.6970540912982
659,717.7439285050726
660,717.7902899471736
661,717.8360695621549
662,717.8811975071617
663,717.925603327441
664,717.9692163358275
665,718.0119659891051
666,718.0537822540853
667,718.0945959559979
668,718.134339101893
669,718.1729451736344
670,718.2103493887288
671,718.2464889304013
672,718.2813031489123
673,718.3147337347709
674,718.34672486369
675,718.3772233143412
676,718.4061785626332
677,718.4335428592317
678,718.4592712996879
679,718.4833218980156
680,718.5056556739141
681,718.5262367615808
682,718.5450325459936
683,718.5620138313526
684,718.5771550446569
685,718.5904344738492
686,718.6018345352032
687,718.6113420606979
688,718.6189485941902
689,718.6246506851245
690,718.6284501701314
691,718.630354436158
692,718.6303766627311
693,718.628536044033
694,718.6248579932019
695,718.6193743320425
696,718.6121234689172
697,718.6031505652207
698,718.5925076866887
699,718.5802539308958
700,718.5664555175468
701,718.5511858243411
702,718.5345253497751
703,718.5165615865906
704,718.4973887951817
705,718.4771076724337
706,718.455824915279
707,718.4336526793123
708,718.4107079331302
709,718.3871117108782
710,718.3629882696946
711,718.3384641646667
712,718.3136672599345
713,718.2887256990738
714,718.2637668600979
715,718.2389163203253
716,718.2142968545311
717,718.1900274870637
718,718.1662226153595
719,718.142991218563
720,718.1204361612921
721,718.0986535996154
722,718.0777324931814
723,718.05775422268
724,718.0387923062557
725,718.0209122048867
726,718.0041712062681
727,717.9886183777152
728,717.9742945792079
729,717.9612325279229
730,717.9494569065477
731,717.9389845100361
732,717.9298244290785
733,717.9219782726421
734,717.9154404348951
735,717.9101984119642
736,717.9062331711197
737,717.9035195709442
738,717.9020268277914
739,717.9017190218227
740,717.9025556344806
741,717.9044921079595
742,717.9074804163392
743,717.9114696379623
744,717.9164065197326
745,717.9222360261141
746,717.9289018680718
747,717.9363470093001
748,717.9445141484957
749,717.9533461772415
750,717.9627866134061
751,717.9727800097569
752,717.9832723367848
753,717.9942113378303
754,718.0055468532622
755,718.017231108252
756,718.0292189565075
757,718.041468072197
758,718.0539390845424
759,718.0665956522238
760,718.0794044761444
761,718.0923352496103
762,718.1053605454624
763,718.118455640672
764,718.1315982806195
765,718.1447683877265
766,718.157947721854
767,718.1711195026613
768,718.1842680070455
769,718.197378157522
770,718.2104351185811
771,718.2234239167279
772,718.2363290969232
773,718.2491344252194
774,718.2618226453967
775,718.27437529621
776,718.2867725949187
777,718.2989933913008
778,718.311015193828
779,718.3228142667034
780,718.3343657940552
781,718.3456441057957
782,718.3566229574526
783,718.3672758529942
784,718.3775763961108
785,718.3874986533448
786,718.3970175131426
787,718.4061090281656
788,718.4147507328568
789,718.4229219331074
790,718.430603968843
791,718.4377804524265
792,718.4444374856563
793,718.4505638565996
794,718.4561512157552
795,718.4611942298643
796,718.4656907113739
797,718.4696417219277
798,718.4730516487462
799,718.475928252717
800,718.4782826862568
801,718.4801294778308
802,718.4814864790028
803,718.4823747696089
804,718.4828185176418
805,718.4828447928013
806,718.4824833360138
807,718.4817662906872
808,718.4807279041843
809,718.4794042093176
810,718.4778326952465
811,718.4760519754282
812,718.4741014584075
813,718.472021026244
814,718.4698507252109
815,718.4676304731242
816,718.4653997862235
817,718.4631975256849
818,718.4610616604501
819,718.4590290404487
820,718.4571351732354
821,718.4554139973633
822,718.4538976469025
823,718.4526162030791
824,718.4515974308538
825,718.4508665003892
826,718.4504456959987
827,718.4503541182045
828,718.4506073869959
829,718.4512173552221
830,718.4521918401064
831,718.4535343790764
832,718.4552440149474
833,718.4573151158928
834,718.459737237113
835,718.4624950323599
836,718.4655682232786
837,718.4689316325956
838,718.4725552839604
839,718.4764045674347
840,718.4804404658316
841,718.4846198341704
842,718.4888957232744
843,718.4932177392328
844,718.4975324324561
845,718.5017837122888
846,718.5059132843168
847,718.5098611068365
848,718.5135658609747
849,718.5169654268609
850,718.5199973568489
851,718.522599336135
852,718.524709621309
853,718.5262674484323
854,718.5272134038358
855,718.5274897527676
856,718.5270407241705
857,718.5258127548944
858,718.5237547021203
859,718.5208180355105
860,718.5169570187852
861,718.5121288855302
862,718.5062940091221
863,718.499416063656
864,718.4914621715419
865,718.4824030329138
866,718.4722130314847
867,718.4608703110015
868,718.4483568161386
869,718.4346582917291
870,718.4197642350923
871,718.4036677982338
872,718.3863656398402
873,718.3678577306033
874,718.3481471181573
875,718.3272396588063
876,718.3051437228456
877,718.2818698801021
878,718.2574305727919
879,718.2318397831601
880,718.2051127034644
881,718.1772654165311
882,718.1483145966362
883,718.1182772419053
884,718.0871704501178
885,718.055011250153
886,718.0218165015715
887,717.9876028740792
888,717.9523869159323
889,717.9161852158982
890,717.8790146579204
891,717.8408927617835
892,717.8018380979496
893,717.7618707616333
894,717.7210128904289
895,717.6792892105826
896,717.6367275982496
897,717.5933596428904
898,717.5492211998474
899,717.5043529184836
900,717.4588007320858
901,717.4126162969624
902,717.3658573708511
903,717.3185881237575
904,717.2708793764178
905,717.2228087630239
906,717.1744608170728
907,717.125926982204
908,717.0773055517197
909,717.0287015398684
910,716.9802264858255
911,716.9319981894396
912,716.8841403770881
913,716.8367822963813
914,716.7900582396477
915,716.7441069977347
916,716.699071247386
917,716.6550968772281
