frame_number,force
0,717.7210221315164
1,717.7218290369083
2,717.7226420820213
3,717.7233555981479
4,717.7238613140922
5,717.7240491168108
6,717.7238078331611
7,717.7230260296657
8,717.7215928257436
9,717.7193987142705
10,717.7163363823545
11,717.7123015244634
12,717.7071936391543
13,717.7009168004403
14,717.6933803958894
15,717.6844998251538
16,717.6741971539867
17,717.6624017199574
18,717.6490506868327
19,717.6340895441073
20,717.6174725463318
21,717.5991630851904
22,717.5791339872334
23,717.5573677315128
24,717.5338565830087
25,717.5086026397404
26,717.4816177945021
27,717.4529236153244
28,717.4225511502189
29,717.3905406613248
30,717.3569412927535
31,717.3218106763746
32,717.2852144804818
33,717.2472259070255
34,717.2079251429776
35,717.1673987695534
36,717.1257391298064
37,717.0830436522749
38,717.039414127826
39,716.9949559395577
40,716.949777251201
41,716.9039881662176
42,716.8576998750233
43,716.8110238091228
44,716.7640708181019
45,716.716950380338
46,716.6697698534269
47,716.6226337669331
48,716.5756431581792
49,716.5288949510212
50,716.4824813777484
51,716.4364894453216
52,716.3910004484304
53,716.3460895324832
54,716.3018253095378
55,716.2582695295378
56,716.215476807753
57,716.1734944067712
58,716.1323620683524
59,716.0921118880308
60,716.0527682242094
61,716.0143476337382
62,715.9768588275606
63,715.9403026431874
64,715.9046720351448
65,715.8699520885224
66,715.8361200622847
67,715.8031454676367
68,715.7709901841923
69,715.7396086151268
70,715.7089478823166
71,715.6789480628647
72,715.6495424688974
73,715.6206579732049
74,715.5922153841209
75,715.5641298738846
76,715.5363114658497
77,715.5086655870588
78,715.4810936925566
79,715.4534939650915
80,715.425762088796
81,715.3977920898819
82,715.3694772333549
83,715.3407109632369
84,715.3113878743031
85,715.2814047043246
86,715.2506613356896
87,715.2190617934456
88,715.1865152240588
89,715.1529368368729
90,715.1182487890197
91,715.0823809946648
92,715.0452718417882
93,715.0068688050798
94,714.9671289510723
95,714.926019338574
96,714.8835173214002
97,714.8396107613886
98,714.7942981593312
99,714.7475887109035
100,714.6995022940712
101,714.6500693937396
102,714.5993309684281
103,714.5473382620652
104,714.4941525617489
105,714.4398449008958
106,714.3844957082512
107,714.3281944067057
108,714.2710389697405
109,714.2131354453738
110,714.1545974568305
111,714.0955456864644
112,714.0361073462983
113,713.9764156361734
114,713.9166091890557
115,713.856831501817
116,713.7972303483407
117,713.7379571701114
118,713.6791664378479
119,713.6210149771356
120,713.5636612527654
121,713.5072646109559
122,713.4519844841145
123,713.3979795666637
124,713.3454069716853
125,713.2944213779465
126,713.2451741763589
127,713.1978126238457
128,713.152479010993
129,713.1093098488925
130,713.068435081033
131,713.0299773275252
132,712.9940511701312
133,712.9607624862924
134,712.9302078385222
135,712.9024739236139
136,712.8776370854464
137,712.8557628955036
138,712.8369058053361
139,712.8211088742879
140,712.8084035740268
141,712.7988096692129
142,712.7923351712477
143,712.7889763596688
144,712.7887178641729
145,712.791532799923
146,712.7973829489794
147,712.8062189804173
148,712.8179807011398
149,712.8325973297506
150,712.8499877882097
151,712.8700610104707
152,712.8927162725698
153,712.9178435528967
154,712.945323933475
155,712.9750300526389
156,713.0068266165879
157,713.0405709728217
158,713.0761137440209
159,713.1132995178167
160,713.151967586373
161,713.1919527295996
162,713.2330860367795
163,713.2751957627715
164,713.3181082160451
165,713.3616486760949
166,713.4056423371146
167,713.4499152736054
168,713.494295422601
169,713.5386135762386
170,713.5827043763711
171,713.6264072995544
172,713.6695676177399
173,713.7120373192508
174,713.7536759762846
175,713.7943515479702
176,713.8339411105187
177,713.8723315076892
178,713.90941991633
179,713.9451143237656
180,713.979333915777
181,714.0120093753774
182,714.0430830941015
183,714.0725092993499
184,714.1002541024664
185,714.1262954720546
186,714.1506231361018
187,714.1732384154757
188,714.1941539907108
189,714.2133936042868
190,714.2309917024484
191,714.24699302381
192,714.2614521454444
193,714.2744329995197
194,714.2860083737655
195,714.296259407035
196,714.3052750879887
197,714.3131517612097
198,714.3199926408652
199,714.3259073278759
200,714.3310113237131
201,714.3354255328691
202,714.3392757464056
203,714.3426921006386
204,714.3458085077559
205,714.3487620577133
206,714.3516923916135
207,714.3547410458955
208,714.3580507655391
209,714.3617647845659
210,714.3660260731947
211,714.3709765516662
212,714.3767562703773
213,714.3835025560408
214,714.3913491262352
215,714.4004251798342
216,714.4108544756454
217,714.4227544133591
218,714.4362351294078
219,714.4513986178123
220,714.4683378849198
221,714.4871361476994
222,714.5078660868687
223,714.5305891673717
224,714.5553550392326
225,714.5822010315457
226,714.6111517509986
227,714.6422187936298
228,714.6754005750519
229,714.7106822815281
230,714.7480359430208
231,714.7874206291187
232,714.8287827684866
233,714.8720565918433
234,714.91716469738
235,714.9640187355376
236,715.0125202072556
237,715.0625613672544
238,715.114026222585
239,715.1667916164984
240,715.2207283875418
241,715.2757025927075
242,715.331576781536
243,715.3882113061421
244,715.4454656502522
245,715.5031997581019
246,715.5612753419379
247,715.6195571462629
248,715.6779141484333
249,715.7362206783074
250,715.7943574437151
251,715.8522124527531
252,715.9096818271438
253,715.9666705024289
254,716.0230928110228
255,716.0788729438292
256,716.1339452853845
257,716.1882546164672
258,716.2417561777847
259,716.2944155900061
260,716.3462086292753
261,716.3971208622845
262,716.4471471495829
263,716.4962910293096
264,716.5445639958369
265,716.591984688803
266,716.6385780079135
267,716.6843741683889
268,716.7294077116093
269,716.7737164856378
270,716.8173406112302
271,716.86032145048
272,716.9027005962524
273,716.9445188999558
274,716.9858155532826
275,717.0266272375669
276,717.0669873533742
277,717.1069253424954
278,717.1464661132638
279,717.1856295773936
280,717.2244303031081
281,717.2628772859424
282,717.3009738353111
283,717.3387175715886
284,717.3761005251852
285,717.4131093264463
286,717.449725473995
287,717.485925669732
288,717.5216822101798
289,717.5569634246106
290,717.5917341499162
291,717.6259562315666
292,717.65958904031
293,717.6925899956224
294,717.7249150888005
295,717.7565194004734
296,717.7873576087823
297,717.8173844855995
298,717.846555379376
299,717.8748266846051
300,717.9021562989917
301,717.9285040696409
302,717.9538322285368
303,717.9781058151576
304,718.0012930807948
305,718.0233658665147
306,718.0442999462495
307,718.0640753281391
308,718.0826765091678
309,718.100092679124
310,718.116317870576
311,718.1313510527831
312,718.145196169107
313,718.1578621190876
314,718.1693626879752
315,718.1797164279835
316,718.188946496005
317,718.1970804516407
318,718.2041500178668
319,718.2101908055143
320,718.2152420026979
321,718.2193460318459
322,718.2225481798215
323,718.2248962096933
324,718.2264399647548
325,718.2272309756625
326,718.2273220801374
327,718.2267670625081
328,718.225620318527
329,718.2239365495748
330,718.2217704892095
331,718.2191766640029
332,718.2162091899187
333,718.212921605173
334,718.2093667406675
335,718.2055966295254
336,718.2016624569623
337,718.1976145496072
338,718.1935024000873
339,718.1893747200248
340,718.1852795136448
341,718.1812641646957
342,718.1773755306033
343,718.1736600385947
344,718.1701637780938
345,718.1669325825812
346,718.1640120938514
347,718.1614478027195
348,718.1592850621067
349,718.1575690705752
350,718.1563448268099
351,718.1556570579589
352,718.1555501263118
353,718.1560679187915
354,718.1572537221931
355,718.1591500847819
356,718.1617986624243
357,718.1652400453722
358,718.169513561157
359,718.1746570507755
360,718.1807066187381
361,718.1876963603062
362,718.1956580700833
363,718.2046209359412
364,718.2146112225743
365,718.2256519500854
366,718.2377625738662
367,718.2509586713315
368,718.265251638882
369,718.2806484006451
370,718.2971511306788
371,718.314756991883
372,718.3334578963212
373,718.3532402922399
374,718.3740849825587
375,718.395966977915
376,718.4188553854891
377,718.4427133346557
378,718.4674979425861
379,718.4931603255222
380,718.5196456622465
381,718.5468933146581
382,718.5748370077887
383,718.603405070024
384,718.6325207342541
385,718.6621025005051
386,718.6920645584466
387,718.7223172647115
388,718.7527676677312
389,718.7833200726773
390,718.8138766393436
391,718.8443380045812
392,718.8746039185374
393,718.9045738825398
394,718.9341477775827
395,718.9632264755177
396,718.9917124284052
397,719.0195102334786
398,719.0465271709656
399,719.0726737097143
400,719.097863972847
401,719.1220161548731
402,719.1450528837493
403,719.166901525074
404,719.1874944289256
405,719.2067691212401
406,719.2246684407008
407,719.2411406199343
408,719.2561393082657
409,719.2696235338822
410,719.2815576064052
411,719.2919109660518
412,719.3006579914158
413,719.3077777823239
414,719.3132539353771
415,719.3170743276783
416,719.3192309208071
417,719.3197195941959
418,719.3185400147124
419,719.3156955464384
420,719.3111932008125
421,719.3050436230017
422,719.2972611065767
423,719.2878636258223
424,719.2768728729833
425,719.2643142861416
426,719.2502170531902
427,719.2346140797815
428,719.2175419137958
429,719.1990406237674
430,719.1791536321308
431,719.157927505655
432,719.1354117050422
433,719.1116582937807
434,719.0867216045535
435,719.0606578619471
436,719.033524763443
437,719.0053810252336
438,718.9762859036431
439,718.9462987061646
440,718.9154783080493
441,718.883882690592
442,718.8515685157257
443,718.8185907485552
444,718.7850023351535
445,718.7508539373655
446,718.7161937206212
447,718.6810671870842
448,718.6455170461334
449,718.6095831160377
450,718.5733022525887
451,718.5367083018862
452,718.4998320760726
453,718.462701352257
454,718.4253408949237
455,718.3877725007443
456,718.3500150636024
457,718.3120846584943
458,718.2739946455856
459,718.2357557981659
460,718.197376459006
461,718.1588627290396
462,718.1202186916828
463,718.0814466759499
464,718.0425475610489
465,718.0035211235058
466,717.9643664249502
467,717.9250822349264
468,717.8856674790335
469,717.8461216989124
470,717.8064455079041
471,717.7666410255875
472,717.7267122765577
473,717.6866655430449
474,717.6465096653455
475,717.606256286872
476,717.565920041911
477,717.5255186848482
478,717.485073160435
479,717.444607615847
480,717.4041493565966
481,717.3637287491914
482,717.3233790733669
483,717.2831363262242
484,717.2430389802228
485,717.2031276963717
486,717.1634449924735
487,717.124034864457
488,717.0849423582579
489,717.0462130913603
490,717.0078927265846
491,716.970026404916
492,716.9326581480108
493,716.8958302433338
494,716.8595826247665
495,716.8239522591889
496,716.7889725465324
497,716.754672739046
498,716.7210773859101
499,716.68820581159
500,716.6560716398286
501,716.6246823794028
502,716.5940390916323
503,716.5641361615197
504,716.5349611932925
505,716.5064950471203
506,716.4787120276569
507,716.4515802279707
508,716.4250620256574
509,716.3991147220871
510,716.3736913107774
511,716.3487413570657
512,716.3242119690352
513,716.3000488384798
514,716.2761973292982
515,716.2526035889135
516,716.2292156571048
517,716.2059845465104
518,716.1828652696072
519,716.1598177879354
520,716.1368078612076
521,716.1138077770712
522,716.0907969465418
523,716.0677623550499
524,716.044698863751
525,716.0216093590352
526,715.9985047497823
527,715.9754038131928
528,715.9523328921894
529,715.9293254499141
530,715.9064214888332
531,715.883666844182
532,715.8611123652954
533,715.8388130034754
534,715.8168268297559
535,715.7952140089163
536,715.7740357569353
537,715.7533533077082
538,715.7332269115935
539,715.713714884026
540,715.6948727179869
541,715.676752270218
542,715.6594010280224
543,715.6428614612718
544,715.6271704625259
545,715.6123588768882
546,715.5984511224177
547,715.5854649013517
548,715.5734110017771
549,715.5622931887174
550,715.5521081828191
551,715.5428457242447
552,715.5344887196753
553,715.5270134713928
554,715.5203899876916
555,715.5145823721873
556,715.509549286696
557,715.5052444800057
558,715.5016173740178
559,715.4986136989678
560,715.4961761696637
561,715.4942451944086
562,715.4927596079311
563,715.491657419807
564,715.4908765706111
565,715.4903556891129
566,715.4900348446515
567,715.4898562888363
568,715.4897651799017
569,715.4897102821733
570,715.4896446330225
571,715.4895261705728
572,715.4893183166396
573,715.4889905099191
574,715.488518684044
575,715.4878856847497
576,715.4870816211658
577,715.4861041482171
578,715.4849586789368
579,715.4836585253415
580,715.4822249640354
581,715.4806872196588
582,715.4790823575798
583,715.4774550770394
584,715.4758573966242
585,715.4743482253864
586,715.4729928158152
587,715.4718620994506
588,715.4710319113244
589,715.470582114355
590,715.4705956388203
591,715.4711574553529
592,715.4723535028004
593,715.4742695949059
594,715.4769903320959
595,715.4805980462941
596,715.4851718064853
597,715.4907865094472
598,715.4975120734128
599,715.5054127439124
600,715.5145465131952
601,715.5249646493168
602,715.5367113285731
603,715.5498233647751
604,715.5643300300276
605,715.5802529636763
606,715.5976061683124
607,715.6163960931964
608,715.6366218053508
609,715.6582752469927
610,715.6813415758704
611,715.7057995831452
612,715.7316221816235
613,715.7587769551508
614,715.7872267579978
615,715.8169303512415
616,715.8478430614568
617,715.8799174461461
618,715.9131039513103
619,715.9473515493232
620,715.9826083484475
621,716.0188221680078
622,716.0559410755471
623,716.0939138843382
624,716.1326906107522
625,716.1722228904282
626,716.2124643501361
627,716.2533709298871
628,716.2949011484296
629,716.3370163051273
630,716.3796806117556
631,716.422861248287
632,716.466528337246
633,716.5106548322651
634,716.5552163186511
635,716.6001907273957
636,716.6455579689123
637,716.6912994980272
638,716.7373978262316
639,716.7838359998352
640,716.8305970630516
641,716.8776635237514
642,716.9250168375838
643,716.9726369238447
644,717.0205017240268
645,717.068586811963
646,717.1168650631191
647,717.1653063889873
648,717.2138775394044
649,717.262541971271
650,717.3112597784705
651,717.3599876762719
652,717.4086790339185
653,717.457283950284
654,717.505749368929
655,717.5540192306956
656,717.6020346636564
657,717.6497342105765
658,717.6970540926862
659,717.7439285064584
660,717.7902899485623
661,717.8360695635516
662,717.8811975085719
663,717.9256033288701
664,717.9692163372815
665,718.0119659905898
666,718.0537822556065
667,718.094595957561
668,718.1343391035024
669,718.1729451752938
670,718.2103493904409
671,718.2464889321677
672,718.2813031507336
673,718.3147337366465
674,718.3467248656187
675,718.3772233163213
676,718.4061785646624
677,718.4335428613074
678,718.4592713018071
679,718.483321900175
680,718.5056556761103
681,718.5262367638098
682,718.5450325482515
683,718.5620138336349
684,718.577155046959
685,718.5904344761657
686,718.601834537528
687,718.6113420630245
688,718.6189485965122
689,718.6246506874356
690,718.6284501724257
691,718.6303544384298
692,718.630376664975
693,718.6285360462442
694,718.6248579953767
695,718.6193743341786
696,718.6121234710131
697,718.6031505672761
698,718.5925076887038
699,718.5802539328715
700,718.5664555194846
701,718.5511858262424
702,718.5345253516413
703,718.5165615884225
704,718.4973887969801
705,718.4771076741991
706,718.4558249170119
707,718.433652681013
708,718.4107079347986
709,718.3871117125143
710,718.3629882712984
711,718.3384641662383
712,718.3136672614739
713,718.2887257005813
714,718.2637668615736
715,718.2389163217688
716,718.2142968559417
717,718.1900274884408
718,718.1662226167025
719,718.142991219871
720,718.1204361625635
721,718.0986536008483
722,718.0777324943734
723,718.0577542238287
724,718.0387923073583
725,718.0209122059406
726,718.0041712072702
727,717.9886183786622
728,717.9742945800965
729,717.9612325287495
730,717.9494569073086
731,717.938984510727
732,717.9298244296947
733,717.9219782731784
734,717.9154404353462
735,717.9101984123249
736,717.9062331713851
737,717.9035195711106
738,717.9020268278555
739,717.901719021783
740,717.9025556343369
741,717.904492107713
742,717.9074804159928
743,717.9114696375203
744,717.9164065192008
745,717.922236025499
746,717.9289018673811
747,717.9363470085427
748,717.9445141476817
749,717.9533461763821
750,717.9627866125134
751,717.9727800088439
752,717.9832723358656
753,717.9942113369199
754,718.0055468523765
755,718.0172311074077
756,718.0292189557221
757,718.0414680714874
758,718.0539390839259
759,718.0665956517169
760,718.0794044757631
761,718.0923352493699
762,718.1053605453769
763,718.1184556407544
764,718.1315982808816
765,718.1447683881784
766,718.1579477225047
767,718.1711195035178
768,718.1842680081133
769,718.1973781588049
770,718.2104351200803
771,718.2234239184426
772,718.2363290988502
773,718.2491344273535
774,718.261822647731
775,718.2743752987358
776,718.2867725976257
777,718.2989933941773
778,718.311015196861
779,718.3228142698792
780,718.3343657973595
781,718.3456441092139
782,718.3566229609702
783,718.3672758565966
784,718.3775763997837
785,718.3874986570745
786,718.3970175169161
787,718.4061090319705
788,718.4147507366818
789,718.4229219369423
790,718.430603972678
791,718.4377804562523
792,718.4444374894639
793,718.4505638603807
794,718.4561512195023
795,718.4611942335704
796,718.4656907150327
797,718.4696417255341
798,718.4730516522959
799,718.4759282562069
800,718.4782826896843
801,718.4801294811946
802,718.481486482302
803,718.4823747728433
804,718.4828185208113
805,718.482844795906
806,718.4824833390544
807,718.4817662936647
808,718.4807279071
809,718.4794042121731
810,718.4778326980437
811,718.4760519781693
812,718.4741014610954
813,718.472021028882
814,718.4698507278025
815,718.4676304756734
816,718.4653997887344
817,718.4631975281618
818,718.4610616628978
819,718.4590290428719
820,718.4571351756388
821,718.4554139997514
822,718.4538976492796
823,718.4526162054487
824,718.4515974332191
825,718.450866502753
826,718.4504456983631
827,718.4503541205715
828,718.4506073893682
829,718.4512173576023
830,718.4521918424974
831,718.4535343814813
832,718.4552440173696
833,718.4573151183358
834,718.459737239581
835,718.4624950348576
836,718.465568225811
837,718.4689316351681
838,718.4725552865787
839,718.4764045701037
840,718.4804404685561
841,718.4846198369548
842,718.4888957261231
843,718.4932177421505
844,718.497532435447
845,718.5017837153575
846,718.5059132874675
847,718.5098611100734
848,718.5135658643014
849,718.5169654302804
850,718.5199973603634
851,718.522599339746
852,718.5247096250167
853,718.5262674522369
854,718.527213407736
855,718.5274897567615
856,718.527040728256
857,718.5258127590687
858,718.5237547063805
859,718.5208180398535
860,718.5169570232074
861,718.5121288900278
862,718.506294013691
863,718.4994160682916
864,718.4914621762398
865,718.4824030376694
866,718.4722130362934
867,718.4608703158589
868,718.4483568210404
869,718.4346582966712
870,718.4197642400699
871,718.4036678032417
872,718.3863656448732
873,718.3678577356563
874,718.3481471232252
875,718.3272396638841
876,718.3051437279282
877,718.2818698851845
878,718.2574305778696
879,718.2318397882291
880,718.2051127085206
881,718.1772654215707
882,718.1483146016556
883,718.118277246901
884,718.087170455087
885,718.0550112550933
886,718.021816506481
887,717.987602878956
888,717.9523869207746
889,717.9161852207051
890,717.8790146626909
891,717.840892766517
892,717.8018381026455
893,717.7618707662912
894,717.7210128950479
895,717.6792892151612
896,717.6367276027859
897,717.5933596473816
898,717.5492212042906
899,717.5043529228759
900,717.4588007364242
901,717.4126163012437
902,717.3658573750719
903,717.3185881279139
904,717.270879380506
905,717.2228087670397
906,717.1744608210118
907,717.1259269860614
908,717.0773055554911
909,717.0287015435498
910,716.9802264894138
911,716.9319981929323
912,716.884140380483
913,716.8367822996763
914,716.7900582428409
915,716.7441070008251
916,716.6990712503732
917,716.6550968801121
