acceleration,velocity,displacement
0.03615662243024202,0.0,0.0
0.03566424122659654,1.795521591420964e-05,4.48880397855241e-09
0.03511278611206284,3.564947274887448e-05,1.788997614432344e-08
0.034503088386005146,5.305344137339148e-05,4.006570467488993e-08
0.0338361418880233,7.013824894189859e-05,7.086362725371246e-08
0.0331131005159595,8.687555954289429e-05,1.1011707937491068e-07
0.03233527512539895,0.00010323765345323391,1.5764538262394272e-07
0.031504129798433825,0.0001191975046841921,2.132541721582992e-07
0.03062127746052186,0.00013472885649893103,2.7673576245408e-07
0.029688474809977928,0.00014980629456655598,3.4786955022045177e-07
0.02870761652198867,0.00016440531739954763,4.264224532119777e-07
0.02768072870581707,0.00017850240370649906,5.121493834884893e-07
0.02660996162170276,0.00019207507628837904,6.047937534872089e-07
0.025497581690932653,0.00020510196211653787,7.040880130884382e-07
0.024345962852795146,0.0002175628482524698,8.097542156806901e-07
0.023157577332876468,0.00022943873329888772,9.215046110685295e-07
0.021934985887711044,0.0002407118741040346,1.03904226291926e-06
0.02068082758710977,0.0002513658274727398,1.1620616883134536e-06
0.019397809197423992,0.00026138548666887327,1.290249516848857e-06
0.018088694240447286,0.0002707571125283411,1.4232851666481606e-06
0.01675629181749815,0.0002794683590428274,1.5608415345409528e-06
0.015403445296279395,0.0002875082933212718,1.7025856976319775e-06
0.014033020954911895,0.00029486740988406965,1.8481796234333129e-06
0.012647896667408171,0.00030153763928964964,1.9972808857267428e-06
0.011250950705440415,0.0003075123511328618,2.1495433833323705e-06
0.009845050726796875,0.0003127863514909211,2.3046180589883163e-06
0.008433043020785303,0.0003173558749278167,2.462153615593001e-06
0.007017742083887765,0.00032121857120398495,2.6217972271259515e-06
0.005601920604014057,0.0003243734868759604,2.783195241645938e-06
0.004188299935534584,0.0003268210420108476,2.94599387386764e-06
0.0027795411432069883,0.000328563002280533,3.109839884940485e-06
0.0013782366757431365,0.00032960244673527054,3.2743812471944358e-06
-1.3097297608262172e-05,0.00032994373157980425,3.4392677917732043e-06
-0.0013920278791744115,0.0003295924502856086,3.6041518372395577e-06
-0.0027562117679129786,0.00032855539037383673,3.768688797404419e-06
-0.00410340092232805,0.00032684048720127645,3.932537766798197e-06
-0.005431447562179346,0.0003244567750801496,4.0953620823685534e-06
-0.006738308508566729,0.0003214143360624631,4.2568298601542065e-06
-0.008022048868171237,0.0003177242467182786,4.416614505849392e-06
-0.009280845079049445,0.00031339852323147344,4.57439519833683e-06
-0.010512987343406572,0.00030845006512585945,4.729857345426163e-06
-0.011716881472102293,0.00030289259792198224,4.882693011188123e-06
-0.012891050160800669,0.0002967406150137565,5.032601314422057e-06
-0.014034133714474097,0.0002900093190449378,5.179288797936731e-06
-0.015144890235974238,0.00028271456305732574,5.322469768462297e-06
-0.016222195294321222,0.00027487279167475186,5.461866607145316e-06
-0.017265041090945548,0.00026650098257843515,5.597210050708613e-06
-0.018272535150159468,0.0002576165885181589,5.728239443482761e-06
-0.01924389856993958,0.0002482374800881341,5.854702960634334e-06
-0.020178463871142492,0.00023838188947786362,5.976357803025834e-06
-0.021075672474666116,0.00022806835539141148,6.092970364243153e-06
-0.02193507182874455,0.0002173156693155588,6.204316370419895e-06
-0.022756312215902717,0.000206142823304397,6.310180993574884e-06
-0.02353914329018364,0.00019456895942787541,6.410358939257952e-06
-0.02428341041324534,0.00018261332100201816,6.504654509365425e-06
-0.024989050855630846,0.0001702952056847991,6.5928816410371295e-06
-0.02565608990717613,0.00015763392049409735,6.674863922581854e-06
-0.02628463691710107,0.00014464873878802806,6.750434587402385e-06
-0.026874881275092508,0.00013135885923997966,6.819436486909386e-06
-0.027427088345352894,0.00011778336683486832,6.881722043428098e-06
-0.027941595363313313,0.00010394119590770176,6.937153184113741e-06
-0.028418807294726536,8.98510952431918e-05,6.985601256901464e-06
-0.02885919264224936,7.553159525894782e-05,7.026946929526999e-06
-0.02926327916836754,6.1000977306293597e-05,7.06108007266831e-06
-0.029631649488296937,4.627724514212748e-05,7.087899628280415e-06
-0.029964936475214792,3.137809865124955e-05,7.107313464228759e-06
-0.030263818413316212,1.6320909929116795e-05,7.119238216373851e-06
-0.030529013829984054,1.122701868291729e-06,7.123599119323203e-06
-0.030761275936854623,-1.419987057341794e-05,7.120329827146921e-06
-0.03096138661513219,-2.9630536211414645e-05,7.1093722254507134e-06
-0.031130149898652367,-4.5153420339860784e-05,7.090676236312894e-06
-0.03126838493832189,-6.075305404910435e-05,7.064199617715653e-06
-0.03137691846666772,-7.641437990035175e-05,7.029907759228289e-06
-0.03145657681506618,-9.212275372078523e-05,6.987773475823005e-06
-0.031508177567107255,-0.0001078639423163286,6.937776801813727e-06
-0.03153252095822033,-0.0001236241169476605,6.87990478699773e-06
-0.03153038115160034,-0.00013938984247511567,6.814151297142035e-06
-0.03150249753146906,-0.00015514806214588303,6.7405168209867855e-06
-0.031449566158635714,-0.00017088607806840922,6.659008285933212e-06
-0.031372231535923036,-0.0001865915274920489,6.569638884543098e-06
-0.03127107883724806,-0.00020225235508534168,6.47242791389875e-06
-0.031146626762093524,-0.00021785678148517708,6.367400629756121e-06
-0.03099932118011334,-0.00023339326847072878,6.254588117267144e-06
-0.03082952972599797,-0.00024885048119725663,6.134027179850148e-06
-0.030637537496413746,-0.00026421724800285954,6.005760247550119e-06
-0.030423543990549397,-0.0002794825183746003,5.869835305955754e-06
-0.030187661415790358,-0.00029463531972618527,5.726305846430557e-06
-0.029929914443476736,-0.00030966471369100204,5.57523083807626e-06
-0.029650241451672818,-0.0003245597526647894,5.416674721487312e-06
-0.02934849724504558,-0.000339309437338969,5.250707423986372e-06
-0.029024457203846502,-0.000353902675951192,5.077404395663832e-06
-0.02867782278386019,-0.00036832824594811866,4.896846665189005e-06
-0.028308228262942384,-0.0003825747587098193,4.7091209140245205e-06
-0.02791524860611755,-0.0003966306279270843,4.5143195673652945e-06
-0.027498408302253953,-0.00041048404215417714,4.312540899844979e-06
-0.027057191012151344,-0.0004241229419827785,4.10388915381074e-06
-0.026591049857600167,-0.00043753500220021637,3.888474667764991e-06
-0.02609941817338299,-0.00045070761920796215,3.666414012412946e-06
-0.025581720544760864,-0.0004636279038874981,3.437830131639081e-06
-0.025037383963806347,-0.0004762826800146399,3.2028524856635463e-06
-0.024465848953250352,-0.0004886584882439041,2.9616171935989105e-06
-0.023866580519351796,-0.0005007415956120547,2.714267172634921e-06
-0.023239078802007183,-0.0005125180104423943,2.4609522711213087e-06
-0.02258288928947261,-0.0005239735024652643,2.201829392894394e-06
-0.021897612459411173,-0.0005350936279024853,1.9370626103024566e-06
-0.021182912708309288,-0.0005458637591944154,1.6668232635282314e-06
-0.020438526448914706,-0.0005562691189837214,1.3912900439836972e-06
-0.019664269289262026,-0.0005662948179182656,1.1106490597582004e-06
-0.018860042242500045,-0.0005759258958012061,8.250938813283324e-07
-0.01802583694061542,-0.000585147365596985,5.348255659787846e-07
-0.017161739837338406,-0.0005939442597914735,2.4005265963166994e-07
-0.016267935394332925,-0.0006023016785993913,-5.9008824966046284e-08
-0.015344708254694715,-0.0006102048395116482,-3.6213545449380614e-07
-0.014392444418538654,-0.0006176391276799565,-6.690964462917073e-07
-0.013411631448411496,-0.000624590146646694,-9.796537648733699e-07
-0.012402857749169662,-0.0006310437689460893,-1.2935622437715656e-06
-0.011366810981780573,-0.0006369861861288268,-1.6105697325402948e-06
-0.01030427567102673,-0.0006424039577920287,-1.9304172685205087e-06
-0.009216130050106049,-0.0006472840592223119,-2.2528392727740937e-06
-0.008103342166142422,-0.000651613927276374,-2.577563769398765e-06
-0.006966965270754058,-0.0006553815041355981,-2.904312627251758e-06
-0.005808132544800366,-0.0006585752785894867,-3.2328018229330295e-06
-0.004628051244496927,-0.0006611843245368109,-3.562741723714604e-06
-0.0034279963925877943,-0.0006631983364460821,-3.893837388960327e-06
-0.0022093041637771395,-0.0006646076615851734,-4.225788888468141e-06
-0.0009733651229990067,-0.0006654033289068674,-4.5582916360911515e-06
0.0002783825344578008,-0.0006655770745540027,-4.891036736956369e-06
0.0015444596184024516,-0.0006651213640157876,-5.223711346598817e-06
0.002823352367920348,-0.000664029411019207,-5.555999040357565e-06
0.004113518611115284,-0.000662295193274448,-5.887580191430979e-06
0.005413393627862453,-0.0006599134652147036,-6.218132356053266e-06
0.006721395685160458,-0.0006568797678864479,-6.547330664328554e-06
0.008035931204084397,-0.0006531904361641366,-6.8748482153412e-06
0.009355399509352868,-0.0006488426034857773,-7.200356475253678e-06
0.010678197120242039,-0.0006438342043283786,-7.523525677207217e-06
0.012002721569098559,-0.0006381639746560434,-7.844025221953323e-06
0.01332737477549932,-0.000631831450569894,-8.161524078259807e-06
0.014650566047012153,-0.0006248369653642661,-8.475691182243348e-06
0.015970714807180045,-0.0006171816451507181,-8.786195834872094e-06
0.017286253163405485,-0.0006088674031580717,-9.092708096949291e-06
0.018595628427928886,-0.0005998969327602381,-9.394899180928868e-06
0.01989730569764713,-0.0005902736992288441,-9.692441838926138e-06
0.021189770580403642,-0.0005800019301593314,-9.985010746273182e-06
0.022471532127835474,-0.0005690866044822716,-1.0272282879933583e-05
0.023741126006153607,-0.0005575334399487744,-1.0553937891041344e-05
0.02499711791059661,-0.0005453488789695869,-1.0829658470770935e-05
0.026238107201804788,-0.0005325400726914865,-1.1099130708686203e-05
0.02746273070824671,-0.0005191148632139736,-1.1362044442662569e-05
0.02866966660473362,-0.0005050817638857285,-1.1618093599437494e-05
0.02985763825573085,-0.0004904499376706124,-1.1866976524826579e-05
0.031025417909273618,-0.0004752291736293613,-1.2108396302651572e-05
0.03217183013492762,-0.000459429861618311,-1.234206106146349e-05
0.03329575490565999,-0.0004430629653581641,-1.2567684268207609e-05
0.03439613022777035,-0.00042613999407480654,-1.2784985008065852e-05
0.03547195423482727,-0.00040867297295915715,-1.2993688249824342e-05
0.036522286685802055,-0.00039067441272899983,-1.3193525096246382e-05
0.037546249835425885,-0.00037215727859869286,-1.3384233019078306e-05
0.0385430286637621,-0.00035313495897389585,-1.3565556078471454e-05
0.03951187046093221,-0.00033362123419272227,-1.3737245126763108e-05
0.04045208377136189,-0.00031363024563464876,-1.389905799671995e-05
0.04136303671644274,-0.0002931764655126976,-1.4050759674506787e-05
0.04224415473215218,-0.00027227466765054886,-1.4192122457797599e-05
0.043094917773847635,-0.00025093989952404893,-1.4322926099591248e-05
0.04391485705529048,-0.0002291874558167644,-1.4442957938426452e-05
0.044703551406963415,-0.00020703285370120094,-1.4552013015805943e-05
0.04546062335938795,-0.0001844918100096131,-1.4649894181733647e-05
0.04618573507389273,-0.00016158022040129293,-1.4736412189336373e-05
0.04687858424881295,-0.0001383141405706165,-1.481138577957935e-05
0.04753890012027752,-0.00011470976947834389,-1.4874641757091591e-05
0.0481664396578366,-9.078343453381536e-05,-1.492601505809463e-05
0.048760984036541666,-6.655157861022079e-05,-1.496534881138064e-05
0.049322335456947745,-4.203074873684844e-05,-1.4992494393217407e-05
0.04985031438176011,-1.723758627717147e-05,-1.5007311476970912e-05
0.050344757253606105,7.811181631670083e-06,-1.5009668078132286e-05
0.05080551474456045,3.309874963121172e-05,-1.4999440595316567e-05
0.05123245056333584,5.8608240958185796e-05,-1.4976513847669217e-05
0.05162544081612366,8.432271380305067e-05,-1.4940781108978907e-05
0.05198437389076551,0.00011022516747977297,-1.4892144138658202e-05
0.05230915081787037,0.00013629854865693193,-1.4830513209624026e-05
0.052599686057575944,0.00016252575787579351,-1.4755807132990845e-05
0.05285590866447632,0.00018888965655630658,-1.466795327938282e-05
0.05307776379400019,0.0002153730746709257,-1.4566887596576012e-05
0.05326521452707552,0.00024195881925119462,-1.4452554623095482e-05
0.05341824399684505,0.0002686296838821748,-1.4324907497312139e-05
0.053536857794595716,0.000295368459330035,-1.4183907961509087e-05
0.05362108661600048,0.00032215794543268407,-1.4029526360318406e-05
0.053670989091638484,0.0003489809643595938,-1.3861741632870337e-05
0.05368665473025862,0.00037582037531506805,-1.368054129795167e-05
0.05366820689035829,0.0004026590907202223,-1.3485921431442847e-05
0.05361580569116628,0.00042948009386560343,-1.327788663529639e-05
0.053529650780751316,0.00045626645798358285,-1.3056449997334094e-05
0.053409983889375366,0.0004830013666511145,-1.282163304117542e-05
0.05325709110141663,0.0005096681353988125,-1.2573465665662937e-05
0.05307130477929319,0.00053625023436899,-1.2311986073220987e-05
0.0528530050771676,0.0005627313118331051,-1.2037240686670464e-05
0.0526026210000891,0.0005890952183524194,-1.1749284054124083e-05
0.052320630993269814,0.000615326031350759,-1.1448178741698288e-05
0.05200756307056345,0.0006414080798667174,-1.1133995213893919e-05
0.051663994498698684,0.0006673259692590329,-1.080681170161248e-05
0.05129055104752452,0.0006930646056455888,-1.0466714057886326e-05
0.05088790580597978,0.0007186092198589648,-1.0113795601510188e-05
0.05045677755370944,0.0007439453906988872,-9.748156948870725e-06
0.04999792867368198,0.000769059067255735,-9.36990583438207e-06
0.04951216259718308,0.0007939365900734513,-8.979156920049772e-06
0.0490003207871021,0.0008185647109195226,-8.576031594801528e-06
0.0484632792782564,0.0008429306109358622,-8.160657764337682e-06
0.047901944796889875,0.0008670219169546488,-7.733169632365053e-06
0.047317250475355135,0.00089082671577271,-7.293707474183213e-06
0.046710151166352444,0.000914333566183137,-6.8424174036942515e-06
0.046081618350516,0.000937531508562354,-6.379451135007879e-06
0.04543263462964434,0.0009604100718073941,-5.904965739915442e-06
0.04476418780730663,0.0009829592774166318,-5.419123402609436e-06
0.044077264572962765,0.0010051696405116992,-4.922091173127354e-06
0.04337284382388881,0.0010270321676109121,-4.414040721096701e-06
0.04265188968867445,0.0010485383509890528,-3.895148091446709e-06
0.04191534435746963,0.0010696801595005889,-3.3655934638242987e-06
0.04116412085958356,0.0010904500258048521,-2.8255609174979386e-06
0.040399095938694826,0.0011108408300044218,-2.27523820354562e-06
0.039621103161412534,0.0011308458797794486,-1.7148165260996527e-06
0.038830926376649526,0.001150458887163964,-1.1444903343637995e-06
0.03802929363540254,0.001169673942166977,-5.644571270310642e-07
0.03721687167857825,0.0011884854834954721,2.5082729384548098e-08
0.036394261093330035,0.0012068882666884492,6.239261669305284e-07
0.03556199222203755,0.0012248773300172911,1.2318675661069634e-06
0.034720521885586796,0.0012424479585441972,1.8486988882473355e-06
0.03387023095877473,0.0012595956467552876,2.474209789572207e-06
0.03301142281344493,0.0012763160601983426,3.1081877163106147e-06
0.032144322624613086,0.0012926049965578572,3.7504179804996644e-06
0.03126907751658911,0.0013084583465931578,4.400683816287418e-06
0.030385757510849043,0.0013238720553500173,5.058766416773212e-06
0.02949435722508848,0.0013388420840340018,5.7244449516192165e-06
0.028594798264009416,0.0013533643729062763,6.397496565854286e-06
0.027686932239499,0.0013674348055321534,7.077696360463894e-06
0.026770544361743948,0.001381049174682464,7.764817355517548e-06
0.025845357548899984,0.0013942031501601251,8.458630436728195e-06
0.024911037007180538,0.0014068922487991452,9.158904286468012e-06
0.023967195239268775,0.0014191118068607575,9.865405300382988e-06
0.023013397452480776,0.0014308569550336948,1.0577897490856602e-05
0.022049167355622807,0.0014421225962357206,1.1296142378673957e-05
0.021073993345065038,0.0014529033864108926,1.201989887433561e-05
0.020087335081073267,0.0014631937185174272,1.2748923150567691e-05
0.01908863044973937,0.0014729877099001303,1.348296850767208e-05
0.018077302903292052,0.0014822791932383882,1.4221785233456711e-05
0.017052769176187706,0.0014910617112582581,1.4965120459580873e-05
0.016014447379465047,0.0014993285153971714,1.5712718016244732e-05
0.014961765469932619,0.001507072568609521,1.6464318287246406e-05
0.013894170070108253,0.0015142865524945311,1.721965806752242e-05
0.01281113558662089,0.0015209628789087134,1.797847042537323e-05
0.011712173547434116,0.0015270937061922273,1.8740484571648466e-05
0.010596842052554872,0.0015326709600922246,1.9505425738219578e-05
0.009464755204347674,0.0015376863594064503,2.0273015068094247e-05
0.00831559235272781,0.001542131446295719,2.104296951951979e-05
0.00714910696639022,0.0015459976211254986,2.1815001786375095e-05
0.005965134933877022,0.0015492761816005654,2.258882023705661e-05
0.004763602109004675,0.0015519583658612857,2.3364128873922075e-05
0.003544530936415812,0.0015540353991226408,2.4140627315168055e-05
0.0023080460154828275,0.0015554985433606154,2.491801080078887e-05
0.0010543784810871175,0.0015563391494847578,2.5695970224000215e-05
-0.00021613089501993353,0.0015565487113812747,2.6474192189216724e-05
-0.001503029939613758,0.0015561189211726163,2.7252359097355197e-05
-0.002805754656848869,0.0015550417250235007,2.8030149258904225e-05
-0.004123630107213336,0.0015533093788324852,2.8807237034868222e-05
-0.005455872505089815,0.0015509145031794094,2.9583293005371194e-05
-0.0068015924317653895,0.0015478501369451956,3.0357984165402345e-05
-0.008159799052731289,0.0015441097890740714,3.1130974146907164e-05
-0.009529405225706805,0.0015396874880044618,3.1901923466176797e-05
-0.010909233381722661,0.0015345778283526045,3.267048979526606e-05
-0.012298022056855883,0.00152877601449296,3.3436328255977457e-05
-0.013694432951838208,0.0015222779007407865,3.4199091734785894e-05
-0.015097058400244282,0.0015150800279027658,3.495843121694678e-05
-0.01650442912779184,0.0015071796560207568,3.571399613792766e-05
-0.01791502218488185,0.0014985747931925883,3.6465434750231e-05
-0.0193272689369972,0.0014892642204121186,3.721239450363218e-05
-0.020739563006032056,0.0014792475124263613,3.79545224368418e-05
-0.022150268067801248,0.001468525054657903,3.8691465578612866e-05
-0.02355772541995,0.0014570980562859652,3.942287135634883e-05
-0.024960261230981204,0.0014449685596232323,4.0148388010326135e-05
-0.026356193363362635,0.0014321394459746463,4.0867665011725605e-05
-0.027743837645255422,0.0014186144382224918,4.158035348277489e-05
-0.029121513464738707,0.0014043981004449933,4.228610661744176e-05
-0.030487548583482352,0.001389495834932938,4.298458010128624e-05
-0.03184028310426492,0.0013739138770110012,4.367543252927223e-05
-0.033178072566601366,0.0013576592880932847,4.43583258205483e-05
-0.034499290183180424,0.0013407399474058392,4.5032925629423084e-05
-0.03580232826791101,0.0013231645427930663,4.569890175197281e-05
-0.037085598941431173,0.0013049425609907308,4.635592852791876e-05
-0.038347534226055684,0.001286084277698859,4.7003685237591154e-05
-0.03958658566023889,0.0012666007477272854,4.764185649394769e-05
-0.040801223578413176,0.0012465037954176223,4.827013262973392e-05
-0.041989936212928125,0.001225806005469787,4.8888210079955775e-05
-0.04315122877124262,0.0012045207142237443,4.9495791759879156e-05
-0.044283622624582526,0.001182662001374788,5.009258743877879e-05
-0.04538565472752385,0.0011602446820367614,5.0678314109631675e-05
-0.04645587738135112,0.0011372842990095427,5.125269635489325e-05
-0.04749285845488839,0.001113797115050483,5.181546670840826e-05
-0.048495182177805914,0.0010898001048923094,5.236636601339396e-05
-0.049461450618455347,0.001065310946693244,5.290514377629035e-05
-0.05039028594729132,0.0010403480125518074,5.343155851610161e-05
-0.051280333562320084,0.0010149303576744047,5.3945378108658166e-05
-0.05213026611242212,0.0009890777077557191,5.44463801250157e-05
-0.05293878840521534,0.0009628104441263098,5.4934352162986204e-05
