acceleration,velocity,displacement
0.0361566224271814,0.0,0.0
0.0356642412227952,1.795521591249415e-05,4.488803978123537e-09
0.03511278610770095,3.564947274511818e-05,1.788997614252662e-08
0.03450308838126975,5.3053441367360854e-05,4.006570467064638e-08
0.0338361418831117,7.013824893345622e-05,7.086362724585064e-08
0.033113100511075855,8.687555953200311e-05,1.1011707936221547e-07
0.03233527512074397,0.00010323765343995807,1.5764538260520577e-07
0.0315041297942065,0.00011919750466869569,2.132541721323692e-07
0.03062127745691604,0.00013472885648147632,2.767357624199122e-07
0.02968847480717546,0.0001498062945474992,3.4786955017715605e-07
0.028707616520149123,0.00016440531737933035,4.2642245315886345e-07
0.027680728705079448,0.0001785024036856375,5.121493834251054e-07
0.026609961622183785,0.0001920750762674533,6.047937534133781e-07
0.02549758169272505,0.00020510196209618052,7.040880130042866e-07
0.024345962855971078,0.00021756284823335454,8.097542155866704e-07
0.02315757733748581,0.00022943873328171876,9.215046109654387e-07
0.02193498589377625,0.00024071187408953427,1.0390422628082519e-06
0.02068082759462074,0.00025136582746163353,1.1620616881960439e-06
0.019397809206336346,0.0002613854866618728,1.2902495167269205e-06
0.018088694250685794,0.00027075711252612833,1.4232851665239208e-06
0.016756291828967016,0.00027946835904604154,1.5608415344169632e-06
0.015403445308872528,0.00028750829333050145,1.702585697511099e-06
0.014033020968507769,0.0002948674098998465,1.848179623318686e-06
0.012647896681862981,0.0003015376393124392,1.9972808856217573e-06
0.011250950720596634,0.0003075123511630541,2.1495433832406305e-06
0.009845050742483256,0.00031278635152882407,2.3046180589136e-06
0.008433043036823731,0.00031735587497365084,2.4621536155392185e-06
0.007017742100091546,0.00032121857125787966,2.621797227097101e-06
0.005601920620193056,0.0003243734869379508,2.7831952416460586e-06
0.004188299951502076,0.0003268210420808746,2.945993873900765e-06
0.002779541158781373,0.0003285630023584455,3.1098398850105947e-06
0.0013782366907462255,0.00032960244682082743,3.2743812473054128e-06
-1.3097283347818956e-05,0.000329943731672677,3.439267791928789e-06
-0.001392027865826265,0.00032959245038538347,3.6041518374433043e-06
-0.0027562117556365145,0.0003285553904800178,3.768688797659655e-06
-0.004103400911274102,0.00032684048731329015,3.932537767107982e-06
-0.005431447552490195,0.00032445677519734906,4.0953620827356414e-06
-0.006738308500370962,0.00032141433618413376,4.256829860581012e-06
-0.008022048861570047,0.0003177242468436485,4.416614506337958e-06
-0.00928084507412005,0.000313398523359726,4.574395198888801e-06
-0.01051298734020736,0.0003084500652561441,4.729857346042769e-06
-0.011716881470665965,0.00030289259805342576,4.882693011870161e-06
-0.012891050161135951,0.0002967406151454753,5.0326013151698865e-06
-0.014034133716567457,0.00029000931917604945,5.179288798750268e-06
-0.015144890239791594,0.0002827145631869597,5.32246976934102e-06
-0.016222195299809655,0.00027487279180205936,5.4618666080882746e-06
-0.017265041098038444,0.00026650098270259733,5.597210051714439e-06
-0.018272535158779937,0.00025761658863839276,5.728239444549686e-06
-0.019243898580003884,0.0002482374802036968,5.854702961760209e-06
-0.02017846388256347,0.00023838188958805496,5.976357804208146e-06
-0.02107567248735833,0.00022806835549557452,6.092970365479054e-06
-0.021935071842632832,0.00021731566941307672,6.2043163717062165e-06
-0.0227563122309239,0.00020614282339468754,6.310180994908158e-06
-0.023539143306284833,0.00019456895951038534,6.410358940634426e-06
-0.024283410430389066,0.00018261332107621686,6.504654510781077e-06
-0.024989050873795056,0.00017029520575017083,6.592881642487674e-06
-0.025656089926342187,0.0001576339205501365,6.674863924062751e-06
-0.026284636937252057,0.00014464873883423795,6.750434588908845e-06
-0.026874881296211506,0.00013135885927587207,6.819436488436372e-06
-0.027427088367424694,0.00011778336685996302,6.881722044970331e-06
-0.027941595386320992,0.00010394119592152659,6.937153185665704e-06
-0.028418807318644605,8.985109524528519e-05,6.985601258457407e-06
-0.028859192667048898,7.553159524886182e-05,7.026946931080944e-06
-0.029263279194017913,6.100097728359511e-05,7.061080074214058e-06
-0.029631649514758947,4.62772451064009e-05,7.087899629811557e-06
-0.029964936502452657,3.1378098602098e-05,7.107313465738682e-06
-0.030263818441290724,1.6320909866162156e-05,7.119238217855747e-06
-0.03052901385864572,1.1227017911780443e-06,7.123599120770082e-06
-0.030761275966147097,-1.419987066502016e-05,7.120329828551621e-06
-0.03096138664498713,-2.9630536317803718e-05,7.109372226805915e-06
-0.03113014992899457,-4.515342046129914e-05,7.09067623761114e-06
-0.03126838496907102,-6.0753054185815536e-05,7.0641996189493615e-06
-0.03137691849774001,-7.64143800525183e-05,7.029907760389778e-06
-0.03145657684638127,-9.212275388854862e-05,6.987773476904511e-06
-0.03150817759858137,-0.00010786394249978928,6.937776802807427e-06
-0.03153252098976454,-0.00012362411714687577,6.879904787895761e-06
-0.03153038118311373,-0.00013938984269009535,6.814151297936518e-06
-0.03150249756284214,-0.0001551480623765843,6.740516821669848e-06
-0.03144956618975043,-0.00017088607831473244,6.6590082864970185e-06
-0.03137223156665276,-0.00018659152775383323,6.569638884979877e-06
-0.031271078867459313,-0.00020225235536236124,6.4724279142008284e-06
-0.031146626791645968,-0.00021785678177713757,6.367400629915953e-06
-0.030999321208870067,-0.0002333932687772666,6.254588117277353e-06
-0.030829529753827203,-0.0002488504815179409,6.134027179703551e-06
-0.030637537523190563,-0.0002642172483371954,6.005760247239767e-06
-0.030423544016160865,-0.00027948251872203327,5.86983530547496e-06
-0.030187661440137244,-0.0002946353200861078,5.726305845772925e-06
-0.029929914466475225,-0.00030966471406276093,5.575230837235708e-06
-0.02965024147326479,-0.00032455975304769596,5.416674720458093e-06
-0.02934849726520203,-0.0003393094377323127,5.250707422763091e-06
-0.029024457222564134,-0.0003539026763542542,5.077404394241449e-06
-0.02867782280115797,-0.0003683282463601847,4.896846663562839e-06
-0.028308228278864974,-0.00038257475913019046,4.709120912190245e-06
-0.02791524862073359,-0.0003966306283550901,4.5143195653189255e-06
-0.02749840831564923,-0.00041048404258918584,4.312540897582856e-06
-0.027057191024423628,-0.000424122942424204,4.1038891513295085e-06
-0.026591049868854084,-0.00043753500264752344,3.888474665061577e-06
-0.0260994181837266,-0.0004507076196606686,3.6664140094845287e-06
-0.025581720554310784,-0.00046362790434517794,3.437830128483067e-06
-0.025037383972687774,-0.0004762826804769276,3.2028524822775406e-06
-0.02446584896159533,-0.0004886584887104984,2.961617189980684e-06
-0.023866580527297517,-0.0005007415960827216,2.714267168782379e-06
-0.0232390788096994,-0.0005125180109169708,2.4609522670324557e-06
-0.022582889297063934,-0.0005239735029436616,2.2018293885672975e-06
-0.021897612467057643,-0.000535093628384692,1.937062605735209e-06
-0.021182912716154956,-0.0005458637596804951,1.6668232587189124e-06
-0.020438526457089917,-0.0005562691194738064,1.3912900389303371e-06
-0.01966426929788,-0.0005662948184125488,1.1106490544587482e-06
-0.01886004225165002,-0.0005759258962999313,8.250938757806282e-07
-0.018025836950364364,-0.000585147366100435,5.348255601805365e-07
-0.017161739847734447,-0.0005939442602999597,2.400526535804379e-07
-0.016267935405396786,-0.0006023016791132425,-5.9008831272862656e-08
-0.015344708266424839,-0.0006102048400311979,-3.621354610589728e-07
-0.014392444430912933,-0.0006176391282055322,-6.690964531181554e-07
-0.013411631461387262,-0.0006245901471786073,-9.796537719641903e-07
-0.012402857762687116,-0.0006310437694846258,-1.2935622511299986e-06
-0.011366810995762781,-0.0006369861866742383,-1.6105697401697147e-06
-0.010304275685372772,-0.0006424039583445222,-1.9304172764244048e-06
-0.009216130064701298,-0.0006472840597820407,-2.2528392809560453e-06
-0.008103342180865393,-0.0006516139278434324,-2.5775637778624137e-06
-0.006966965285479835,-0.0006553815047100187,-2.9043126360007763e-06
-0.005808132559402313,-0.0006585752791712392,-3.232801831971091e-06
-0.004628051258860392,-0.0006611843251258048,-3.5627417330453517e-06
-0.0034279964066049706,-0.0006631983370421712,-3.893837398587346e-06
-0.0022093041773453516,-0.0006646076621881588,-4.225788898394928e-06
-0.000973365136022424,-0.0006654033295165007,-4.558291646321093e-06
0.0002783825220715914,-0.0006655770751699885,-4.8910367474927155e-06
0.0015444596067407323,-0.0006651213646377854,-5.223711357444659e-06
0.0028233523570584187,-0.0006640294116468357,-5.555999051515815e-06
0.004113518601121601,-0.0006622951939072906,-5.887580202904347e-06
0.005413393618795204,-0.0006599134658523114,-6.218132367844247e-06
0.006721395677065848,-0.0006568797685283462,-6.547330676439412e-06
0.008035931196994936,-0.000653190436809831,-6.874848227773956e-06
0.009355399503282234,-0.0006488426041347617,-7.2003564880101045e-06
0.010678197115190214,-0.0006438342049801436,-7.5235256902888305e-06
0.012002721565062106,-0.0006381639753100805,-7.844025235361386e-06
0.013327374772474813,-0.0006318314512256963,-8.16152409199533e-06
0.014650566044992748,-0.0006248369660213294,-8.475691196307087e-06
0.01597071480615548,-0.0006171816458085423,-8.786195849264554e-06
0.01728625316335694,-0.0006088674038161642,-9.09270811167073e-06
0.018595628428828996,-0.0005998969334181178,-9.394899195979302e-06
0.01989730569947024,-0.000590273699886043,-9.692441854305341e-06
0.02118977058311554,-0.0005800019308153966,-9.985010761980701e-06
0.022471532131395106,-0.0005690866051367689,-1.0272282895968743e-05
0.023741126010516506,-0.000557533440601291,-1.0553937907403259e-05
0.02499711791572174,-0.0005453488796197315,-1.0829658487458514e-05
0.026238107207652833,-0.0005325400733388879,-1.1099130725698168e-05
0.027462730714774935,-0.0005191148638582809,-1.136204445999746e-05
0.02866966661189416,-0.0005050817645266137,-1.1618093617093684e-05
0.02985763826347242,-0.000490449938307772,-1.186697654280228e-05
0.03102541791753809,-0.00047522917426251937,-1.2108396320944853e-05
0.032171830143651735,-0.0004594298622472219,-1.2342061080072288e-05
0.03329575491477363,-0.00044306296598261555,-1.2567684287129747e-05
0.03439613023719999,-0.00042613999469462215,-1.2784985027299056e-05
0.035471954244504535,-0.00040867297357419604,-1.2993688269366262e-05
0.03652228669565855,-0.00039067441333915525,-1.31935251160946e-05
0.03754624984539154,-0.0003721572792038927,-1.3384233039230361e-05
0.03854302867376511,-0.00035313495957410356,-1.356555609892486e-05
0.03951187047090592,-0.0003336212347879358,-1.373724514751537e-05
0.04045208378124309,-0.00031363024622489856,-1.3899058017768578e-05
0.041363036726181905,-0.0002931764660980423,-1.4050759695849313e-05
0.04224415474171693,-0.00027227466823106757,-1.4192122479431591e-05
0.04309491778321587,-0.00025093990009983434,-1.4322926121514317e-05
0.043914857064446956,-0.00022918745638791864,-1.4442957960636255e-05
0.04470355141589973,-0.00020703285426783196,-1.4552013038300193e-05
0.04546062336809914,-0.00018449181057183224,-1.464989420451011e-05
0.04618573508237555,-0.00016158022095921355,-1.4736412212392872e-05
0.046878584257074425,-0.00013831414112435106,-1.4811385802913763e-05
0.047538900128338384,-0.00011470977002799786,-1.487464178070185e-05
0.048166439665731295,-9.078343507948043e-05,-1.492601508197872e-05
0.0487609840443149,-6.655157915196888e-05,-1.4965348835536583e-05
0.04932233546464938,-4.20307492747278e-05,-1.4992494417643257e-05
0.04985031438944858,-1.7237586811203312e-05,-1.500731150166474e-05
0.050344757261348384,7.811181101495932e-06,-1.5009668103092165e-05
0.05080551475242354,3.3098749104938915e-05,-1.4999440620540557e-05
0.05123245057139187,5.860824043589277e-05,-1.4976513873155349e-05
0.05162544082444818,8.432271328485278e-05,-1.4940781134725162e-05
0.05198437389943237,0.00011022516696582292,-1.4892144164662493e-05
0.05230915082694997,0.0001362985481474185,-1.4830513235884183e-05
0.05259968606712845,0.0001625257573709381,-1.4755807159504594e-05
0.05285590867454645,0.00018888965605635684,-1.466795330614777e-05
0.05307776380461211,0.00021537307417614647,-1.4566887623589644e-05
0.05326521453823113,0.00024195881876185727,-1.4452554650355143e-05
0.053418244008523984,0.000268629683398546,-1.4324907524815043e-05
0.053536857806763906,0.000295368458852368,-1.4183907989252314e-05
0.053621086628608434,0.0003221579449612111,-1.402952638829892e-05
0.05367098910462302,0.000348980963894519,-1.3861741661084987e-05
0.05368665474354455,0.00037582037485656085,-1.3680541326397217e-05
0.05366820690386529,0.00040265909026841333,-1.3485921460115973e-05
0.05361580570481232,0.0004294800934205827,-1.3277886664193724e-05
0.05352965079444922,0.0004562664575453981,-1.3056450026452228e-05
0.053409983903036244,0.00048300136621976945,-1.2821633070510937e-05
0.053257091114944734,0.0005096681349742647,-1.2573465695212429e-05
0.053071304792592776,0.0005362502339511491,-1.2311986102981075e-05
0.052853005090144636,0.0005627313114218334,-1.2037240716637829e-05
0.05260262101265639,0.0005890952179475337,-1.1749284084295486e-05
0.05232063100534189,0.0006153260309520333,-1.1448178772070594e-05
0.0520075630820497,0.0006414080794738811,-1.1133995244464115e-05
0.05166399450950507,0.0006673259688717698,-1.0806811732377703e-05
0.05129055105755698,0.0006930646052635353,-1.0466714088843877e-05
0.05088790581514427,0.0007186092194817106,-1.0113795632657566e-05
0.05045677756191189,0.0007439453903259746,-9.748156980205645e-06
0.04999792868082834,0.0007690590668866597,-9.369905865902487e-06
0.049512162603187845,0.0007939365897076637,-8.979156951753906e-06
0.0490003207918832,0.0008185647105564315,-8.576031626687882e-06
0.04846327928172832,0.0008429306105748344,-8.160657796405065e-06
0.04790194479896539,0.0008670219165950078,-7.733169664612604e-06
0.04731725047594529,0.0008908267154137355,-7.293707506610418e-06
0.04671015116537172,0.0009143335658240647,-6.842417436300968e-06
0.04608161834788401,0.0009375315082023786,-6.379451167794357e-06
0.045432634625289244,0.0009604100714456719,-5.904965772882344e-06
0.044764187801163445,0.000982959277052285,-5.419123435757855e-06
0.044077264564971644,0.0010051696401438188,-4.922091206458829e-06
0.04337284381399503,0.0010270321672385604,-4.414040754613234e-06
0.042651889676840415,0.0010485383506112693,-3.895148125150776e-06
0.04191534434368172,0.0010696801591164,-3.365593497718859e-06
0.041164120843847005,0.0010904500254132821,-2.8255609515864386e-06
0.04039909592103538,0.0011108408296045028,-2.2752382378319925e-06
0.03962110314187653,0.0011308458793702308,-1.714816560588309e-06
0.0388309263553124,0.001150458886744528,-1.1444903690596194e-06
0.03802929361236371,0.001169673941736447,-5.644571619393756e-07
0.03721687165395596,0.001188485483053027,2.5082694257992884e-08
0.03639426106725282,0.0012068882662333291,6.23926131579582e-07
0.035561992194647625,0.0012248773295488043,1.2318675305251153e-06
0.03472052185703668,0.0012424479580617255,1.8486988524277477e-06
0.03387023092923062,0.0012595956462582924,2.4742097535077523e-06
0.03301142278308502,0.0012763160596863713,3.1081876799939182e-06
0.03214432259362585,0.001292604996030549,3.7504179439231483e-06
0.0312690774851596,0.0013084583460502453,4.400683779443347e-06
0.03038575747915886,0.001323872054791325,5.05876637965374e-06
0.029494357193314117,0.0013388420834594432,5.724444914216432e-06
0.02859479823232563,0.0013533643723158532,6.397496528160256e-06
0.02768693220808056,0.0013674348049259547,7.077696322470708e-06
0.02677054433076905,0.0013810491740606672,7.764817317217363e-06
0.025845357518545112,0.0013942031495229957,8.458630398113279e-06
0.02491103697761704,0.0014068922481470362,9.158904247530787e-06
0.02396719521066114,0.0014191118061941056,9.865405261116072e-06
0.023013397424990083,0.0014308569543530184,1.0577897451252853e-05
0.022049167329403277,0.0014421225955416168,1.1296142338726512e-05
0.02107399332026062,0.0014529033857040327,1.2019898834037925e-05
0.020087335057817634,0.0014631937177985522,1.274892310991357e-05
0.019088630428154205,0.0014729877091700452,1.348296846665572e-05
0.018077302883481923,0.0014822791924979542,1.4221785192072719e-05
0.01705276915823661,0.0014910617105083838,1.4965120417824304e-05
0.016014447363438163,0.0014993285146388026,1.57127179741111e-05
0.014961765455872841,0.0015070725678436303,1.646431824473171e-05
0.01389417005804136,0.0015142865517221089,1.721965802462314e-05
0.012811135576552106,0.0015209628781307572,1.797847038208636e-05
0.011712173539356677,0.0015270937054097343,1.8740484527971483e-05
0.010596842046451737,0.0015326709593061864,1.9505425694150463e-05
0.009464755200196667,0.0015376863586178484,2.0273015023631472e-05
0.008315592350498191,0.0015421314455055222,2.1042969474662315e-05
0.007149106966040972,0.001545997620334657,2.181500174112236e-05
0.005965134935356853,0.0015492761808100065,2.2588820191408525e-05
0.00476360211226058,0.0015519583650719108,2.3364128827879003e-05
0.003544530941393072,0.0015540353983353242,2.4140627268730812e-05
0.002308046022125011,0.0015554985425762038,2.4918010753958695e-05
0.001054378489334365,0.0015563391487040687,2.5695970176778765e-05
-0.00021613088522748312,0.0015565487106050954,2.6474192141606056e-05
-0.0015030299283393944,0.0015561189204017036,2.7252359049357756e-05
-0.0028057546441627363,0.001555041724258578,2.8030149210522828e-05
-0.004123630093190722,0.0015533093780742398,2.8807236986106033e-05
-0.0054558724898060105,0.0015509145024284905,2.9583292956231716e-05
-0.006801592415295691,0.0015478501362022152,3.0357984115889394e-05
-0.00815979903515271,0.0015441097883396031,3.1130974097024845e-05
-0.009529405207101506,0.0015396874872790395,3.190192341592951e-05
-0.010909233362174522,0.0015345778276367205,3.2670489744658446e-05
-0.012298022036447075,0.0015287760137870652,3.343632820501439e-05
-0.013694432930650912,0.0015222779000452907,3.419909168347248e-05
-0.015097058378360685,0.0015150800272180377,3.4958431165288314e-05
-0.01650442910529243,0.0015071796553471244,3.57139960859296e-05
-0.017915022161847108,0.0014985747925303394,3.6465434697898964e-05
-0.019327268913512774,0.0014892642197614995,3.721239445097192e-05
-0.0207395629821853,0.001479247511787575,3.795452238385919e-05
-0.022150268043679536,0.0014685250540311086,3.869146552531386e-05
-0.023557725395644137,0.0014570980556712777,3.9422871302739454e-05
-0.024960261206583713,0.0014449685590207208,4.0148387956412454e-05
-0.026356193338967767,0.001432139445384333,4.0867664957513714e-05
-0.027743837620959153,0.0014186144376443512,4.158035342827089e-05
-0.02912151344063187,0.0014043980998789535,4.2286106562651716e-05
-0.030487548559652376,0.0013894958343788823,4.298458004621618e-05
-0.0318402830807941,0.0013739138764687707,4.367543247392809e-05
-0.03317807254356858,0.00135765928756268,4.435832576493595e-05
-0.03449929016065942,0.001340739946886623,4.503292557354828e-05
-0.03580232824597554,0.0013231645422849643,4.569890169584117e-05
-0.03708559892015501,0.0013049425604934315,4.635592847153577e-05
-0.038347534205512596,0.0012860842772120147,4.7003685180962136e-05
-0.039586585640502665,0.001266600747250511,4.7641856437077764e-05
-0.04080122355956103,0.001246503794950495,4.8270132572628016e-05
-0.041989936195032135,0.0012258060050118467,4.88882100226186e-05
-0.04315122875436461,0.0012045207137744976,4.949579170231519e-05
-0.044283622608768905,0.0011826620009337142,5.009258738099224e-05
-0.0453856547128159,0.001160244681603318,5.06783140516265e-05
-0.04645587736778326,0.0011372842985831683,5.125269629667312e-05
-0.04749285844248651,0.001113797114630601,5.1815466649976566e-05
-0.04849518216659076,0.0010898001044783315,5.23663659547538e-05
-0.04946145060844595,0.0010653109462845723,5.290514371744452e-05
-0.0503902859385016,0.0010403480121478354,5.3431558457052626e-05
-0.05128033355475368,0.0010149303572745216,5.394537804940822e-05
-0.05213026610607068,0.0009890777073593155,5.444638006556668e-05
-0.05293878840005682,0.0009628104437327836,5.49343521033397e-05
-0.0537046431392808,0.0009361495858479492,5.540909211073488e-05
