acceleration,velocity,displacement
0.03754064541652948,0.0,0.0
0.037129257358080064,1.866747569365239e-05,4.6668689234130975e-09
0.036654700003625904,3.711346503407888e-05,1.8612104105345916e-08
0.03611465677458964,5.5305804228632765e-05,4.1716921421023835e-08
0.03550675737139137,7.321115776512802e-05,7.384616191946403e-08
0.034828709607199325,9.079502450977569e-05,1.1484770748818996e-07
0.03407844070584835,0.0001080218120880376,1.645519166376433e-07
0.03325424407843935,0.00012485498328410952,2.2277111548068008e-07
0.03235492557312717,0.00014125727569700116,2.8929918022595776e-07
0.03137994031461986,0.00015719099216893791,3.6391124719244256e-07
0.030329510181905495,0.00017261835479306925,4.4636358393294433e-07
0.029204713916286394,0.00018750191081761723,5.36393650335616e-07
0.028007545524753985,0.00020180497567787734,6.337203719594895e-07
0.026740940196359583,0.00021549209710815573,7.380446401559979e-07
0.025408769486334578,0.00022852952452882927,8.490500455652441e-07
0.024015808615244834,0.00024088566905422411,9.664038439610074e-07
0.02256767828852574,0.00025253154078016675,1.089758146419605e-06
0.021070762402662396,0.0002634411509529638,1.2187513193528877e-06
0.019532102897704698,0.00027359186727805553,1.3530095739106425e-06
0.017959274469987022,0.00028296471161997846,1.492148718635151e-06
0.016360243921936985,0.0002915445912179595,1.6357760443446355e-06
0.014743220024063971,0.00029932045720445973,1.7834923064502404e-06
0.01311649920844567,0.0003062853870125871,1.934893767504502e-06
0.011488310876512548,0.0003124365895338267,2.0895742616411052e-06
0.009866664780862996,0.00031777533344817056,2.2471272423866045e-06
0.008259202474819509,0.0003223068002620912,2.4071477758141697e-06
0.006673055140820596,0.0003260398646660012,2.569234442046193e-06
0.005114710993794783,0.0003289868061996551,2.7329911097626072e-06
0.003589896745769641,0.0003311629581345462,2.8980285508461576e-06
0.002103478786678508,0.00033258630201765823,3.0639658658842088e-06
0.0006593897443767009,0.000333277019150422,3.230431696176229e-06
-0.0007394159155125731,0.000333257012607638,3.3970652041157437e-06
-0.002090977113506494,0.00033254941435038323,3.563516810855249e-06
-0.0033943152071039475,0.00033117809127023064,3.7294486872604024e-06
-0.004649401045818506,0.000329167162207,3.89453500062971e-06
-0.005857103538704151,0.00032654053606086936,4.058461925196678e-06
-0.007019121866543723,0.0003233214797095574,4.220927429139284e-06
-0.008137902529631915,0.0003195322236105135,4.381640854969302e-06
-0.009216542693404288,0.00031519361230475444,4.540322313948119e-06
-0.010258682462068357,0.00031032480601588626,4.696701918528279e-06
-0.011268389377046462,0.00030494303805610754,4.850518879546278e-06
-0.01225003782521467,0.00029906343125554226,5.00152049687419e-06
-0.013208184854405745,0.0002926988755856372,5.149461073584485e-06
-0.01414744304011097,0.000285859968612008,5.294100784633897e-06
-0.015072350618986652,0.0002785550201972336,5.4352045318362075e-06
-0.015987238902521263,0.0002707901228168566,5.57254081758973e-06
-0.016896097275760115,0.00026256928877228623,5.705880670487016e-06
-0.017802437293336703,0.00025389465513001204,5.834996656462591e-06
-0.018709158944778304,0.0002447667560704833,5.9596620092627145e-06
-0.0196184225586348,0.00023518486069463,6.079649913453993e-06
-0.02053152862567685,0.0002251473728985521,6.194732971852288e-06
-0.021448806848418375,0.00021465228903002828,6.304682887334433e-06
-0.022369517067405992,0.0002036977080510722,6.409270386604708e-06
-0.023291768197533667,0.0001922823867348373,6.508265410301186e-06
-0.024212464307237933,0.0001804063286086444,6.601437589137057e-06
-0.02512728678816482,0.0001680713908347937,6.688557018997916e-06
-0.0260307182412793,0.00015528188957743266,6.769395339100972e-06
-0.02691611015164767,0.00014204518247920093,6.843727107115131e-06
-0.027775795012722492,0.00012837220618810839,6.911331454281958e-06
-0.02860124361736885,0.00011427794653058555,6.971993992461632e-06
-0.02938326773671588,9.978181869206436e-05,7.025508933767294e-06
-0.030112266630474255,8.490793510026682e-05,7.071681372215377e-06
-0.030778513228396812,6.968524013554905e-05,7.110329666024331e-06
-0.031372472865754036,5.414749361201134e-05,7.141287849461221e-06
-0.031885144567622224,3.833308925366727e-05,7.164407995177641e-06
-0.03230841250465855,2.2284699985597076e-05,7.179562442487457e-06
-0.03263539347646261,6.048748490316785e-06,7.1866458046064354e-06
-0.03286076486235168,-1.0325291094386785e-05,7.1855766689554175e-06
-0.032981056424251226,-2.678574641603751e-05,7.1762989095778115e-06
-0.032994889364083645,-4.3279732863121226e-05,7.158782539758022e-06
-0.03290314800234521,-5.975424220472844e-05,7.13302404599106e-06
-0.03270907328816811,-7.615729752735677e-05,7.099046161058039e-06
-0.032418272007076414,-9.24391338511679e-05,7.056897053213408e-06
-0.03203864009045592,-0.00010855336187555098,7.006648929281728e-06
-0.031580202594417704,-0.00012445807254676938,6.948396070676148e-06
-0.03105487656172623,-0.00014011684233580535,6.882252341955504e-06
-0.03047616571266861,-0.00015549960290440405,6.808348230645451e-06
-0.029858797431678467,-0.0001705833436904908,6.726827493996728e-06
-0.029218313123695955,-0.00018535262132933443,6.637843502741771e-06
-0.02857062362515282,-0.00019979985551654662,6.541555383530301e-06
-0.027931542731472494,-0.00021392539710570296,6.438124070374738e-06
-0.02731631376699468,-0.00022773736123031976,6.327708380790732e-06
-0.02673914544013789,-0.00024125122603210292,6.210461233975127e-06
-0.026212773557814314,-0.000254489205781591,6.086526126021703e-06
-0.025748065138987853,-0.0002674794154557915,5.956033970712357e-06
-0.025353681295539148,-0.00028025485206442327,5.819100403832303e-06
-0.025035813733292982,-0.00029285222582163127,5.675823634360789e-06
-0.02479800575534583,-0.000305310680693791,5.526282907731934e-06
-0.02464106300721548,-0.0003176704478844313,5.3705376255873785e-06
-0.02456305380719247,-0.0003299714770880333,5.208627144344262e-06
-0.024559394897889483,-0.00034225208926430377,5.040571252756178e-06
-0.024623015676264428,-0.00035454769190784225,4.866371307463141e-06
-0.024744591746556757,-0.00036688959376354757,4.686011986045294e-06
-0.02491283673427109,-0.00037930395088375455,4.4994635998834686e-06
-0.025114840018895145,-0.0003918108700720461,4.306684894644519e-06
-0.025336437502854216,-0.0004044236894524835,4.107626254763386e-06
-0.025562602261471584,-0.00041714844939356495,3.9022332200518735e-06
-0.025777841864254743,-0.00042998356042499655,3.690450217597233e-06
-0.02596659013501336,-0.00044291966842481355,3.4722244103847806e-06
-0.026113583451039212,-0.0004559397118213267,3.2475095653232457e-06
-0.026204214456692868,-0.00046901916129825973,3.0162698470433493e-06
-0.026224858188874045,-0.0004821264294596515,2.7784834493538715e-06
-0.02616316653233835,-0.0004952234356399546,2.5341459830789698e-06
-0.026008326404315787,-0.0005082663088741182,2.2832735469504516e-06
-0.025751275562926005,-0.0005212062093659286,2.02590541739044e-06
-0.025384869125657746,-0.0005339902455380746,1.762106303664439e-06
-0.024903991556482246,-0.0005465624607086096,1.491968127102768e-06
-0.024305612898110725,-0.0005588648618222578,1.2156112964700511e-06
-0.023588792156159485,-0.0005708384630858254,9.331854652430304e-07
-0.02275463291575881,-0.0005824243193538049,6.448697696331228e-07
-0.02180619652426629,-0.0005935645267138112,3.508725581162188e-07
-0.020748377841871203,-0.0006042031703053456,5.1430633861429594e-08
-0.01958774836731067,-0.000614287201857641,-2.5319195917931705e-07
-0.01833237147371928,-0.0006237672318178984,-5.627055675982019e-07
-0.01699159479948451,-0.0006325982233861994,-8.767969313992263e-07
-0.01557582581646124,-0.0006407400785401857,-1.1951315068808227e-06
-0.014096297335189188,-0.0006481581093280984,-1.5173560538478937e-06
-0.012564828338024315,-0.0006548233907464017,-1.8431014288665188e-06
-0.01099358157172762,-0.0006607129932238397,-2.171985524859079e-06
-0.009394815206777627,-0.000665810092418466,-2.5036162962696558e-06
-0.00778062488646879,-0.0006701039524417776,-2.8375948074847168e-06
-0.0061626755346088635,-0.000673589777547047,-3.173518239981923e-06
-0.004551927551927056,-0.0006762684283186809,-3.5109827914483547e-06
-0.0029583672222526455,-0.0006781460020122258,-3.849586399031082e-06
-0.0013907548199077891,-0.0006792332825227659,-4.18893122016483e-06
0.00014359477277759821,-0.0006795450725345485,-4.5286258089291585e-06
0.0016389855839026803,-0.0006790994274453784,-4.8682869339241404e-06
0.0030914587947082055,-0.0006779168163507257,-5.207540994873166e-06
0.004498851545928535,-0.0006760192387655665,-5.546025008652239e-06
0.005860796970058525,-0.0006734293266365697,-5.883387150002773e-06
0.007178668816199164,-0.0006701694601900053,-6.219286846709416e-06
0.008455473789553384,-0.0006662609245385672,-6.5533944428915595e-06
0.009695692467041496,-0.0006617231329744185,-6.885390457269806e-06
0.010905067752323198,-0.0006565729429195773,-7.214964476243305e-06
0.012090340381421556,-0.0006508240908861411,-7.541813734694734e-06
0.013258934613745877,-0.0006444867721373493,-7.865641450450607e-06
0.01441860311926794,-0.0006375673877040958,-8.186154990410969e-06
0.015577046159941764,-0.0006300684753842935,-8.503063956183067e-06
0.01674152423405197,-0.000621988832785795,-8.81607828322559e-06
0.01791848474763749,-0.0006133238305403727,-9.124906449057132e-06
0.01911322293356197,-0.0006040659036200728,-9.429253882597243e-06
0.02032959571699141,-0.0005942051989574345,-9.728821658241619e-06
0.021569804104321,-0.0005837303490021064,-1.0023305545231505e-05
0.022834255133481907,-0.0005726293341926556,-1.0312395466030195e-05
0.024121509738065355,-0.0005608903929747688,-1.059577539782205e-05
0.025428318713802252,-0.0005485029358618019,-1.0873123730031192e-05
0.026749744527986702,-0.0005354584200513546,-1.1144114069009482e-05
0.028079361255813805,-0.0005217511436054045,-1.1408416459923672e-05
0.029409519453782357,-0.0005073789234280055,-1.1665698976682025e-05
0.03073165928572423,-0.0004923436287431289,-1.1915629614724808e-05
0.03203665455253201,-0.0004766515502835648,-1.215787840948148e-05
0.03331517120946694,-0.00046031359384306506,-1.2392119695513139e-05
0.03455802466196574,-0.00044334529487520687,-1.2618034417692707e-05
0.03575652045432493,-0.0004257666585961342,-1.2835312406060543e-05
0.03690276441025649,-0.0004076018373799888,-1.3043654530054573e-05
0.03798993161427739,-0.00038887866337385536,-1.3242774655243035e-05
0.03901248747003758,-0.0003696280586027766,-1.3432401335737192e-05
0.03996635650863134,-0.00034988334760810934,-1.3612279187289914e-05
0.04084903547028548,-0.0003296794996133801,-1.3782169899095287e-05
0.04165964794327139,-0.0003090523287599909,-1.394185285618863e-05
0.04239893955521792,-0.0002880376818853686,-1.409112535884997e-05
0.04306921492088326,-0.0002666706432663433,-1.4229802440137899e-05
0.04367421949213378,-0.000244984784663089,-1.4357716297120257e-05
0.04421897130745385,-0.0002230114869631921,-1.4474715365026827e-05
0.044709550053680255,-0.00020077935662290858,-1.4580663075923352e-05
0.045152853750304776,-0.00017831375567191232,-1.4675436353997058e-05
0.04555633575107944,-0.00015563645829656626,-1.4758923907489178e-05
0.04592773550053322,-0.0001327654404836631,-1.4831024382184235e-05
0.046274815102972905,-0.00010971480283278657,-1.4891644443013348e-05
0.04660511093163514,-8.649482132413455e-05,-1.4940696849052579e-05
0.04692570683300963,-6.311211688297335e-05,-1.4978098583604355e-05
0.047243034250225135,-3.9569931612164663e-05,-1.5003769095728139e-05
0.047562704618333854,-1.5868496895024917e-05,-1.5017628702854936e-05
0.04788937929571869,7.994524083488221e-06,-1.501959719605782e-05
0.04822668081337846,3.202353911076251e-05,-1.5009592680259257e-05
0.048577146137506945,5.6224495848483864e-05,-1.4987530671519446e-05
0.04894221882466283,8.06043370890263e-05,-1.4953323463285068e-05
0.04932227375926273,0.0001051704602350077,-1.4906879763954059e-05
0.04971666660850002,0.00012993019532694838,-1.484810460006357e-05
0.05012380033484105,0.00015489031206278366,-1.4776899473216137e-05
0.05054120268390545,0.00018005656281747028,-1.4693162754496073e-05
0.05096561121108894,0.00020543326629121888,-1.4596790297218901e-05
0.051393065465445635,0.00023102293546035252,-1.4487676246781007e-05
0.05181900793105458,0.00025682595380947755,-1.436571402446355e-05
0.05223839514487661,0.00028284030457846035,-1.4230797459866565e-05
0.052645818683147154,0.0003090613580354663,-1.4082822044213084e-05
0.053035633729600865,0.0003354817211386533,-1.3921686274419553e-05
0.053402091106852484,0.0003620911523477666,-1.3747293056047949e-05
0.05373946711989736,0.00038887654190445406,-1.3559551132484893e-05
0.05404218521290409,0.0004158219549876544,-1.3358376508261866e-05
0.0543049246952247,0.0004429087324646866,-1.314369383639878e-05
0.05452271350442788,0.00047011564201459975,-1.291543774277896e-05
0.05469100274303135,0.0004974190710764645,-1.2673554064506193e-05
0.05480572057493124,0.0005247932519059551,-1.2418000983760588e-05
0.054863303440854314,0.0005522105079099016,-1.2148750043806624e-05
0.0548607049120312,0.0005796415099981229,-1.1865787039329619e-05
0.054795386465006056,0.0006070555328423822,-1.1569112778619492e-05
0.054665297598854246,0.0006344207038583473,-1.125874371944431e-05
0.0544688531171094,0.0006617042415373381,-1.0934712483095389e-05
0.0542049135695119,0.0006888726832089935,-1.0597068251908806e-05
0.05387277227740572,0.0007158921046707229,-1.0245877054938877e-05
0.053472149847438186,0.0007427283352019339,-9.881221944970714e-06
0.0530031953129515,0.0007693471714920314,-9.503203068297223e-06
0.05246649288278366,0.0007957145935409652,-9.111937627038973e-06
0.05186307441767998,0.0008217969853660811,-8.707559732312212e-06
0.051194438616517055,0.0008475613636246303,-8.290220145064533e-06
0.05046257729150962,0.000872975617601637,-7.860085899757967e-06
0.04967000705310073,0.0008980087636877896,-7.41733980443561e-06
0.04881980183896573,0.0009226312159108062,-6.962179809535961e-06
0.04791561905061902,0.0009468150711332023,-6.494818237774959e-06
0.04696171086934152,0.0009705344036131925,-6.01548086908836e-06
0.045962912901574726,0.0009937655595559215,-5.5244058782960816e-06
0.04492460375285028,0.0010164874387195279,-5.021842628727219e-06
0.043852631256564044,0.0010386817474718815,-4.508050332179367e-06
0.042753205090721766,0.001060333206558703,-3.98329659367172e-06
0.04163276149389307,0.0010814296982048566,-3.4478558674808303e-06
0.04049781097696345,0.0011019623413225709,-2.9020078575989734e-06
0.03935478123864725,0.0011219254893764736,-2.3460358999242124e-06
0.038209865189286506,0.0011413166509834569,-1.7802253648342296e-06
0.03706888123970699,0.0011601363375907052,-1.204862117690689e-06
0.03593715202873847,0.0011783878459078166,-6.202310718160586e-07
0.03481940783656695,0.0011960769858741429,-2.661486387056872e-08
0.03371972032993669,0.0012132117679157688,5.757073245769091e-07
0.03264147039096656,0.0012298020655959947,1.1864607829548499e-06
0.03158735105678005,0.0012458592709579314,1.8053761170933314e-06
0.030559403773173347,0.0012613959596654198,2.432189924749169e-06
0.02955908369657157,0.001276425581532856,3.066645310048738e-06
0.028587347694234103,0.0012909621893805573,3.7084922527770913e-06
0.027644757009440322,0.001305020215556476,4.35748785401135e-06
0.02673158541161724,0.0013186143011617404,5.013396483190904e-06
0.025847923012927283,0.0013317591782678764,5.675989853048308e-06
0.02499376586232944,0.0013444696004866906,6.3450470477369495e-06
0.024169082323814352,0.0013567603125332266,7.020354525991929e-06
0.023373849200198003,0.0013686460454142297,7.701706115478793e-06
0.02260805285535386,0.0013801415209281178,8.38890300706438e-06
0.021871652578708947,0.0013912614472866335,9.081753749118068e-06
0.02116450567748258,0.0014020204868506814,9.780074232652397e-06
0.020486257134007195,0.001412433177553554,1.0483687648753456e-05
0.01983620058684326,0.0014225137919837666,1.1192424391137786e-05
0.01921312030933814,0.001432276122207812,1.190612186968568e-05
0.01861512497266008,0.0014417331835283114,1.2624624196119711e-05
0.018039484021730265,0.001450896835776909,1.3347781700946016e-05
0.017482477899511042,0.0014597773262572194,1.4075450241454549e-05
0.01693927475307967,0.0014683827644203671,1.4807490264123946e-05
0.016403847573818235,0.0014767185450020915,1.554376559147956e-05
0.01586894517611125,0.001484786743189574,1.6284141913527474e-05
0.015326127414579874,0.0014925855113372467,1.702848497715918e-05
0.0147658706761769,0.001500108510859936,1.7776658482708478e-05
0.014177745271142852,0.001507344414846766,1.8528521714135153e-05
0.013550661993548914,0.001514276516662939,1.928392694701258e-05
0.012873180139845494,0.0015208824771962876,2.0042716695477388e-05
0.012133863731593454,0.0015271342381641473,2.0804720874317497e-05
0.011321668010631284,0.0015329981210997034,2.156975396413346e-05
0.010426336020615998,0.0015384351221075152,2.2337612274935264e-05
0.009438785472946845,0.0015434014024809058,2.3108071406082368e-05
0.008351467972132376,0.0015478489658421757,2.3880883998163138e-05
0.007158684604911652,0.0015517265039864366,2.465577786562029e-05
0.005856843391962129,0.001554980385985655,2.5432454588113314e-05
0.004444646269698075,0.00155755575840107,2.6210588624209994e-05
0.002923197536305569,0.001559397719352571,2.6989826993648402e-05
0.0012960317640590266,0.0015604525266776621,2.776978955515596e-05
-0.00043093482593598633,0.001560668800912193,2.8550069887053426e-05
-0.0022495213369057823,0.0015599986868714826,2.9330236758999344e-05
-0.004149457602140289,0.001558398942136721,3.0109836166251395e-05
-0.006118608393699053,0.0015558319256377612,3.0888393883195015e-05
-0.008143237797139269,0.0015522664640900516,3.1665418480626965e-05
-0.010208305681634425,0.0015476785782203581,3.244040474120457e-05
-0.012297788440713959,0.001542052054689771,3.3212837399432104e-05
-0.014395016886024401,0.0015353788533580865,3.398219512644407e-05
-0.016483025242383337,0.0015276593428259846,3.474795467549009e-05
-0.01854490574481097,0.001518902360079186,3.550959510121638e-05
-0.02056416328448705,0.0015091250928218616,3.626660196444164e-05
-0.022525064693547276,0.001498352785827353,3.7018471434103944e-05
-0.02441297807284934,0.0014866182751357537,3.776471419934472e-05
-0.026214698718817896,0.001473961355937837,3.8504859107113116e-05
-0.02791875863565501,0.0014604279915992188,3.923845644399738e-05
-0.0295157149059419,0.0014460693732138196,3.996508078520064e-05
-0.030998408095925127,0.0014309408424633529,4.068433333911993e-05
-0.032362177519212984,0.0014151006960595684,4.139584372375066e-05
-0.03360501848692732,0.0013986088970580333,4.2099271122030064e-05
-0.034727668595439506,0.0013815257252874416,4.279430477761643e-05
-0.03573361422525335,0.0013639104045822684,4.3480663810083856e-05
-0.03662901293507154,0.0013458197477921872,4.415809634817747e-05
-0.03742253176919453,0.0013273068616161206,4.4826378000529546e-05
-0.03812510587396829,0.00130841995220533,4.5485309703984906e-05
-0.03874962584579911,0.001289201269275388,4.6134715009355084e-05
-0.03931056503860331,0.0012696862215542874,4.6774436882062505e-05
-0.0398235598055624,0.001249902690343246,4.740433411003689e-05
-0.04030495726446367,0.0012298705610757393,4.802427742289163e-05
-0.0407713462623666,0.0012096014851940317,4.8634145434459074e-05
-0.04123908631986617,0.0011890988770484735,4.92338205250197e-05
-0.041723846623207175,0.0011683581438127052,4.9823184780235e-05
-0.042240164728514294,0.0011473671409747749,5.040211610143187e-05
-0.042801034066326356,0.0011261068412760646,5.097048459699458e-05
-0.04341753018803142,0.0011045522002124753,5.152814935736672e-05
-0.044098486847973975,0.0010826731959534739,5.207495570640821e-05
-0.04485023372568549,0.001060436015810059,5.2610733009349094e-05
-0.04567640723552171,0.0010378043555697573,5.3135293102194044e-05
-0.04657784355952053,0.0010147407928709968,5.3648429389304236e-05
-0.04755255835509727,0.0009912081923923424,5.414991663562007e-05
-0.04859581164878222,0.0009671710998913726,5.4639511458690995e-05
-0.049700251516237366,0.0009425970841001177,5.5116953504688867e-05
