frame_number,force
0,653.570880093314
1,653.5435767020193
2,653.5120808312123
3,653.4762387320177
4,653.4358930901542
5,653.3908917756008
6,653.3410972203914
7,653.2863961600223
8,653.2267093398964
9,653.1620005972163
10,653.0922846578568
11,653.01763311674
12,652.9381783140053
13,652.8541150550525
14,652.7657002909166
15,652.6732509479475
16,652.5771400664337
17,652.4777913388476
18,652.3756721313188
19,652.271285168449
20,652.1651591985076
21,652.0578390289302
22,651.9498752851578
23,651.841814143878
24,651.7341872039173
25,651.627501627105
26,651.5222307024933
27,651.4188050460593
28,651.3176047336364
29,651.2189527423884
30,651.1231100766761
31,651.0302728212649
32,650.9405711309303
33,650.8540699571419
34,650.7707712345867
35,650.6906172946879
36,650.6134953646093
37,650.539243072708
38,650.4676548633822
39,650.3984891467568
40,650.3314759643995
41,650.26632499287
42,650.2027337857124
43,650.140396211159
44,650.0790110712322
45,650.0182909013597
46,649.9579709302661
47,649.8978180997767
48,649.8376399406475
49,649.7772930741531
50,649.7166911880945
51,649.6558124004642
52,649.5947058348651
53,649.5334970006204
54,649.4723913714419
55,649.4116755688091
56,649.3517157766736
57,649.2929532499554
58,649.2358968729725
59,649.181112720201
60,649.1292106046941
61,649.0808277174519
62,649.036609633861
63,648.9971891595563
64,648.9631636797445
65,648.9350718334537
66,648.91337045143
67,648.8984127903909
68,648.8904291663757
69,648.8895110887579
70,648.8955998661195
71,648.9084804000867
72,648.9277805742207
73,648.9529763438886
74,648.983402356696
75,649.0182676910912
76,649.0566761194092
77,649.0976502006876
78,649.1401584682825
79,649.1831449367721
80,649.2255600612438
81,649.2663921583484
82,649.3046982111034
83,649.339632957445
84,649.3704751647934
85,649.3966500042936
86,649.4177465389639
87,649.4335296035165
88,649.4439457281082
89,649.4491231164147
90,649.449365954391
91,649.4451435104979
92,649.4370746350404
93,649.4259083927822
94,649.4125016479804
95,649.3977944568427
96,649.3827841405013
97,649.3684989152187
98,649.3559718916815
99,649.3462161004212
100,649.340201016216
101,649.3388309134884
102,649.3429253236162
103,649.3532018994916
104,649.3702620925443
105,649.3945801010861
106,649.4264954378448
107,649.4662091978877
108,649.5137838340191
109,649.569146102459
110,649.6320928248142
111,649.7022991343806
112,649.7793288877226
113,649.8626469272753
114,649.9516328601442
115,650.0455959534062
116,650.1437906972807
117,650.2454326783823
118,650.3497146680445
119,650.4558231044293
120,650.5629552124564
121,650.6703368034428
122,650.7772404471589
123,650.8830033644854
124,650.9870441452604
125,651.0888773084633
126,651.18812481845
127,651.2845239325965
128,651.3779311042155
129,651.468321984698
130,651.5557877483227
131,651.6405279469411
132,651.7228399517155
133,651.8031049131013
134,651.8817702066337
135,651.9593285725741
136,652.0362945474461
137,652.1131791895087
138,652.1904643703708
139,652.2685779975671
140,652.347871510115
141,652.4286008880674
142,652.5109122098959
143,652.5948324902787
144,652.680266219897
145,652.7669977524923
146,652.854699389229
147,652.9429446482591
148,653.0312258440895
149,653.1189748694267
150,653.2055860280669
151,653.2904398293117
152,653.3729267013131
153,653.4524696022215
154,653.5285446038882
155,653.6006987438753
156,653.6685646968643
157,653.7318719782854
158,653.79045444943
159,653.844253943777
160,653.8933199478455
161,653.9378054164848
162,653.9779589313821
163,654.0141135344556
164,654.046672728105
165,654.0760943266049
166,654.1028730011789
167,654.127522410593
168,654.1505577175185
169,654.1724791030936
170,654.1937567147338
171,654.2148174005323
172,654.236033585511
173,654.2577146391059
174,654.2801009848757
175,654.3033609985889
176,654.3275904875699
177,654.3528143325013
178,654.378989769695
179,654.4060108054553
180,654.4337133588681
181,654.4618809049276
182,654.4902505926839
183,654.5185199446148
184,654.5463542314008
185,654.573394501664
186,654.5992661149058
187,654.6235875042904
188,654.6459787942207
189,654.6660698745716
190,654.6835076167204
191,654.6979620301311
192,654.7091312092788
193,654.7167449106987
194,654.7205666247231
195,654.7203941630901
196,654.716059046677
197,654.7074251859018
198,654.6943873729488
199,654.6768699837068
200,654.654826116659
201,654.6282372287637
202,654.5971132112072
203,654.5614928373138
204,654.5214445905929
205,654.4770679381071
206,654.4284950743312
207,654.3758930240442
208,654.3194658012458
209,654.2594561438141
210,654.1961462645326
211,654.129857097497
212,654.0609456150805
213,653.9897999318141
214,653.9168321774736
215,653.8424695184203
216,653.7671440503915
217,653.6912823729675
218,653.6152955030724
219,653.5395696024923
220,653.4644579291489
221,653.390274426746
222,653.3172893275078
223,653.2457270170122
224,653.1757662292913
225,653.1075424529479
226,653.0411522651773
227,652.9766591722486
228,652.9141004232848
229,652.853494188073
230,652.7948464472613
231,652.7381569386226
232,652.6834235625075
233,652.6306447793424
234,652.5798196841114
235,652.5309455748962
236,652.4840129813279
237,652.4389983412586
238,652.395854774226
239,652.3545015937356
240,652.3148132742896
241,652.2766085918302
242,652.2396406832833
243,652.2035888636706
244,652.1680531267915
245,652.1325522191103
246,652.0965259770861
247,652.0593423285721
248,652.020309066067
249,651.9786902106766
250,651.933726454981
251,651.8846588051606
252,651.830754232273
253,651.7713319929508
254,651.7057893052852
255,651.633625190234
256,651.554461416939
257,651.4680595895232
258,651.3743335568759
259,651.2733566101017
260,651.1653633350326
261,651.0507463850195
262,650.9300487175472
263,650.803951952741
264,650.6732614928713
265,650.5388889760823
266,650.4018325999831
267,650.2631558344235
268,650.1239649958418
269,649.9853860848315
270,649.8485412519101
271,649.7145252600415
272,649.5843823029725
273,649.4590834844073
274,649.3395051865866
275,649.2264085282893
276,649.1204202259795
277,649.0220154437201
278,648.9315035063485
279,648.84901746295
280,648.7745083600319
281,648.7077448101994
282,648.6483181427798
283,648.5956531351894
284,648.5490240333062
285,648.507575301851
286,648.470346359599
287,648.4362994382915
288,648.4043495969732
289,648.373395851372
290,648.342352437371
291,648.3101794076156
292,648.2759119198478
293,648.2386876137953
294,648.1977714168011
295,648.152577041912
296,648.1026843949775
297,648.0478521310145
298,647.9880247535037
299,647.9233339611687
300,647.8540943410463
301,647.7807938325964
302,647.7040795580319
303,647.6247397006051
304,647.5436822243681
305,647.4619113277332
306,647.3805024803513
307,647.300576698066
308,647.2232744870541
309,647.1497297459384
310,647.0810438962517
311,647.0182606081406
312,646.9623416338466
313,646.9141443748791
314,646.8744018639525
315,646.8437058504387
316,646.822493620483
317,646.811039036037
318,646.8094480747255
319,646.8176589614038
320,646.8354468264185
321,646.8624326829296
322,646.8980963743581
323,646.9417930075225
324,646.9927722501646
325,647.0501997496768
326,647.1131798840416
327,647.1807791100115
328,647.2520492693617
329,647.3260502894678
330,647.4018717616785
331,647.478652915575
332,647.5556005277792
333,647.6320043080332
334,647.7072493365031
335,647.780825256511
336,647.8523321546841
337,647.9214832664904
338,647.9881047065379
339,648.0521323551043
340,648.1136059534646
341,648.1726604369939
342,648.2295145407661
343,648.2844567323666
344,648.3378286275188
345,648.3900063087227
346,648.4413803582992
347,648.4923357491173
348,648.5432328268736
349,648.5943904458326
350,648.6460720063777
351,648.698474823193
352,648.7517230040215
353,648.8058638599884
354,648.8608677641892
355,648.9166312611964
356,648.9729830955267
357,649.0296927353742
358,649.0864809593562
359,649.1430321025356
360,649.1990075426012
361,649.2540599199604
362,649.3078474920806
363,649.3600480153699
364,649.4103716290091
365,649.4585722945685
366,649.5044573804383
367,649.5478950527975
368,649.5888193311803
369,649.6272329330704
370,649.6632082318224
371,649.6968867059836
372,649.7284771515369
373,649.7582526879504
374,649.7865463327718
375,649.8137448170716
376,649.8402804185802
377,649.8666208058476
378,649.8932571037035
379,649.9206905517965
380,649.9494182220342
381,649.9799183069435
382,650.0126355153261
383,650.0479671253177
384,650.0862502425671
385,650.1277507739139
386,650.1726545593492
387,650.2210610503532
388,650.2729798795812
389,650.3283305489368
390,650.3869452299434
391,650.4485744320707
392,650.5128951768119
393,650.5795212832171
394,650.6480153137722
395,650.7179016414361
396,650.7886800385286
397,650.8598391685234
398,650.9308693892744
399,651.0012743898517
400,651.0705813781549
401,651.1383497364608
402,651.204178195967
403,651.2677106320241
404,651.328640556408
405,651.3867143011504
406,651.4417328226001
407,651.4935521061806
408,651.5420823310162
409,651.5872861319078
410,651.6291763301933
411,651.6678133674777
412,651.703302459521
413,651.7357903109327
414,651.7654611632131
415,651.7925319834509
416,651.8172466764946
417,651.8398692721146
418,651.8606761267912
419,651.8799473333817
420,651.8979577242238
421,651.9149679934014
422,651.9312164952728
423,651.9469122361551
424,651.9622295288654
425,651.9773047087563
426,651.9922351288819
427,652.0070803290996
428,652.0218648991646
429,652.0365822857709
430,652.0511987488214
431,652.0656568576678
432,652.0798782169032
433,652.0937653917777
434,652.1072032343202
435,652.1200600351373
436,652.1321891383029
437,652.143431772706
438,652.1536217845692
439,652.1625926848571
440,652.1701870160413
441,652.1762676109622
442,652.1807299769426
443,652.1835148455436
444,652.184619861857
445,652.1841094160422
446,652.1821217487172
447,652.1788726655835
448,652.1746553929933
449,652.1698362654545
450,652.1648461291069
451,652.1601676315125
452,652.1563189082136
453,652.1538344739638
454,652.1532443040414
455,652.1550521302804
456,652.1597139354991
457,652.1676176025134
458,652.1790646891353
459,652.1942552967419
460,652.2132769053565
461,652.2360978416702
462,652.2625657512414
463,652.2924111070379
464,652.3252554582015
465,652.3606238650349
466,652.397960812825
467,652.4366488117024
468,652.4760287985004
469,652.5154213527476
470,652.5541477012156
471,652.5915495755794
472,652.627007192034
473,652.6599548938876
474,652.6898942778139
475,652.7164048264386
476,652.7391521494061
477,652.7578939437223
478,652.7724837901085
479,652.7828728990607
480,652.7891098779864
481,652.7913385356723
482,652.7897937255118
483,652.7847952676063
484,652.7767400611267
485,652.7660925852332
486,652.7533740852526
487,652.739150849224
488,652.7240220771818
489,652.7086078732124
490,652.6935377960085
491,652.6794402182487
492,652.6669325662248
493,652.6566123869178
494,652.6490490805162
495,652.6447760141164
496,652.6442826466628
497,652.6480063249273
498,652.656323602777
499,652.6695412647886
500,652.687887575371
501,652.7115044792912
502,652.7404415068714
503,652.7746520441444
504,652.8139924691576
505,652.8582244465317
506,652.9070204217993
507,652.9599720933351
508,653.016601417387
509,653.0763735795202
510,653.1387113762992
511,653.2030105757694
512,653.2686559765617
513,653.3350379501442
514,653.4015691821893
515,653.4677011640908
516,653.5329397954172
517,653.5968593275038
518,653.6591138798264
519,653.7194459015219
520,653.7776911775669
521,653.8337802432753
522,653.8877363599069
523,653.9396704936283
524,653.9897739380602
525,654.0383092413559
526,654.0855999691819
527,654.132019648468
528,654.1779800558013
529,654.2239188880717
530,654.2702868427741
531,654.3175342527802
532,654.3660976068902
533,654.416386468302
534,654.4687713942967
535,654.5235733781246
536,654.5810550922541
537,654.6414139455015
538,654.7047767955391
539,654.7711961071947
540,654.8406473953089
541,654.9130278949972
542,654.988156484588
543,655.0657749098822
544,655.1455503771656
545,655.2270796530541
546,655.3098948941889
547,655.3934714211389
548,655.4772374667106
549,655.5605856140784
550,655.6428853789606
551,655.7234963521661
552,655.8017814847861
553,655.8771202983949
554,655.9489219029965
555,656.0166376853722
556,656.0797734321447
557,656.137900538875
558,656.1906658824739
559,656.2377999145007
560,656.279122571493
561,656.3145467158567
562,656.3440790191344
563,656.367818433068
564,656.3859525930085
565,656.3987526005217
566,656.4065666058565
567,656.4098124782857
568,656.4089696770521
569,656.404570275188
570,656.3971889835138
571,656.387432025152
572,656.375924849444
573,656.3632988808658
574,656.3501776649547
575,656.3371628659486
576,656.3248206210711
577,656.3136687866062
578,656.3041656308538
579,656.2967005278516
580,656.2915871218078
581,656.2890592232944
582,656.2892694359376
583,656.2922903145075
584,656.2981177470289
585,656.3066761765253
586,656.3178252142764
587,656.3313672027624
588,656.3470553911656
589,656.364602512458
590,656.3836896008949
591,656.4039748651239
592,656.4251024011361
593,656.4467105134761
594,656.4684394034564
595,656.4899379863413
596,656.510869619228
597,656.5309165737735
598,656.5497832328242
599,656.5671982366994
600,656.5829160151303
601,656.5967181462547
602,656.60841478283
603,656.6178461355092
604,656.6248838532932
605,656.6294321436629
606,656.6314285978207
607,656.6308448342103
608,656.6276871287251
609,656.6219971190427
610,656.6138525251976
611,656.6033677285811
612,656.5906940549858
613,656.5760197131815
614,656.5595695052256
615,656.541604548611
616,656.5224222145998
617,656.502356270012
618,656.4817769391221
619,656.4610904474873
620,656.4407376289774
621,656.4211912925448
622,656.4029521572479
623,656.3865432520963
624,656.3725027645543
625,656.3613754079959
626,656.3537024536909
627,656.3500106382991
628,656.3508002164764
629,656.3565325060308
630,656.3676174142446
631,656.3844016194022
632,656.4071582174046
633,656.4360786582672
634,656.4712676700892
635,656.5127415812855
636,656.5604300331819
637,656.6141806614437
638,656.673766072848
639,656.7388923865201
640,656.8092086713235
641,656.8843167236838
642,656.9637807495584
643,657.0471365946133
644,657.1339001913911
645,657.2235749079551
646,657.3156575610443
647,657.4096430344059
648,657.5050276769765
649,657.6013118245706
650,657.698001790249
651,657.7946115401766
652,657.8906641603189
653,657.9856932213539
654,658.0792442364194
655,658.1708764949991
656,658.2601655786525
657,658.3467067744815
658,658.4301193882746
659,658.5100516845711
660,658.5861859709398
661,658.658243301185
662,658.7259874152317
663,658.7892277909558
664,658.8478219205806
665,658.9016770262344
666,658.9507513905656
667,658.9950553842489
668,659.0346522061805
669,659.0696583445875
670,659.1002437937782
671,659.1266320625203
672,659.1490999260486
673,659.1679766801011
674,659.1836424145858
675,659.196524695864
676,659.2070931498547
677,659.215851710517
678,659.2233285920425
679,659.2300643071171
680,659.2365982910953
681,659.2434548390096
682,659.251129061002
683,659.260073462467
684,659.270685635454
685,659.2832974281353
686,659.2981658502488
687,659.315465894304
688,659.3352853883084
689,659.3576219149393
690,659.3823817615116
691,659.409380883743
692,659.4383479941315
693,659.4689300168513
694,659.5007001672735
695,659.5331688249488
696,659.5657972540808
697,659.598014096469
698,659.6292343736641
699,659.658880488555
700,659.6864044554485
701,659.7113103365106
702,659.7331756550777
703,659.7516704711719
704,659.7665728894071
705,659.777779991614
706,659.7853135023216
707,659.7893198796896
708,659.7900648997975
709,659.787923058507
710,659.7833622595119
711,659.7769244242252
712,659.7692029107877
713,659.7608178549117
714,659.7523906084112
715,659.7445183451524
716,659.7377497327791
717,659.7325624549769
718,659.7293433859916
719,659.7283723267631
720,659.729810262765
721,659.733692972354
722,659.7399305109839
723,659.7483127218137
724,659.7585205477976
725,659.770142537485
726,659.7826955306608
727,659.7956481443097
728,659.8084454785679
729,659.8205334970957
730,659.8313817586022
731,659.8405034796215
732,659.8474722135736
733,659.851934687325
734,659.853619503675
735,659.8523415079716
736,659.8480017132707
737,659.8405828667657
738,659.8301410420377
739,659.816794014721
740,659.8007075187012
741,659.7820806389196
742,659.7611315010951
743,659.7380841540818
744,659.7131572520386
745,659.6865548991093
746,659.6584598462224
747,659.629029164607
748,659.5983925166845
749,659.5666530623032
750,659.5338908144325
751,659.5001679671325
752,659.4655354497907
753,659.4300397735718
754,659.3937292039894
755,659.3566584845947
756,659.3188917237579
757,659.2805035041467
758,659.2415786199289
759,659.2022109855982
760,659.1625021792528
761,659.1225598532344
762,659.0824959977398
763,659.0424249109859
764,659.0024607542963
765,658.962714670321
766,658.9232915114152
767,658.8842862485266
768,658.8457801665609
769,658.807837022014
770,658.7704993887543
771,658.7337853831255
772,658.6976858336159
773,658.6621618065576
774,658.6271423295366
775,658.5925222690674
776,658.5581606022238
777,658.5238796146614
778,658.4894656963
779,658.4546723493245
780,658.419225812609
781,658.3828333857357
782,658.3451941651854
783,658.3060115845639
784,658.2650069545101
785,658.2219331235835
786,658.1765873958012
787,658.1288229449401
788,658.0785581744087
789,658.0257837399704
790,657.9705671896706
791,657.9130553418546
792,657.8534746450448
793,657.7921298356298
794,657.7294011641977
795,657.665740274983
796,657.601664573402
797,657.5377497111003
798,657.4746197180359
799,657.4129343584814
800,657.3533735177274
801,657.2966188161719
802,657.2433331153782
803,657.194139015111
804,657.1495976925331
805,657.1101893943795
806,657.0762966355572
807,657.0481908930402
808,657.0260234087445
809,657.0098205381616
810,656.9994838260088
811,656.9947947315135
812,656.9954237702639
813,657.0009437671824
814,657.0108468097353
815,657.0245642768887
816,657.04148904111
817,657.0609987172161
818,657.0824787492078
819,657.1053441885709
820,657.1290592028255
821,657.1531536430984
822,657.1772363339214
823,657.2010050359784
824,657.2242532189554
825,657.2468738534767
826,657.2688604072379
827,657.2903051982271
828,657.3113953153179
829,657.3324064294146
830,657.3536948457213
831,657.3756880388287
832,657.3988737656756
833,657.423787763943
834,657.4510000130449
835,657.4810995332952
836,657.5146777483739
837,657.5523105748637
838,657.5945396181114
839,657.6418530839093
840,657.6946671985648
841,657.7533090353277
842,657.8180016630914
843,657.8888524621483
844,657.9658453085566
845,658.0488371473642
846,658.1375592736255
847,658.2316234034624
848,658.330532328355
849,658.4336946278046
850,658.5404426320518
851,658.6500526495228
852,658.7617664485989
853,658.874813091698
854,658.9884303714408
855,659.1018851962677
856,659.2144922907019
857,659.3256305657385
858,659.4347565491156
859,659.5414143907259
860,659.6452421910005
861,659.7459746988357
862,659.8434426781967
863,659.9375693560552
864,660.0283643641375
865,660.1159155575365
866,660.2003790680856
867,660.2819679270494
868,660.3609395864538
869,660.4375826814435
870,660.512203359029
871,660.5851114280091
872,660.6566065283358
873,660.726964565973
874,660.7964248190472
875,660.8651783211586
876,660.9333582871801
877,661.0010334046192
878,661.068204722767
879,661.1348066156245
880,661.200711920931
881,661.26574098029
882,661.3296740383215
883,661.3922663285116
884,661.4532651016
885,661.5124277369517
886,661.569539910534
887,661.624432700895
888,661.6769976366705
889,661.7271989994832
890,661.7750829901652
891,661.8207834574993
892,661.8645237992362
893,661.9066145984574
894,661.9474467914289
895,661.9874807046704
896,662.0272318996124
897,662.0672551110937
898,662.1081275908355
899,662.1504330248699
900,662.1947469874448
901,662.2416245839767
902,662.2915905130573
903,662.345131367197
904,662.4026897506373
905,662.4646597667495
906,662.5313835309403
907,662.6031484664667
908,662.680185180363
909,662.7626657474443
910,662.8507023192445
911,662.944346094523
912,663.0435867680013
913,663.1483526141288
914,663.2585114067658
915,663.3738724039171
916,663.4941895817315
917,663.6191662164291
918,663.7484608869078
