acceleration,velocity,displacement
0.0369923494368486,0.0,0.0
0.036487463638725806,1.8369953268893604e-05,4.592488317223401e-09
0.03591909920521036,3.647159397987765e-05,1.8302875129416214e-08
0.03528813599411228,5.427340277970831e-05,4.0989124319312704e-08
0.034595637738879435,7.174434621295624e-05,7.249356156747884e-08
0.033842850985504595,8.885396839405224e-05,1.1264314021923096e-07
0.033031203360377424,0.00010557248198052275,1.6124975281287472e-07
0.032162301099155466,0.00012187085809540598,2.1811058783185692e-07
0.031237925735779545,0.00013772091480413972,2.8300853105674333e-07
0.030260029804542263,0.00015309540368922016,3.5571261068008333e-07
0.029230731395637356,0.00016796809398926508,4.3597848509970465e-07
0.02815230744821257,0.00018231385370022756,5.235489720220778e-07
0.02702718574057392,0.0001961087269974242,6.181546171964908e-07
0.025857935610618554,0.0002093300073352223,7.195143007796524e-07
0.02464725749407445,0.00022195630561139555,8.273358790163068e-07
0.023397971395633682,0.00023396761283382258,9.413168586276113e-07
0.0221130044066818,0.00024534535678440145,1.0611451010321673e-06
0.02079537737027492,0.00025607245222864064,1.1864995532854278e-06
0.01944819079729809,0.0002661333442705339,1.3170510024102214e-06
0.018074610168972657,0.00027551404451210156,1.4524628496058802e-06
0.016677850802170973,0.0002842021597548875,1.5923919006726274e-06
0.015261162476297937,0.00029218691307450473,1.7364891688799754e-06
0.0138278140108788,0.0002994591571962989,1.8844006864476762e-06
0.012381077953947816,0.0003060113801875056,2.0357683207936274e-06
0.01092421551479689,0.00031183770355469175,2.1902305917291767e-06
0.009460461862656195,0.000316933872899055,2.3474234858426133e-06
0.00799301191396459,0.0003212972413432102,2.5069812644031797e-06
0.006525006741347172,0.0003249267460070381,2.668537261240742e-06
0.005059520754121856,0.00032782287788090536,2.831724667212728e-06
0.0035995498137835805,0.00032998764552288174,2.9961772980636747e-06
0.0021480004391391883,0.00033142453308611245,3.161530342715923e-06
0.0007076802093483754,0.00033213845324823435,3.32742108929951e-06
-0.0007187106018910948,0.0003321356956500987,3.493489626524093e-06
-0.002128586195816034,0.0003314238714506719,3.6593795182992856e-06
-0.003519481288250979,0.00033001185457965515,3.8247384498068675e-06
-0.004889056083259731,0.0003279097202367775,3.989218843510976e-06
-0.006235100228400047,0.00032512868115886254,4.152478443859886e-06
-0.007555535790251456,0.0003216810221541997,4.314180869688152e-06
-0.008848419301464431,0.0003175800333812707,4.473996133572019e-06
-0.010111942958555116,0.00031283994281626585,4.631601127621403e-06
-0.011344435067243034,0.0003074758483098163,4.7866800754029235e-06
-0.01254435982460935,0.0003015036495868532,4.938924949877091e-06
-0.013710316507782675,0.0002949399805037552,5.088035857399743e-06
-0.014841038123965358,0.0002878021418458182,5.233721387987137e-06
-0.015935389568048266,0.0002801080349228148,5.375698932179295e-06
-0.01699236532819025,0.0002718760961987552,5.513694964959688e-06
-0.018011086781627668,0.0002631252331713007,5.647445297302202e-06
-0.0189907991404311,0.000253874761690786,5.776695296017723e-06
-0.019930868129825117,0.00024414434487322195,5.9012000726587254e-06
-0.020830776482098023,0.00023395393372024117,6.020724642307091e-06
-0.02169012029947053,0.00022332370952484902,6.135044053118364e-06
-0.02250860531320033,0.00021227402812168132,6.2439434875299965e-06
-0.023286043082642514,0.0002008253660227206,6.347218336066097e-06
-0.024022347234098445,0.00018899826844353537,6.444674244682661e-06
-0.02471752988678116,0.00017681329916331546,6.536127136584373e-06
-0.0253716984025962,0.00016429099209097113,6.621403209397945e-06
-0.025985052528866,0.00015145180435810558,6.700338908510215e-06
-0.026557881932389334,0.00013831607074279173,6.772780877285439e-06
-0.027090564093834743,0.0001249039592362357,6.838585884780195e-06
-0.027583562530781702,0.0001112354275800816,6.897620731484275e-06
-0.028037425308930653,9.733018062015351e-05,6.9497621335343335e-06
-0.02845278377056551,8.320762835027947e-05,6.994896585776941e-06
-0.028830351365920312,6.888684456615802e-05,7.03292020400605e-06
-0.029170922425375216,5.438652611833414e-05,7.063738546677174e-06
-0.029475370666115185,3.972495284546154e-05,7.087266416418123e-06
-0.029744647194335186,2.4919948380348943e-05,7.103427641724575e-06
-0.029979777744588966,9.988842145617904e-06,7.112154839356067e-06
-0.03018185888654232,-5.051567012164918e-06,7.11338915813943e-06
-0.030352052926224376,-2.0185044965356593e-05,7.10708000514505e-06
-0.030491581246409438,-3.539595350851505e-05,7.093184755526582e-06
-0.030601715884978686,-5.066927779136208e-05,7.071668447701613e-06
-0.030683769239124754,-6.599064907238794e-05,7.042503465985675e-06
-0.030739081886980074,-8.134636185391415e-05,7.0056692132541e-06
-0.03076900861883622,-9.672338448036823e-05,6.96115177667053e-06
-0.030774902862473898,-0.00011210936235069576,6.9089435899627636e-06
-0.03075809976795077,-0.00012749261300830193,6.849043096123014e-06
-0.030719898278834912,-0.00014286211251999837,6.781454414740939e-06
-0.0306615425532619,-0.00015820747272802258,6.706187018428934e-06
-0.030584203114588062,-0.00017351890914498507,6.623255422960682e-06
-0.030488958124420738,-0.00018878719945473728,6.5326788958107515e-06
-0.030376775194277283,-0.00020400363278441177,6.434481187750965e-06
-0.030248494180797662,-0.00021915995012818053,6.3286902920228165e-06
-0.030104811424206363,-0.00023424827652943154,6.215338235358414e-06
-0.029946265882507813,-0.00024926104585611006,6.0944609047620284e-06
-0.029773227596374203,-0.0002641909192258306,5.966097913491543e-06
-0.029585888896313053,-0.00027903069834900237,5.830292509097835e-06
-0.029384258712580397,-0.0002937732352512257,5.687091525697779e-06
-0.02916816024931208,-0.00030841133999169883,5.536545381887047e-06
-0.02893723215243767,-0.00032293768809213625,5.378708124866089e-06
-0.02869093317227119,-0.00033734472942331347,5.213637520487226e-06
-0.02842855021782144,-0.00035162460027083665,5.041395188063689e-06
-0.028149209618578065,-0.0003657690402299365,4.8620467779384955e-06
-0.02785189133926413,-0.00037976931546939704,4.675662189013662e-06
-0.02753544582953631,-0.0003936161497615972,4.482315822705913e-06
-0.027198613140408848,-0.00040729966450408345,4.282086869139493e-06
-0.026840043905060524,-0.0004208093287654508,4.07505962082211e-06
-0.026458321755299084,-0.0004341339201805407,3.861323808585612e-06
-0.026051986725947357,-0.0004472614973008523,3.6409749542152636e-06
-0.02561955920303975,-0.00046017938378309906,3.4141147339442758e-06
-0.025159564004466225,-0.00047287416458497556,3.1808513468522573e-06
-0.024670554226684762,-0.0004853316941427633,2.9412998821703226e-06
-0.024151134528253244,-0.0004975371163314979,2.6955826795517573e-06
-0.02359998354017867,-0.0005094748958486058,2.4438296765067314e-06
-0.02301587508974458,-0.0005211288605060866,2.1861787374180584e-06
-0.022397697907005545,-0.0005324822537552741,1.922775958852718e-06
-0.021744473482048023,-0.0005435177966025375,1.6537759462632652e-06
-0.02105537178938473,-0.0005542177579203957,1.3793420576325319e-06
-0.020329724690336122,-0.0005645640320403259,1.0996466101423514e-06
-0.019567036923213574,-0.0005745382224437134,8.148710465213416e-07
-0.018766994656003996,-0.0005841217303385178,5.252060583257838e-07
-0.01792947160703891,-0.0005932958469042786,2.3085166401508474e-07
-0.017054532759926588,-0.00060204184799602,-6.79827597099899e-08
-0.01614243572278943,-0.000610341090116699,-3.710784942381696e-07
-0.015193629807580983,-0.0006181751064992916,-6.782075433921672e-07
-0.014208752937333697,-0.0006255257021855203,-9.891327455633702e-07
-0.013188626532406421,-0.0006323750470529553,-1.303607932872989e-06
-0.012134248563841637,-0.0006387057658270173,-1.6213781360929821e-06
-0.011046784958033424,-0.0006445010242074861,-1.942179833601608e-06
-0.009927559482686955,-0.0006497446103176661,-2.265741242232896e-06
-0.008778042184105458,-0.0006544210107343642,-2.5917826474959036e-06
-0.007599836441044269,-0.0006585154803906517,-2.9200167702771577e-06
-0.0063946647670296,-0.0006620141056926702,-3.2501491667979883e-06
-0.005164353597565894,-0.000664903860283819,-3.5818786582921106e-06
-0.0039108173988413415,-0.0006671726530329208,-3.914897786621296e-06
-0.0026360425036108903,-0.0006688093680085338,-4.248893291881659e-06
-0.0013420711027852473,-0.0006698038964101328,-4.583546607986326e-06
-3.098579021728692e-05,-0.0006701471606333835,-4.918534372247205e-06
0.0012951050211342722,-0.0006698311308256542,-5.253528945111964e-06
0.0026340805989730352,-0.0006688488344206274,-5.588198936423535e-06
0.003983820193927862,-0.0006671943592224022,-5.9222097348342925e-06
0.005342214092185314,-0.000664862850650874,-6.2552240373026115e-06
0.00670717337415174,-0.0006618505037842897,-6.586902375911403e-06
0.008076638305739726,-0.0006581545508643169,-6.916903639573554e-06
0.009448585266658243,-0.0006537732449712174,-7.244885588532438e-06
0.010821032142803133,-0.000648705840618852,-7.570505359929955e-06
0.01219204218887513,-0.0006429525720359325,-7.89341996309365e-06
0.013559726487098599,-0.0006365146298669391,-8.213286763569368e-06
0.014922245250560044,-0.0006293941369325245,-8.529763955269234e-06
0.016277808303779607,-0.0006215941235439396,-8.84251102038835e-06
0.01762467510645264,-0.0006131185026913815,-9.15118917694718e-06
0.018961154686075735,-0.0006039720452432494,-9.455461813930838e-06
0.020285605821894186,-0.0005941603551162569,-9.754994914020715e-06
0.021596437768394646,-0.0005836898442186846,-1.0049457463854451e-05
0.022892111725084718,-0.0005725677068453148,-1.033852185162045e-05
0.024171143174122816,-0.0005608018931205129,-1.0621864251611908e-05
0.02543210513113686,-0.000548401081044198,-1.0899164995153086e-05
0.026673632272586487,-0.0005353746466932671,-1.1170108927087453e-05
0.027894425802202423,-0.0005217326321745699,-1.1434385746804412e-05
0.029093258817929242,-0.000507485711019537,-1.1691690332602938e-05
0.030268981876565588,-0.0004926451508459132,-1.19417230480693e-05
0.0314205284418925,-0.0004772227732662987,-1.2184190029097352e-05
0.0325469199209078,-0.00046123091117559865,-1.2418803450207827e-05
0.03364727000829694,-0.00044468236369329744,-1.2645281768925051e-05
0.03472078806866792,-0.00042759034917405625,-1.286334994714189e-05
0.03576678131720421,-0.0004099684568275882,-1.3072739648642301e-05
0.036784655626348764,-0.00039183059759169994,-1.3273189412247122e-05
0.03777391486359756,-0.0003731909549692134,-1.346444480038735e-05
0.038734158717727625,-0.0003540639365738821,-1.3646258523273125e-05
0.03966507899432599,-0.0003344641271458687,-1.3818390539203062e-05
0.04056645438380893,-0.00031440624380133495,-1.3980608131939862e-05
0.04143814374528487,-0.0002939050942690615,-1.413268596645746e-05
0.04228007799887005,-0.00027297553883302275,-1.4274406124732982e-05
0.04309225076301729,-0.0002516324566425509,-1.4405558123601875e-05
0.0438747079151201,-0.00022989071697301658,-1.4525938917005766e-05
0.04462753630488187,-0.0002077651559180161,-1.4635352885228525e-05
0.04535085190883836,-0.00018527055886458603,-1.4733611813924175e-05
0.04604478776254873,-0.00016242164894673925,-1.4820534865877006e-05
0.04670948202300037,-0.00013923308150035199,-1.4895948548488779e-05
0.047345066488897185,-0.0001157194443723776,-1.495968667995696e-05
0.04795165585290587,-9.189526378692683e-05,-1.5011590356996787e-05
0.04852933790723073,-6.777501534689268e-05,-1.5051507926780243e-05
0.049078164895914864,-4.337313964610628e-05,-1.5079294965528493e-05
0.04959814620054565,-1.8704061871991152e-05,-1.5094814265908018e-05
0.05008924253531428,6.217785311973831e-06,-1.5097935835048023e-05
0.05055136178913717,3.1377936393086695e-05,-1.5088536904621758e-05
0.0509843565830973,5.676186598614531e-05,-1.506650195402695e-05
0.05138802352714807,8.235496101370666e-05,-1.5031722747276988e-05
0.051762104086182134,0.00010814249291703921,-1.4984098383794302e-05
0.052106286921090574,0.0001341095906688574,-1.4923535362897828e-05
0.05242021155789746,0.00016024121528860442,-1.4849947661408462e-05
0.052703473250643076,0.00018652213649073956,-1.4763256823463626e-05
0.052955628936057327,0.00021293691203741466,-1.4663392061331588e-05
0.05317620421831405,0.00023946987032600752,-1.4550290365740732e-05
0.05336470134320587,0.0002661050967163875,-1.4423896623980133e-05
0.05352060810309296,0.0002928264240779622,-1.4284163743781545e-05
0.05364340756859301,0.0003196174279958837,-1.4131052780763083e-05
0.05373258849436203,0.00034646142701162246,-1.3964533067011206e-05
0.05378765620200545,0.0003733414881857143,-1.3784582338211871e-05
0.053808143706213514,0.00040024043816276904,-1.359118685662475e-05
0.05379362283708186,0.00042714087979859287,-1.338434152713441e-05
0.053743715130151956,0.00045402521429040133,-1.316405000361216e-05
0.05365810228483278,0.0004808756686441475,-1.2930324782878522e-05
0.05353653600574563,0.0005076743282167921,-1.2683187283663287e-05
0.053378847040598275,0.0005344031739783781,-1.2422667908114496e-05
0.05318495323909976,0.0005610441240483026,-1.2148806083607825e-05
0.05295486650706821,0.0005875790789848446,-1.1861650282849538e-05
0.052688698611234284,0.0006139899702644201,-1.156125802053722e-05
0.052386665858175224,0.0006402588113817725,-1.1247695825125672e-05
0.05204909268988649,0.0006663677510187879,-1.0921039184525532e-05
0.051676414217966475,0.0006922991277457512,-1.0581372464834397e-05
0.05126917768548735,0.0007180355257216147,-1.0228788801467555e-05
0.050828042814870765,0.0007435598308467042,-9.863389962325476e-06
0.0503537809842061,0.0007688552867964734,-9.485286182914682e-06
0.049847273189070986,0.0007939055503397927,-9.094595973630616e-06
0.04930950678598108,0.0008186947453335557,-8.691445899712279e-06
0.04874157104785005,0.0008432075147920135,-8.275970334680886e-06
0.04814465156906605,0.0008674290704462426,-7.848311188371323e-06
0.047520023537869216,0.0008913452392229764,-7.408617610954018e-06
0.046869043858050984,0.0009149425060719564,-6.957045674630285e-06
0.04619314206964178,0.0009382080525538796,-6.493758034973826e-06
0.0454938100122907,0.0009611297905743627,-6.018923574191765e-06
0.044772590200601765,0.0009836963906275859,-5.532717028891278e-06
0.04403106292103793,0.0010058973039079957,-5.035318605257382e-06
0.04327083211124067,0.0010277227776660655,-4.526913584863867e-06
0.04249351016687809,0.001049163863235595,-4.007691924638452e-06
0.04170070193992645,0.0010702124162622962,-3.477847854763979e-06
0.040893988294375225,0.0010908610888208717,-2.937579478493187e-06
0.04007490961372965,0.0011111033132978978,-2.3870883779634945e-06
0.039244949613972645,0.0011309332781048234,-1.8265792301128143e-06
0.03840551976458503,0.001150345895449463,-1.2562594367242428e-06
0.037557944599482314,0.0011693367615404798,-6.763387724767572e-07
0.03670344819622856,0.0011879021097394075,-8.702905465678544e-08
0.0358431420838281,0.0012060387573094215,5.114561621054218e-07
0.034978014795383205,0.0012237440465292244,1.1189018630650833e-06
0.03410892322048948,0.0012410157810331926,1.7350918199556876e-06
0.033236585847290626,0.0012578521583001376,2.35980880478902e-06
0.032361577924015075,0.001274251699242964,2.9928347691747956e-06
0.03148432851536398,0.0012902131758528088,3.6339509879487388e-06
0.030605119380802535,0.0013057355378268505,4.282938166368654e-06
0.029724085562340317,0.0013208178390626362,4.9395765105910255e-06
0.02884121753839689,0.0013354591648378205,5.603645761566139e-06
0.02795636477928003,0.0013496585604172396,6.274925192879904e-06
0.02706924053605384,0.001363414961746073,6.953193573420732e-06
0.026179427710273512,0.001376727128807655,7.638229096059164e-06
0.025286385673898487,0.001389593582153698,8.329809273799503e-06
0.024389457925230888,0.0014020125430534804,9.027710805101297e-06
0.023487880488360757,0.0014139818776568783,9.731709410278887e-06
0.02258079100632079,0.0014254990455305487,1.0441579641075744e-05
0.02166723853239565,0.0014365610529152278,1.1157094665687188e-05
0.02074619406074137,0.0014471644110635121,1.1878026031681873e-05
0.019816561842239164,0.0014573051000392574,1.2604143409457566e-05
0.018877191518061325,0.0014669785383793325,1.3335214319062213e-05
0.017926891098627124,0.0014761795590335046,1.4071003843415421e-05
0.016964440831120354,0.0014849023920159414,1.4811274331177782e-05
0.01598860801513827,0.001493140654227506,1.5555785092738646e-05
0.01499816281041095,0.0015008873469338933,1.6304292093028996e-05
0.013991895022269083,0.0015081348613920633,1.7056547645110484e-05
0.012968631769969232,0.001514874993090123,1.781230010873103e-05
0.01192725586459227,0.0015210989649987634,1.8571293598253252e-05
0.010866724649052792,0.0015267974601271747,1.9333267704534738e-05
0.009786088970114043,0.0015319606635319665,2.0097957235449523e-05
0.008684511862446408,0.0015365783137401066,2.0865091979767543e-05
0.007561286454013784,0.0015406397633192217,2.1634396499032374e-05
0.006415852579026141,0.0015441340480774816,2.240558995188155e-05
0.0052478116131555565,0.001547049964125527,2.31783859549323e-05
0.00405693910420706,0.0015493761518048676,2.39524924839149e-05
0.002843194833000973,0.0015511011852891697,2.472761181818841e-05
0.001606729994449115,0.0015522136664960322,2.550344053113471e-05
0.0003478912576458226,0.001552702321809056,2.6279669528210983e-05
-0.0009327784278368299,0.0015525561000165082,2.7055984133667375e-05
-0.0022345422705490965,0.0015517642698419116,2.783206422613198e-05
-0.003556475171815025,0.0015503165154813205,2.8607584422462788e-05
-0.004897472102061365,0.0015482030286628513,2.938221430849883e-05
-0.006256259006137515,0.0015454145958858016,3.0155618714635994e-05
-0.007631405906006794,0.0015419426796577655,3.092745803352189e-05
-0.009021341866165973,0.0015377794927147223,3.169738857661501e-05
-0.010424371479433123,0.0015329180643783224,3.246506296588827e-05
-0.011838692520897755,0.0015273522983782397,3.323013055657741e-05
-0.013262414420410396,0.0015210770216429127,3.3992237886582695e-05
-0.014693577217685508,0.0015140880237333888,3.475102914792677e-05
-0.01613017067271128,0.0015063820867607896,3.5506146675550315e-05
-0.01757015320621533,0.001497957005791058,3.6257231448688274e-05
-0.019011470355194324,0.0014888115999007055,3.700392360011122e-05
-0.020452072455669153,0.0014789457141979898,3.7745862928635895e-05
-0.02188993130247659,0.0014683602132584534,3.84826894105e-05
-0.023323055564144463,0.0014570569665417982,3.921404370545007e-05
-0.02474950472301626,0.001445038826470008,3.993956765370302e-05
-0.02616740126202829,0.0014323095999737468,4.065890476031396e-05
-0.027574940768350837,0.0014188740144661519,4.1371700663923935e-05
-0.028970399623984792,0.001404737679368068,4.207760358738249e-05
-0.030352140021224775,0.0013899070444567656,4.27762647683387e-05
-0.0317186121498572,0.001374389356413995,4.3467338868556394e-05
-0.0330683535187475,0.0013581926149968439,4.4150484361409104e-05
-0.03439998548598404,0.001341325530245661,4.482536389771973e-05
-0.03571220718221659,0.0013237974820786108,4.5491644650800794e-05
-0.03700378711347898,0.001305618483504687,4.614899864219662e-05
-0.038273552805661255,0.001286799148524902,4.679710305020402e-05
-0.03952037890550909,0.0012673506655971093,4.743564050373452e-05
-0.04074317419912588,0.0012472847773209506,4.806429936446403e-05
-0.04194086804072806,0.0012266137667609873,4.868277400048451e-05
-0.04311239667482713,0.0012053504505820985,4.929076505482029e-05
-0.044256689886715155,0.001183508178941713,4.988797971220124e-05
-0.04537265836865579,0.0011611008418778703,5.047413196740614e-05
-0.04645918217039695,0.001138142881743107,5.104894289831138e-05
-0.047515100605528195,0.0011146493110491258,5.161214094650944e-05
-0.04853920398912336,0.001090635734900463,5.216346220799684e-05
-0.04953022757378569,0.0010661183770097357,5.270265073597439e-05
-0.05048684801957622,0.0010411141081113952,5.322945885725467e-05
-0.0514076826626467,0.0010156404754408394,5.374364750314273e-05
-0.05229129173039649,0.0009897157318425787,5.424498655496358e-05
-0.053136183509241486,0.0009633588630326692,5.473325520368239e-05
