frame_number,force
0,653.5538429704476
1,653.5200876859967
2,653.4820381534602
3,653.4397472131218
4,653.393279970771
5,653.3427140322976
6,653.28813970122
7,653.2296601254225
8,653.1673913740227
9,653.1014624174412
10,653.0320149814243
11,652.959203252561
12,652.8831934248741
13,652.8041630887537
14,652.7223004721399
15,652.6378035481112
16,652.5508790226238
17,652.4617412138447
18,652.3706108349212
19,652.2777136969875
20,652.1832793558408
21,652.0875397292881
22,651.9907277105668
23,651.8930757985116
24,651.7948147608519
25,651.6961723451234
26,651.597372051947
27,651.4986319872311
28,651.4001638127226
29,651.3021718166996
30,651.2048521253699
31,651.1083920681879
32,651.0129696983294
33,650.9187534587379
34,650.8259019792637
35,650.7345639911317
36,650.6448783479117
37,650.556974143918
38,650.47097091924
39,650.3869789363638
40,650.3050995108214
41,650.2254253798575
42,650.1480410966218
43,650.0730234401617
44,650.0004418332207
45,649.9303587611439
46,649.862830185228
47,649.7979059413497
48,649.7356301113241
49,649.6760413547152
50,649.6191731939787
51,649.5650542504071
52,649.513708425997
53,649.4651550175664
54,649.4194087420409
55,649.3764796538835
56,649.336372946967
57,649.2990886449962
58,649.2646211896964
59,649.2329589363783
60,649.2040835682208
61,649.1779694458316
62,649.1545829159787
63,649.133881611394
64,649.1158137809724
65,649.1003176951866
66,649.0873211748757
67,649.0767412935343
68,649.0684843038548
69,649.0624458364666
70,649.0585114100109
71,649.0565572771646
72,649.0564516142684
73,649.0580560456932
74,649.0612274788613
75,649.0658202124199
76,649.0716882697233
77,649.0786879034711
78,649.0866802142502
79,649.0955338231126
80,649.1051275339508
81,649.1153529161588
82,649.1261167350115
83,649.1373431576754
84,649.1489756648834
85,649.1609786013487
86,649.173338305538
87,649.1860637747393
88,649.1991868420279
89,649.2127618618946
90,649.2268649174297
91,649.2415925744375
92,649.2570602185974
93,649.2734000214621
94,649.2907585886472
95,649.3092943485902
96,649.3291747440805
97,649.350573291479
98,649.3736665716386
99,649.3986312110096
100,649.425640903965
101,649.454863521311
102,649.4864583468884
103,649.5205734848653
104,649.5573434834304
105,649.5968872210964
106,649.6393060944062
107,649.6846825309619
108,649.7330788361594
109,649.7845363720951
110,649.8390750628054
111,649.8966932173422
112,649.9573676591134
113,650.02105414653
114,650.0876880656092
115,650.1571853689857
116,650.2294437305831
117,650.3043438866554
118,650.3817511435265
119,650.4615170428812
120,650.5434811769704
121,650.6274731359316
122,650.7133145530448
123,650.8008211980193
124,650.8898050576671
125,650.9800763400526
126,651.0714453436259
127,651.1637241460521
128,651.2567280848444
129,651.3502770182048
130,651.4441963645418
131,651.538317920396
132,651.6324804517172
133,651.7265300496862
134,651.8203202457795
135,651.913711893377
136,652.0065728423904
137,652.0987774529859
138,652.1902060077524
139,652.2807440866385
140,652.3702819684696
141,652.4587141185422
142,652.5459388124375
143,652.6318579323776
144,652.7163769580122
145,652.799405160539
146,652.8808559951285
147,652.9606476696391
148,653.0387038505687
149,653.1149544561748
150,653.1893364842849
151,653.261794824851
152,653.3322830093241
153,653.4007638499771
154,653.467209926929
155,653.5316038911213
156,653.5939385637461
157,653.6542168208084
158,653.7124512550868
159,653.7686636111754
160,653.8228839956784
161,653.8751498725446
162,653.9255048606603
163,653.9739973576256
164,654.0206790220666
165,654.0656031565762
166,654.1088230414082
167,654.1503902719364
168,654.190353149164
169,654.2287551642158
170,654.2656336096044
171,654.3010183459644
172,654.3349307523661
173,654.3673828871044
174,654.398376880199
175,654.4279045681105
176,654.4559473680513
177,654.4824763778337
178,654.5074526805512
179,654.5308278319129
180,654.5525445106515
181,654.5725373182083
182,654.5907337209343
183,654.6070551319157
184,654.621418126995
185,654.6337357825096
186,654.6439191146336
187,654.651878593213
188,654.6575256971169
189,654.6607744760655
190,654.6615430869213
191,654.6597552770969
192,654.655341789856
193,654.6482416659127
194,654.638403417229
195,654.6257860566473
196,654.6103599798158
197,654.5921077064618
198,654.5710244906477
199,654.5471188057488
200,654.5204127039344
201,654.4909420443023
202,654.4587565805849
203,654.4239199010511
204,654.3865092189229
205,654.346615016531
206,654.3043405469518
207,654.2598011929937
208,654.213123676994
209,654.1644451090511
210,654.1139118598227
211,654.0616782477135
212,654.0079050364246
213,653.9527577468263
214,653.8964048005545
215,653.8390155318522
216,653.7807581206629
217,653.7217975045493
218,653.6622933204255
219,653.6023979188856
220,653.5422544907225
221,653.4819953449432
222,653.4217403749824
223,653.3615957430624
224,653.3016528031459
225,653.241987272886
226,653.1826586557936
227,653.1237099066176
228,653.0651673257491
229,653.0070406627405
230,652.9493234047188
231,652.8919932227795
232,652.8350125495836
233,652.7783292646667
234,652.7218774682499
235,652.6655783277274
236,652.6093409851916
237,652.5530635219415
238,652.4966339853206
239,652.439931489729
240,652.3828274048955
241,652.3251866427098
242,652.2668690534504
243,652.2077309450237
244,652.1476267416735
245,652.0864107961698
246,652.0239393600187
247,651.960072703064
248,651.8946773609498
249,651.8276284766213
250,651.7588121883008
251,651.6881280013968
252,651.6154910698638
253,651.5408343083067
254,651.464110260222
255,651.3852926567245
256,651.3043776095215
257,651.2213843902629
258,651.1363557589627
259,651.0493578211792
260,650.96047941607
261,650.869831059589
262,650.7775434836758
263,650.6837658212169
264,650.5886634891141
265,650.4924158218251
266,650.3952135085746
267,650.2972558886919
268,650.1987481588086
269,650.0998985432036
270,650.0009154770247
271,649.9020048516936
272,649.8033673701112
273,649.7051960549081
274,649.6076739469654
275,649.5109720269985
276,649.4152473944829
277,649.3206417464052
278,649.2272802069302
279,649.1352705594205
280,649.0447029215336
281,648.9556498867427
282,648.8681671371213
283,648.7822945144229
284,648.6980575188119
285,648.6154691883596
286,648.5345323003127
287,648.455241826777
288,648.3775875701193
289,648.3015568983236
290,648.2271375021605
291,648.1543201038709
292,648.0831010547375
293,648.0134847618536
294,647.9454858837458
295,647.879131233648
296,647.8144613302964
297,647.7515315409486
298,647.690412772486
299,647.6311916851074
300,647.5739704257967
301,647.5188658984576
302,647.4660086003025
303,647.4155410628777
304,647.3676159458531
305,647.3223938405584
306,647.2800408422859
307,647.2407259450566
308,647.20461830536
309,647.1718844172663
310,647.1426852421683
311,647.1171733417924
312,647.0954900700428
313,647.0777628840274
314,647.0641028360935
315,647.0546023074174
316,647.0493330388654
317,647.0483445054748
318,647.0516626685751
319,647.0592891273982
320,647.0712006811888
321,647.0873493024002
322,647.1076625111183
323,647.1320441306791
324,647.160375394303
325,647.1925163632803
326,647.2283076116597
327,647.2675721316419
328,647.3101174154116
329,647.3557376701547
330,647.404216123205
331,647.4553273743562
332,647.5088397523122
333,647.5645176319051
334,647.6221236700625
335,647.6814209247615
336,647.7421748322888
337,647.8041550285535
338,647.8671370043826
339,647.9309035832885
340,647.9952462084427
341,648.0599660264652
342,648.124874757905
343,648.1897953472159
344,648.2545623915713
345,648.3190223617379
346,648.3830336477063
347,648.4464664784108
348,648.5092027703787
349,648.5711359535646
350,648.632170809417
351,648.692223342536
352,648.7512206966069
353,648.8091011185077
354,648.8658139700331
355,648.9213197816454
356,648.9755903366068
357,649.0286087696696
358,649.0803696640603
359,649.1308791317389
360,649.1801548611978
361,649.228226113159
362,649.2751336404161
363,649.3209295079673
364,649.3656767935888
365,649.4094491530343
366,649.4523302361941
367,649.4944129444934
368,649.5357985294504
369,649.5765955452003
370,649.6169186777091
371,649.6568874767199
372,649.6966250125213
373,649.7362564695521
374,649.7759076780113
375,649.8157035806464
376,649.8557666371522
377,649.8962151787662
378,649.937161735641
379,649.9787113668435
380,650.020960026816
381,650.0639930037202
382,650.1078834654421
383,650.1526911486794
384,650.1984612252148
385,650.2452233763805
386,650.2929911020547
387,650.3417612862992
388,650.3915140379162
389,650.4422128168904
390,650.4938048451095
391,650.5462217869393
392,650.5993806779109
393,650.6531850764137
394,650.7075264089317
395,650.7622854737293
396,650.817334063726
397,650.8725366671695
398,650.9277522049653
399,650.9828357679205
400,651.0376403255132
401,651.0920183866374
402,651.1458235988903
403,651.1989122755607
404,651.2511448388759
405,651.3023871651208
406,651.3525118152322
407,651.4013991379609
408,651.448938242084
409,651.4950278436387
410,651.5395769971798
411,651.5825057153705
412,651.6237454729585
413,651.6632395847256
414,651.7009434454212
415,651.7368246226919
416,651.7708627987805
417,651.8030495611031
418,651.8333880468903
419,651.861892454987
420,651.8885874474031
421,651.913507470189
422,651.9366960251042
423,651.9582049220401
424,651.9780935401942
425,651.996428122815
426,652.013281122058
427,652.0287305956949
428,652.0428596401894
429,652.0557558321044
430,652.0675106474525
431,652.0782188366497
432,652.0879777459385
433,652.0968865885459
434,652.1050456790465
435,652.1125556543413
436,652.1195167141632
437,652.1260279192226
438,652.1321865820364
439,652.1380877733275
440,652.1438239485453
441,652.1494846797845
442,652.1551564633348
443,652.1609225647655
444,652.1668628608522
445,652.1730536393969
446,652.1795673242349
447,652.1864721023119
448,652.1938314388834
449,652.2017034742628
450,652.2101403043088
451,652.2191871596642
452,652.228881513821
453,652.2392521630093
454,652.2503183281756
455,652.2620888300842
456,652.2745613854958
457,652.2877220696938
458,652.3015449896866
459,652.3159922104533
460,652.3310139703916
461,652.3465492107691
462,652.3625264285608
463,652.3788648446729
464,652.395475862717
465,652.4122647799871
466,652.4291327036808
467,652.4459786201082
468,652.462701559339
469,652.4792027921809
470,652.4953879941667
471,652.511169315166
472,652.5264673027256
473,652.5412126401882
474,652.5553476742979
475,652.5688277175045
476,652.5816221154604
477,652.5937150725839
478,652.6051062310831
479,652.6158110011619
480,652.6258606408488
481,652.6353020841344
482,652.6441975182291
483,652.6526237153025
484,652.6606711300216
485,652.6684427807538
486,652.6760529391959
487,652.6836256603118
488,652.691293190815
489,652.6991942973154
490,652.7074725522763
491,652.7162746084548
492,652.7257484849442
493,652.7360418824655
494,652.7473005403796
495,652.7596666417356
496,652.7732772678103
497,652.7882629036112
498,652.8047460029017
499,652.8228396342806
500,652.8426462431123
501,652.8642565710315
502,652.8877487735153
503,652.9131877692357
504,652.9406248451191
505,652.9700975290109
506,653.0016297280312
507,653.0352321164473
508,653.0709027446986
509,653.1086278338055
510,653.1483827182926
511,653.190132905149
512,653.2338352222908
513,653.2794390323885
514,653.3268874846415
515,653.376118769824
516,653.4270673358776
517,653.4796650163314
518,653.5338420251309
519,653.5895277793567
520,653.6466515233615
521,653.7051427417709
522,653.7649313639745
523,653.8259477780092
524,653.8881226828875
525,653.9513868114964
526,654.0156705523672
527,654.0809034920533
528,654.147013893345
529,654.2139281202733
530,654.281570021554
531,654.3498602902978
532,654.4187158267723
533,654.488049139366
534,654.5577678228424
535,654.6277741487064
536,654.6979647906686
537,654.768230694915
538,654.838457095659
539,654.908523672399
540,654.978304845549
541,655.04767020971
542,655.1164851053579
543,655.1846113284952
544,655.2519079763687
545,655.3182324283174
546,655.3834414625221
547,655.4473925070605
548,655.5099450135559
549,655.5709619259281
550,655.6303112036976
551,655.6878673566843
552,655.7435129549215
553,655.7971400865058
554,655.8486517408676
555,655.8979630946394
556,655.9450026738218
557,655.9897133621674
558,656.0320532240297
559,656.0719961110166
560,656.1095320257926
561,656.1446672241725
562,656.1774240482865
563,656.2078404969575
564,656.2359695512878
565,656.2618782809319
566,656.285646758131
567,656.3073668032488
568,656.3271405801169
569,656.3450790545102
570,656.3613003263436
571,656.3759278480289
572,656.3890885490777
573,656.4009108973956
574,656.4115229358582
575,656.4210503371424
576,656.4296145218514
577,656.437330885702
578,656.4443071814261
579,656.4506420995745
580,656.4564240868543
581,656.4617304290963
582,656.4666266117111
583,656.4711659589542
584,656.4753895456454
585,656.4793263686083
586,656.4829937592307
587,656.486398015831
588,656.4895352362859
589,656.4923923341883
590,656.4949482212908
591,656.4971751353092
592,656.4990400883632
593,656.5005064084634
594,656.5015353441431
595,656.5020877009074
596,656.5021254778189
597,656.5016134740096
598,656.5005208409092
599,656.4988225669558
600,656.4965008912199
601,656.4935466431109
602,656.4899604970446
603,656.4857541207523
604,656.4809511905845
605,656.4755882490077
606,656.4697153870532
607,656.4633967434002
608,656.4567108167024
609,656.4497505866891
610,656.4426234357115
611,656.4354508607005
612,656.4283679685358
613,656.4215227555272
614,656.4150751820574
615,656.409196061876
616,656.404065786651
617,656.3998728991467
618,656.3968125185642
619,656.3950846167975
620,656.3948921472235
621,656.3964390345935
622,656.3999280410925
623,656.405558528728
624,656.4135241429339
625,656.4240104466029
626,656.4371925372196
627,656.4532326824045
628,656.472278011144
629,656.4944583004506
630,656.519883902188
631,656.548643861462
632,656.5808042820881
633,656.6164069930064
634,656.6554685611853
635,656.6979796808054
636,656.7439049466178
637,656.7931829976037
638,656.8457270025414
639,656.9014254533754
640,656.9601432320296
641,657.0217229183944
642,657.085986309736
643,657.1527361226774
644,657.2217578474775
645,657.2928217227267
646,657.365684800077
647,657.4400930748885
648,657.5157836677909
649,657.5924870486477
650,657.6699292936294
651,657.7478343597647
652,657.8259263561104
653,657.9039317909074
654,657.9815817785236
655,658.0586141947804
656,658.1347757713713
657,658.2098241173828
658,658.2835296478804
659,658.3556773889684
660,658.4260686213287
661,658.4945223246236
662,658.5608763940982
663,658.6249886149868
664,658.6867373937839
665,658.7460222528139
666,658.8027640955657
667,658.8569052487584
668,658.908409286823
669,658.9572606467667
670,659.0034640450694
671,659.0470437106503
672,659.0880424462534
673,659.126520523722
674,659.1625544093426
675,659.1962353109504
676,659.2276675441869
677,659.2569667283398
678,659.2842578358559
679,659.3096731315906
680,659.3333500482665
681,659.3554290505962
682,659.3760515394354
683,659.3953578415068
684,659.4134853231847
685,659.430566659533
686,659.4467282827682
687,659.4620890285111
688,659.4767589929111
689,659.4908386075969
690,659.5044179337303
691,659.5175761748366
692,659.5303814115106
693,659.5428905648174
694,659.5551495938961
695,659.5671939274265
696,659.5790491218754
697,659.590731732352
698,659.6022503724602
699,659.6136069277883
700,659.6247978756122
701,659.6358156521173
702,659.646649999484
703,659.6572892220621
704,659.6677212857164
705,659.6779347057301
706,659.687919184389
707,659.6976659783437
708,659.7071679944822
709,659.7164196263076
710,659.7254163509648
711,659.7341541161447
712,659.7426285588658
713,659.7508341095324
714,659.7587630384945
715,659.7664044982357
716,659.7737436069978
717,659.7807606146787
718,659.7874301925135
719,659.7937208925742
720,659.7995948248431
721,659.805007592879
722,659.8099085143992
723,659.8142411350474
724,659.8179440254596
725,659.8209518332287
726,659.8231965418106
727,659.8246088707662
728,659.8251197416536
729,659.8246617346219
730,659.82317047016
731,659.8205858637174
732,659.8168532144546
733,659.8119241009108
734,659.8057570640879
735,659.7983180628363
736,659.7895806912946
737,659.7795261573191
738,659.7681430353078
739,659.7554268246223
740,659.7413793611572
741,659.7260081378301
742,659.7093255864536
743,659.6913483624868
744,659.6720966620817
745,659.6515935907003
746,659.6298645956082
747,659.6069369723901
748,659.5828394561482
749,659.5576019048906
750,659.531255072959
751,659.5038304595205
752,659.4753602052349
753,659.4458770018421
754,659.4154139780102
755,659.3840045333849
756,659.3516821101472
757,659.3184799114065
758,659.2844305910374
759,659.2495659454015
760,659.2139166331635
761,659.1775119383533
762,659.1403795798896
763,659.1025455640016
764,659.0640340762376
765,659.0248674133451
766,658.9850659574502
767,658.944648195007
768,658.9036307835657
769,658.8620286715266
770,658.8198552772783
771,658.777122731539
772,658.733842180038
773,658.6900241358076
774,658.6456788663652
775,658.6008168055556
776,658.5554489920503
777,658.5095875493099
778,658.4632462278056
779,658.4164410275997
780,658.369190909903
781,658.3215185919315
782,658.2734514030445
783,658.2250221662571
784,658.1762700611803
785,658.1272414221023
786,658.0779904267802
787,658.028579637602
788,657.9790803677218
789,657.9295728585156
790,657.8801462670931
791,657.8308984718216
792,657.7819357110368
793,657.7333720749907
794,657.685328870543
795,657.6379338710194
796,657.5913204535412
797,657.545626617788
798,657.5009938763529
799,657.457566009452
800,657.4154876873289
801,657.3749029812269
802,657.3359538045543
803,657.2987783448058
804,657.2635095571935
805,657.2302737878019
806,657.199189580881
807,657.1703667111598
808,657.143905472234
809,657.1198962420704
810,657.0984193330538
811,657.0795451202583
812,657.0633344326131
813,657.0498391865341
814,657.0391032351743
815,657.0311633953662
816,657.0260506005986
817,657.0237911174363
818,657.0244077585799
819,657.0279210284828
820,657.0343501460959
821,657.0437139030724
822,657.0560313318847
823,657.0713221726207
824,657.08960713725
825,657.1109079752207
826,657.135247345183
827,657.1626484983278
828,657.1931347836695
829,657.2267289929737
830,657.2634525664959
831,657.3033246778821
832,657.3463612119048
833,657.3925736464979
834,657.4419678506775
835,657.4945428110649
836,657.5502893028452
837,657.6091885277978
838,657.6712107519447
839,657.7363139855742
840,657.8044427560982
841,657.8755270280337
842,657.9494813239344
843,658.026204095305
844,658.1055773842169
845,658.18746680609
846,658.2717218728029
847,658.3581766622755
848,658.4466508252481
849,658.5369509032562
850,658.6288719167195
851,658.722199171929
852,658.8167102326393
853,658.9121770051532
854,659.008367891181
855,659.1050499659592
856,659.2019911389945
857,659.2989622537137
858,659.3957390835054
859,659.4921041872507
860,659.5878485981705
861,659.6827733337753
862,659.7766907267819
863,659.8694255828075
864,659.9608161715888
865,660.0507150581792
866,660.1389897805387
867,660.2255233800088
868,660.3102147920455
869,660.3929791062693
870,660.4737477051431
871,660.5524682883463
872,660.62910478821
873,660.7036371845026
874,660.7760612347574
875,660.8463881459708
876,660.914644221204
877,660.9808705176652
878,661.0451225490955
879,661.1074700540223
880,661.1679968348552
881,661.2268006560695
882,661.2839931780388
883,661.3396998976606
884,661.3940600642356
885,661.44722653451
886,661.4993655240061
887,661.5506562084879
888,661.6012901359388
889,661.6514704245863
890,661.7014107370101
891,661.7513340257384
892,661.8014710429409
893,661.8520586059727
894,661.9033376223063
895,661.9555509030756
896,662.0089408227186
897,662.0637468988613
898,662.1202033684441
899,662.1785368301661
900,662.238964014261
901,662.3016897266216
902,662.3669049949268
903,662.4347854253515
904,662.5054897667528
905,662.5791586770412
906,662.655913689858
907,662.7358563827727
908,662.8190677482806
909,662.9056077683557
910,662.9955151952386
911,663.0888075443426
912,663.1854813064465
913,663.2855123857607
914,663.388856770015
915,663.4954514375675
916,663.6052155021142
917,663.7180515893924
