acceleration,velocity,displacement
0.0372972122096904,0.0,0.0
0.03678861093368889,1.8521455785844824e-05,4.6303639464612065e-09
0.03621530689806413,3.677243524378308e-05,1.845383670386818e-08
0.03557809626366099,5.472078603421436e-05,4.1327142023367544e-08
0.03487795999947769,7.233480009999903e-05,7.309103855692089e-08
0.03411606741737854,8.958330695421309e-05,1.1357056532047392e-07
0.033293779148309804,0.00010643576859563518,1.6257533420793598e-07
0.032412649353242735,0.0001228623757210233,2.198998702871006e-07
0.0314744268813502,0.00013883414477967155,2.853240004122743e-07
0.030481054969713737,0.00015432301524243754,3.5861329041780157e-07
0.029434669043840105,0.000169301946245826,4.395195307898675e-07
0.028337592280596676,0.0001837450115769352,5.277812702455578e-07
0.027192328776552643,0.00019762749184122253,6.231243961000973e-07
0.0260015543408599,0.00021092596262057566,7.252627597155468e-07
0.024768105061911263,0.00022361837747126846,8.338988447385079e-07
0.023494963861109143,0.00023568414470202356,9.487244752818309e-07
0.02218524524081344,0.0002471041969775042,1.0694215607017127e-06
0.02084217839890845,0.0002578610528874347,1.1956628731679475e-06
0.01946908888842204,0.0002679388697092673,1.327112853817123e-06
0.018069379075318744,0.0002773234867002025,1.4634284429194906e-06
0.01664650774755811,0.0002860024584059217,1.6042599291960217e-06
0.015203969282226152,0.0002939650776633678,1.749251813213344e-06
0.013745272753521897,0.0003012023881723048,1.8980436796722621e-06
0.012273921293055337,0.0003077071866839491,2.0502710733863255e-06
0.01079339194933971,0.00031347401499454787,2.2055663738059497e-06
0.009307116264701763,0.00031849914204805824,2.3635596630666014e-06
0.007818461791889771,0.0003227805365622061,2.5238795827191673e-06
0.006330714799857515,0.00032631783071014294,2.6861541745372546e-06
0.004847064461391025,0.0003291122755254551,2.850011701096154e-06
0.0033705888509498166,0.0003311666888535403,3.015081442190903e-06
0.0019042430625635445,0.00033248539683191866,3.1809944636122676e-06
0.00045084964686367376,0.00033307417000927547,3.3473843553225663e-06
-0.0009869086140615047,0.000332940155267476,3.5138879366417543e-06
-0.0024064937384591038,0.00033209180467934585,3.68014592662846e-06
-0.0038055156014787594,0.00033053880234436137,3.845803578384387e-06
-0.005181733223905478,0.00032829199013801534,4.0105112765049805e-06
-0.006533054456203449,0.0003253632932179881,4.173925097343982e-06
-0.00785753419454402,0.0003217656460553012,4.335707332162304e-06
-0.009153371291550272,0.00031751291968377764,4.495526973597073e-06
-0.01041890438835809,0.00031261985076380054,4.653060166208968e-06
-0.011652606932614376,0.0003071019729335574,4.807990622133307e-06
-0.012853081623666673,0.00030097555079448715,4.960010003065319e-06
-0.014019054473144799,0.0002942575167702843,5.108818269956511e-06
-0.015149368627474326,0.0002869654109951295,5.254124001897865e-06
-0.016242978072778604,0.00027911732432006625,5.3956446857266635e-06
-0.01729894132310345,0.0002707318444710957,5.533106977924454e-06
-0.01831641519234022,0.0002618280053422348,5.6662469403777865e-06
-0.019294648787971394,0.0002524252393471569,5.794810251550134e-06
-0.020232977915700858,0.00024254333267123885,5.918552394554733e-06
-0.021130820079962826,0.00023220238317232293,6.037238823515624e-06
-0.021987670187581587,0.00022142276060543682,6.150645109460064e-06
-0.022803096992720852,0.00021022506881036122,6.2585570668140135e-06
-0.023576740356630852,0.0001986301094730233,6.36077086138486e-06
-0.024308309528206746,0.0001866588470018139,6.457093100503569e-06
-0.024997582762993256,0.00017433237392901392,6.547340905736276e-06
-0.025644408567296755,0.0001616718760964414,6.63134196824264e-06
-0.02624870868343525,0.0001486985967837584,6.70893458646269e-06
-0.02681048275424056,0.00013543379892433946,6.779967685389715e-06
-0.027329814527952145,0.00012189872460379128,6.844300816271747e-06
-0.02780687945869269,0.00010811455110713007,6.901804135199477e-06
-0.02824195353165148,9.410234285954402e-05,6.9523583586911455e-06
-0.028635423063454516,7.988299871076752e-05,6.995854694083724e-06
-0.0289877951177252,6.54771941654726e-05,7.032194742302784e-06
-0.029299708055149618,5.0905318372253895e-05,7.061290370437216e-06
-0.02957194162558168,3.618740595207107e-05,7.0830635515182965e-06
-0.029805425926836958,2.1343064063966407e-05,7.097446169022306e-06
-0.030001248504582988,6.39139545611142e-06,7.104379783902326e-06
-0.030160658838038142,-8.649081379543862e-06,7.103815362421468e-06
-0.030285069446783552,-2.3760513450749287e-05,7.095712963713894e-06
-0.030376052896299174,-3.892579403651997e-05,7.080041386842077e-06
-0.03043533411250849,-5.412864078872189e-05,7.056777778135766e-06
-0.030464777634470343,-6.93536687254666e-05,7.025907200757219e-06
-0.03046636968989838,-8.458645555655878e-05,6.987422169686713e-06
-0.030442195227050033,-9.981359678579589e-05,6.941322156601124e-06
-0.030394410265901867,-0.00011502274815903385,6.887613070364917e-06
-0.030325210133648268,-0.0001302026532589214,6.826306720010429e-06
-0.03023679430541011,-0.000145343154368686,6.757420268103527e-06
-0.030131328666071384,-0.00016043518511155638,6.680975683233466e-06
-0.030010906055904864,-0.00017547074379205044,6.5969992010075645e-06
-0.029877506002020177,-0.0001904428468065317,6.505520803357919e-06
-0.029732954603527283,-0.00020534546195791857,6.406573726166807e-06
-0.02957888561779117,-0.00022017342201324818,6.300194005174015e-06
-0.02941670384115505,-0.00023492231937798474,6.1864200698262066e-06
-0.02924755187029424,-0.00024958838330584705,6.065292394155249e-06
-0.029072281298431892,-0.0002641683415980286,5.93685321292928e-06
-0.028891429354764353,-0.00027865926926132765,5.801146310214441e-06
-0.028705201881823808,-0.0002930584270704747,5.65821688613149e-06
-0.02851346331469886,-0.00030736309336960535,5.50811150602147e-06
-0.028315734014632197,-0.0003215703927019381,5.3508781345035835e-06
-0.0281111950057547,-0.00033567712495703484,5.18656625508884e-06
-0.027898699920693146,-0.0003496795986886468,5.015227074177419e-06
-0.02767679377270636,-0.0003635734721119967,4.836913806477258e-06
-0.02744373801019554,-0.00037735360505772216,4.651682037184828e-06
-0.02719754116363458,-0.0003910139248511797,4.459590154707603e-06
-0.02693599428101881,-0.000404547308712343,4.260699846316722e-06
-0.026656710272247083,-0.0004179454848506595,4.055076647925971e-06
-0.026357166225195783,-0.0004311989539750202,3.842790538219552e-06
-0.026034747715368824,-0.0004442969324601614,3.6239165666107564e-06
-0.025686794144622296,-0.00045722731792515917,3.3985355040144264e-06
-0.025310644227785575,-0.00046997667751826115,3.1667345051535715e-06
-0.024903680858197667,-0.000482530258789757,2.928607771076567e-06
-0.024463374674674902,-0.0004948720226729751,2.684257200710884e-06
-0.02398732569848921,-0.0005069846977662661,2.4337930206010736e-06
-0.02347330239848551,-0.0005188498547905098,2.1773343824618798e-06
-0.022919277495629338,-0.0005304479997640386,1.9150099188232424e-06
-0.022323459810725227,-0.0005417586840906272,1.646958247859576e-06
-0.0216843215708063,-0.0005527606294360101,1.3733284194779166e-06
-0.021000620813780853,-0.0005634318650321569,1.0942802958608748e-06
-0.02027141876504664,-0.0005737498749268637,8.099848608711196e-07
-0.019496092209144684,-0.0005836917526704116,5.206244539718007e-07
-0.01867434094447783,-0.0005932343609588172,2.263929255644935e-07
-0.017806190449081008,-0.0006023544938072069,-7.250428812701252e-08
-0.016891989931813275,-0.0006110290389024305,-3.758501713044219e-07
-0.015932405994333213,-0.000619235137883967,-6.834162155010213e-07
-0.014928412195436728,-0.0006269503424314095,-9.949625855798655e-07
-0.013881274902685616,-0.0006341527642059401,-1.310238362239203e-06
-0.01279253589461431,-0.0006408212169052651,-1.6289818575170043e-06
-0.011663992154847253,-0.0006469353489176305,-1.9509209989727284e-06
-0.010497673154522918,-0.0006524757652449731,-2.2757737775133794e-06
-0.00929581576083848,-0.0006574241374738135,-2.603248753193076e-06
-0.008060836886794886,-0.0006617633006357218,-2.93304561272046e-06
-0.00679530415032249,-0.0006654773358950012,-3.2648557718531405e-06
-0.005501905057771644,-0.0006685516381970247,-3.598363015376147e-06
-0.004183415463722779,-0.0006709729683273983,-3.933244167007253e-06
-0.002842668220835105,-0.0006727294892485378,-4.269169781401237e-06
-0.0014825229827056196,-0.000673810787049423,-4.605804850475727e-06
-0.00010583804106387542,-0.0006742078773053653,-4.942809516564424e-06
0.0012845551203437486,-0.0006739131980355454,-5.279839785399652e-06
0.002685874134905127,-0.0006729205907217332,-5.616548232588972e-06
0.004095404750619442,-0.000671225271000352,-5.952584698019493e-06
0.005510516492833568,-0.0006688237906894888,-6.287596963441954e-06
0.006928674988176368,-0.0006657139928192364,-6.621231409319135e-06
0.008347450873510664,-0.0006618949613538146,-6.9531336478623974e-06
0.009764525157214012,-0.0006573669673461335,-7.282949130037384e-06
0.011177690952896044,-0.0006521314133186059,-7.610323725203569e-06
0.012584851695537799,-0.0006461907776564975,-7.934904272947345e-06
0.01398401623902243,-0.0006395485606728574,-8.256339107529683e-06
0.015373291529247574,-0.0006322092337307899,-8.574278556130595e-06
0.01675087374707417,-0.0006241781924117095,-8.88837541266622e-06
0.018115038890318638,-0.0006154617142523612,-9.198285389332237e-06
0.019464133756221857,-0.0006060669210907261,-9.503667548168009e-06
0.020796568220873148,-0.0005960017455964524,-9.804184714839803e-06
0.022110809571099947,-0.0005852749011484591,-1.009950387652603e-05
0.023405379436094994,-0.0005738958538966604,-1.038929656528731e-05
0.02467885364860707,-0.0005618747956254848,-1.0673239227667846e-05
0.02592986516980074,-0.0005492226159208829,-1.0951013580554439e-05
0.027157110002055392,-0.0005359508721279189,-1.122230695256664e-05
0.028359355757959125,-0.0005220717556879153,-1.1486812609520598e-05
0.029535452297106052,-0.000507598053674149,-1.1744230061861114e-05
0.030684343676279317,-0.0004925431046808026,-1.1994265351449852e-05
0.03180508062232508,-0.00047692074860615144,-1.2236631314771591e-05
0.032896832775161686,-0.00046074527025677977,-1.2471047819487324e-05
0.03395889997883832,-0.00044403133706827976,-1.269724197131859e-05
0.034990721914407275,-0.00042679393159496834,-1.29149482884844e-05
0.03599188543806743,-0.00040904827975684965,-1.3123908841322355e-05
0.03696212914621059,-0.0003908097761107801,-1.3323873355289261e-05
0.03790134487352023,-0.0003720939076058474,-1.3514599276218418e-05
0.03880957595365448,-0.0003529161773990537,-1.3695851797469644e-05
0.0396870121258869,-0.00033329203037916837,-1.38674038494142e-05
0.040533981022722314,-0.0003132367820920161,-1.4029036052531995e-05
0.04135093626964474,-0.00029276555276892434,-1.418053663624723e-05
0.0421384423475215,-0.0002718932081146328,-1.4321701326468119e-05
0.0428971564755557,-0.00025063430840886346,-1.4452333205598993e-05
0.04362780787530758,-0.00022900306732114763,-1.4572242549531495e-05
0.04433117490321955,-0.00020701332162651584,-1.468124664676841e-05
0.045008060685892144,-0.00018467851272923792,-1.4779169605357348e-05
0.04565926801333033,-0.0001620116805544323,-1.4865842153678266e-05
0.046285574288938244,-0.00013902546997886516,-1.494110144131159e-05
0.04688770727881795,-0.00011573214958692611,-1.5004790846203038e-05
0.04746632227715417,-9.214364219793307e-05,-1.5056759794149252e-05
0.04802198118172832,-6.827156633321245e-05,-1.5096863596282038e-05
0.04855513391192886,-4.412728755979815e-05,-1.512496330975529e-05
0.04906610259279633,-1.9721978433616852e-05,-1.5140925626253645e-05
0.049555068910379335,4.9333144421770675e-06,-1.5144622792251504e-05
0.050022064958337144,2.9827597909356185e-05,-1.513593256416362e-05
0.050466967734110225,5.494985608246803e-05,-1.5114738200665665e-05
0.05088949724510505,8.028897232727184e-05,-1.508092849356323e-05
0.05128921801315302,0.00010583365114183636,-1.5034397837695954e-05
0.051665543665227125,0.0001315723415614314,-1.4975046339520137e-05
0.052017744276263524,0.00015749316354680406,-1.4902779963243077e-05
0.05234495616905717,0.00018358383865813423,-1.4817510712691842e-05
0.05264619396336625,0.0002098316261912401,-1.4719156846479499e-05
0.05292036477234056,0.00023622326587516678,-1.4607643123462897e-05
0.05316628450272709,0.0002627449281939337,-1.4482901074945622e-05
0.05338269617702846,0.0002893821733638726,-1.434486929955617e-05
0.05356829008962587,0.00031611991993053617,-1.4193493776232568e-05
0.053721725493785046,0.0003429424238263889,-1.4028728190293338e-05
0.053841653411077516,0.00036983326855260455,-1.385053426719859e-05
0.05392674006633504,0.0003967753669219577,-1.3658882108329949e-05
0.053975690420201554,0.00042375097454359185,-1.345375052296356e-05
0.053987271316891926,0.0004507417149778652,-1.3235127350583197e-05
0.05396033383517004,0.00047772861626588074,-1.300300976777226e-05
0.05389383446243958,0.0005046921583402831,-1.2757404574120719e-05
0.05378685470634785,0.0005316123306324799,-1.2498328451877529e-05
0.053638618780758,0.0005584686990042564,-1.2225808194468345e-05
0.05344850911952854,0.000585240480979328,-1.193988089947245e-05
0.053216079664769204,0.0006119066281754024,-1.1640594122183768e-05
0.05294106703581897,0.0006384459148505494,-1.132800598642728e-05
0.052623399724175804,0.0006648370315405481,-1.1002185249829505e-05
0.052263205400796715,0.0006910586828217912,-1.066321132123892e-05
0.051860816332513326,0.0007170896882551188,-1.0311174228469693e-05
0.05141677281940598,0.0007429090855430986,-9.946174535020138e-06
0.050931824516298546,0.0007684962348770248,-9.568323204915108e-06
0.050406929527239214,0.0007938309233879092,-9.177741415348874e-06
0.04984325124764465,0.0008188934685816302,-8.774560317356489e-06
0.04924215300268351,0.0008436648196442122,-8.358920745300028e-06
0.048605190538286276,0.0008681266555294547,-7.930972876506611e-06
0.04793410236279281,0.0008922614787547244,-7.4908758429355665e-06
0.0472307978407237,0.0009160527038056035,-7.038797297295484e-06
0.04649734285219652,0.0009394847389788336,-6.574912936599375e-06
0.04573594280902691,0.0009625430603941395,-6.099405986756132e-06
0.04494892287419146,0.0009852142768149441,-5.612466652453861e-06
0.04413870532392807,0.001007486183864474,-5.114291537284006e-06
0.043307784112211464,0.0010293478062235089,-4.6050830397620105e-06
0.04245869689974912,0.001050789426476499,-4.085048731587009e-06
0.041593995097776004,0.0010718025994758803,-3.5544007250989137e-06
0.04071621272534373,0.0010923801514316602,-3.013355037372029e-06
0.039827834947551426,0.001112516163349884,-2.4621309586766425e-06
0.038931267062993824,0.0011322059388525203,-1.9009504331260414e-06
0.03802880458503191,0.0011514459567645268,-1.3300374592217797e-06
0.037122605013484314,0.001170233809164156,-7.496175177396091e-07
0.03621466188894378,0.001188568125889763,-1.5991703397612935e-07
0.03530678168274613,0.0012064484867826853,4.3883711919198267e-07
0.0344005639738217,0.0012238753231968273,1.0464180716868608e-06
0.03349738522048688,0.0012408498104954043,1.662599355109919e-06
0.03259838628396102,0.0012573737533715162,2.2871552460766492e-06
0.03170446372198323,0.0012734494658730024,2.9198610508877788e-06
0.030816264746997737,0.0012890796479902477,3.5604933293535912e-06
0.02993418563510505,0.0013042672605857735,4.208830056497596e-06
0.029058373285813368,0.001319015400316003,4.8646507217230405e-06
0.0281887295676623,0.0013333271760293719,5.527736365809384e-06
0.027324918044161463,0.0013472055879323278,6.197869556799809e-06
0.026466372676632932,0.0013606534106125265,6.8748343064360224e-06
0.02561230814997709,0.001373673080819179,7.558415929293949e-06
0.024761731531908596,0.0013862665907396505,8.248400847183657e-06
0.023913455027256808,0.0013984353873794418,8.94457634171343e-06
0.023066109651919044,0.0014101802785492358,9.646730258195599e-06
0.02221815976541175,0.0014215013459035685,1.03546506643088e-05
0.021367918542550778,0.0014323978654805591,1.1068125467154832e-05
0.020513564562736928,0.0014428682362568812,1.1786941992589192e-05
0.01965315971402323,0.0014529099173260713,1.251088653098493e-05
0.018784668582212814,0.0014625193744001303,1.323974385391648e-05
0.017905979488247382,0.0014716920364177453,1.3973296706620949e-05
0.01701492737906229,0.0014804222631345726,1.471132528150903e-05
0.01610931881986176,0.0014887033246843036,1.545360667846375e-05
0.015186959298936004,0.0014965273942140031,1.6199914358188325e-05
0.014245682913416723,0.0015038855547670914,1.69500175954336e-05
0.013283384305968062,0.0015107678215719375,1.7703680939518357e-05
0.01229805252799823,0.001517163180780429,1.846066369010645e-05
0.011287806319775807,0.0015230596454923724,1.922071939667465e-05
0.010250930090798463,0.001528444329595016,1.9983595390446497e-05
0.009185909658076663,0.0015333035395322348,2.074903235772831e-05
0.008091466620090125,0.0015376228836017766,2.1516763963511815e-05
0.00696659018051112,0.001541387397801927,2.228651653386274e-05
0.0058105652975732865,0.0015445816866714482,2.3058008804981086e-05
0.004622996169883807,0.0015471900770383125,2.3830951745908525e-05
0.003403824211340194,0.0015491967821336186,2.460504846070151e-05
0.0021533397938316794,0.0015505860731349116,2.537999417451864e-05
0.0008721871956705049,0.001551342454882287,2.615547630652294e-05
-0.0004386375503210323,0.0015514508422936244,2.6931174630816918e-05
-0.001777795877169143,0.0015508967339367518,2.7706761524874513e-05
-0.0031436226069294026,0.0015496663793157272,2.8481902303187632e-05
-0.0045341479611704875,0.0015477469366737022,2.925625563218499e-05
-0.005947124908719631,0.0015451266184562296,3.002947402096747e-05
-0.007380061062126542,0.001541794821963518,3.080120438107241e-05
-0.008830254333836635,0.0015377422431145274,3.157108864734192e-05
-0.010294831550523829,0.0015329609716434372,3.2338764451031415e-05
-0.011770789205062275,0.0015274445664545408,3.310386583555591e-05
-0.013255035536553493,0.0015211881102691368,3.3866024004736835e-05
-0.014744433165600925,0.0015141882430935983,3.462486809307752e-05
-0.016235841535582083,0.0015064431744183026,3.538002594745549e-05
-0.017726158416979058,0.0014979526744301624,3.613112490966761e-05
-0.019212359757316888,0.0014887180448865884,3.6877792589496794e-05
-0.020691537225120703,0.0014787420706409789,3.7619657618378684e-05
-0.02216093288701204,0.0014680289531129457,3.835635037431716e-05
-0.023617970523846007,0.0014565842272602312,3.908750366941045e-05
-0.025060283069399208,0.0014444146638619198,3.981275339219099e-05
-0.02648573553149614,0.001431528159211696,4.053173909795939e-05
-0.027892442625773946,0.0014179336146723784,4.124410454143041e-05
-0.029278780347086614,0.0014036408089291633,4.194949814733079e-05
-0.03064339086490835,0.0013886602661261646,4.264757341609462e-05
-0.031985180391001386,0.001373003123312187,4.333798926345421e-05
-0.03330330994639869,0.001356681000727837,4.402041029446422e-05
-0.034597179223120576,0.0013397058784354572,4.469450701425504e-05
-0.03586640400232975,0.0013220899826290947,4.5359955979521175e-05
-0.03711078783538518,0.0013038456846696659,4.6016439896345866e-05
-0.03833028887665699,0.0012849854154916554,4.66636476713862e-05
-0.03952498288297508,0.0012655215975517474,4.730127442464705e-05
-0.04069502350522195,0.0012454665959546981,4.792902147302366e-05
-0.041840601073878596,0.001224832689809923,4.8546596294464813e-05
-0.04296190105589731,0.001203632064277479,4.9153712482986667e-05
-0.04405906324213593,0.0011818768232029707,4.975008970485678e-05
-0.0451321426089397,0.0011595790217402019,5.033545366609257e-05
-0.04618107275327814,0.0011367507178996475,5.0909536101002536e-05
-0.047205632810611645,0.001113404041508675,5.147207479085462e-05
-0.04820541877768082,0.001089551278611602,5.2022813620884686e-05
-0.04917982014619518,0.001065204968880633,5.2561502682757745e-05
-0.05012800268061771,0.0010403780131739298,5.308789842827138e-05
-0.0510488980051103,0.0010150837880024978,5.360176387856549e-05
-0.051941200383742565,0.0009893362634052847,5.410286889141743e-05
-0.05280337073642318,0.0009631501206252433,5.459099048742506e-05
-0.0536336476359967,0.0009365408660321383,5.5065913234089406e-05
