acceleration,velocity,displacement
-0.02960553146858415,0.0,0.0
-0.030228705480522935,-1.4958559237276772e-05,-3.739639809319193e-09
-0.030850691399454233,-3.0228408457271064e-05,-1.5036381732956153e-08
-0.03147030439572973,-4.5808657406067056e-05,-3.4045648198790685e-08
-0.032086366034627806,-6.169782501365645e-05,-6.092226880372156e-08
-0.03269770715581526,-7.789384331126722e-05,-9.582018588495247e-08
-0.03330317040010947,-9.43940627002484e-05,-1.3889216238783138e-07
-0.03390161231449562,-0.00011119525837889968,-1.9028949265761838e-07
-0.03449190500886591,-0.00012829363770974008,-2.5016171667977834e-07
-0.035072937384821604,-0.00014568484830816195,-3.1865633818425383e-07
-0.03564361599655835,-0.00016336398665350694,-3.9591854692467107e-07
-0.036202865630176675,-0.0001813256070601907,-4.820909453530955e-07
-0.036749629705697465,-0.00019956373089415923,-5.77313279841683e-07
-0.03728287062011335,-0.00021807185597561194,-6.817221765591259e-07
-0.03780157015236317,-0.0002368429661687311,-7.954508820952117e-07
-0.03830473003120143,-0.00025586954121462226,-9.1862900894105e-07
-0.03879137272871218,-0.0002751435669046007,-1.0513822859708556e-06
-0.03926054250464046,-0.00029465654571293883,-1.1938323141252406e-06
-0.03971130670595162,-0.00031439950801558683,-1.346096327557372e-06
-0.040142757323037716,-0.0003343630240228342,-1.5082869605669773e-06
-0.04055401280840659,-0.0003545372165556953,-1.6805120207116098e-06
-0.04094422016322432,-0.000374911774798603,-1.8628742685501843e-06
-0.04131255728617411,-0.0003954759691609526,-2.055471204540073e-06
-0.04165823556396335,-0.000416218667373487,-2.258394863673683e-06
-0.041980502673239634,-0.0004371283519327877,-2.4717316185002514e-06
-0.042278645559868856,-0.00045819313899106483,-2.6955619912312145e-06
-0.0425519935564961,-0.0004794007987701561,-2.92996047567152e-06
-0.04279992159233414,-0.0005007387775573637,-3.1749953697534e-06
-0.04302185344814423,-0.0005221942213174832,-3.430728619472112e-06
-0.0432172650194383,-0.0005437540009343789,-3.6972156750350775e-06
-0.0433856875671547,-0.0005654047390810271,-3.974505360038929e-06
-0.04352671094844904,-0.0005871328387099281,-4.262639754486668e-06
-0.04363998682529516,-0.0006089245131533641,-4.5616540924524916e-06
-0.04372523184236085,-0.0006307658178202781,-4.871576675195902e-06
-0.043782230746337046,-0.0006526426834674526,-5.192428800517834e-06
-0.04381083938953244,-0.0006745409510014199,-5.524224709135053e-06
-0.04381098753176207,-0.0006964464077317435,-5.8669715488183435e-06
-0.043782681338588585,-0.0007183448249493312,-6.220669356988613e-06
-0.04372600547691532,-0.0007402219966532071,-6.585311062389247e-06
-0.04364112472654389,-0.0007620637792040719,-6.960882506353567e-06
-0.04352828504851118,-0.0007838561316478357,-7.347362484066544e-06
-0.04338781406884428,-0.0008055851564271746,-7.744722806085297e-06
-0.04322012094468033,-0.0008272371401805558,-8.15292838023723e-06
-0.04302569557792671,-0.0008487985943112076,-8.57193731386017e-06
-0.042805107135664315,-0.0008702562949896054,-9.001701036185375e-06
-0.04255900183638527,-0.0008915973222326178,-9.44216444049093e-06
-0.04228809997296799,-0.0009128090976849561,-9.893266045470324e-06
-0.041993192163556854,-0.0009338794207190874,-1.0354938175071334e-05
-0.041675134843591005,-0.0009547965024708743,-1.0827107155868825e-05
-0.04133484503211756,-0.0009755489974398015,-1.1309693530846494e-05
-0.04097329442018086,-0.000996126032302876,-1.1802612288282164e-05
-0.0405915028355855,-0.0010165172316168177,-1.2305773104262088e-05
-0.040190531138904126,-0.0010367127401104401,-1.2819080597193902e-05
-0.03977147361058763,-0.001056703241297813,-1.3342434592545967e-05
-0.03933544990633149,-0.0010764799721770428,-1.387573039591468e-05
-0.03888359668217174,-0.0010960347338241686,-1.4418859072414984e-05
-0.038417059011830575,-0.0011153598977476692,-1.4971707730307943e-05
-0.0379369817330165,-0.001134448407933881,-1.553415980672833e-05
-0.03744450086791336,-0.0011532937785841135,-1.610609535335783e-05
-0.03694073526451928,-0.0011718900876172217,-1.6687391319908163e-05
-0.036426778597944715,-0.0011902319660828378,-1.727792183333318e-05
-0.035903691856229145,-0.0012083145836963812,-1.7877558470777983e-05
-0.035372496417101294,-0.0012261336307647138,-1.8486170524393257e-05
-0.03483416780246373,-0.0012436852968196052,-1.9103625256289337e-05
-0.034289630176996044,-0.0012609662463144702,-1.9729788142072856e-05
-0.0337397516362505,-0.0012779735917677819,-2.0364523101593417e-05
-0.03318534030807928,-0.0012947048647538643,-2.100769271572383e-05
-0.032627141270844796,-0.0013111579851485954,-2.1659158428199444e-05
-0.03206583427823132,-0.0013273312290358644,-2.231878073174556e-05
-0.03150203227921069,-0.0013432231956752249,-2.298641933792333e-05
-0.030936280729893795,-0.001358832773927501,-2.366193333032401e-05
-0.030369057700495118,-0.0013741591085350982,-2.434518130093966e-05
-0.029800774777722694,-0.0013892015666546527,-2.5036021469737096e-05
-0.029231778753100915,-0.0014039597050373586,-2.57343117876601e-05
-0.02866235407542798,-0.0014184332382444907,-2.643991002348056e-05
-0.028092726031557203,-0.001432622008271237,-2.7152673835109493e-05
-0.027523064606635915,-0.0014465259559307852,-2.7872460826159997e-05
-0.02695348896827397,-0.0014601450943245128,-2.859912858872382e-05
-0.02638407251833931,-0.001473479484696166,-2.9332534733478993e-05
-0.025814848454265613,-0.0014865292149393173,-3.0072536908387862e-05
-0.025245815772704697,-0.00149929438099606,-3.081899280737171e-05
-0.024676945631564768,-0.0015117750713471273,-3.1571760170457505e-05
-0.024108187966370945,-0.0015239713547466113,-3.233069677698094e-05
-0.023539478238740648,-0.0015358832712978891,-3.309566043349206e-05
-0.022970744182778124,-0.001547510826903269,-3.386650895804235e-05
-0.022401912412962095,-0.001558853991052204,-3.464310016253122e-05
-0.02183291476555665,-0.0015699126978468338,-3.5425291834755974e-05
-0.021263694262355137,-0.0015806868501038118,-3.6212941721743634e-05
-0.020694210605459302,-0.0015911763263207655,-3.700590751584978e-05
-0.020124445129831706,-0.0016013809902545883,-3.7804046844993616e-05
-0.019554405152324865,-0.0016113007028251275,-3.8607217268263546e-05
-0.0189841276630737,-0.0016209353360289772,-3.941527627797707e-05
-0.018413682313870028,-0.0016302847885232132,-4.022808130911512e-05
-0.017843173672078806,-0.0016393490025197004,-4.104548975687585e-05
-0.017272742723119922,-0.0016481279816185001,-4.1867359002910405e-05
-0.01670256761135195,-0.0016566218092021181,-4.269354645061556e-05
-0.016132863606023583,-0.001664830667006462,-4.35239095696677e-05
-0.015563882276458278,-0.0016727548534770824,-4.4358305949788586e-05
-0.014995909875385134,-0.0016803948015150433,-4.5196593363536615e-05
-0.014429264966399175,-0.0016877510952254895,-4.603862983772175e-05
-0.013864295378220308,-0.0016948244853116443,-4.688427373285603e-05
-0.013301374607196262,-0.0017016159028079986,-4.7733383829885944e-05
-0.012740897810062556,-0.0017081264709123132,-4.858581942331602e-05
-0.012183277528693673,-0.0017143575147470023,-4.944144041973085e-05
-0.011628939272673404,-0.0017203105689473442,-5.030010744065444e-05
-0.011078317065014729,-0.0017259873830317663,-5.116168192864922e-05
-0.010531849038343494,-0.0017313899245576059,-5.202602625554656e-05
-0.009989973152419127,-0.0017365203801052965,-5.289300383171228e-05
-0.009453123086598044,-0.0017413811541650507,-5.376247921527987e-05
-0.008921724345668127,-0.0017459748660231173,-5.463431822032691e-05
-0.008396190607750448,-0.001750304344761472,-5.550838802302306e-05
-0.007876920338147245,-0.0017543726224979466,-5.6384557264837913e-05
-0.007364293688880801,-0.0017581829260047035,-5.726269615196358e-05
-0.006858669696345955,-0.0017617386668510103,-5.814267655017751e-05
-0.006360383780948362,-0.001765043430220334,-5.9024372074445347e-05
-0.0058697455486797084,-0.001768100962552741,-5.990765817263862e-05
-0.005387036897817503,-0.0017709151581643654,-6.0792412202817896e-05
-0.004912510439768099,-0.0017734900449987618,-6.167851350360868e-05
-0.004446388244131063,-0.0017758297696697366,-6.25658434572758e-05
-0.003988860911530772,-0.001777938581958652,-6.345428554518291e-05
-0.0035400869685701915,-0.0017798208189286774,-6.434372539540474e-05
-0.003100192576185478,-0.0017814808888148663,-6.523405082234063e-05
-0.002669271550050728,-0.0017829232548464253,-6.612515185825596e-05
-0.002247385706995312,-0.0017841524191606868,-6.701692077675773e-05
-0.0018345655675248884,-0.001785172906979317,-6.790925210829274e-05
-0.0014308114544552702,-0.001785989251234812,-6.880204264784627e-05
-0.0010360950289015813,-0.0017866059778556512,-6.969519145511889e-05
-0.0006503613008131703,-0.0017870275919380798,-7.058859984756732e-05
-0.00027353114510882674,-0.0017872585650495602,-7.148217138681424e-05
9.449565753970194e-05,-0.0017873033239214524,-7.237581185905699e-05
0.00045383686177614995,-0.0017871662407916236,-7.326942925023526e-05
0.0008046237267334345,-0.0017868516256444962,-7.416293371684429e-05
0.0011469966028435153,-0.001786363720562102,-7.505623755339595e-05
0.0014811002592912072,-0.0017857066963465683,-7.594925515762311e-05
0.0018070790910837743,-0.0017848846515089746,-7.6841902994587e-05
0.0021250723421638255,-0.0017839016136506627,-7.773409956087692e-05
0.002435209464881133,-0.0017827615431989013,-7.862576535008931e-05
0.0027376057158439954,-0.00178146833940372,-7.951682282073996e-05
0.0030323580703454046,-0.0017800258484571725,-8.040719636770518e-05
0.003319541522006815,-0.0017784378735590846,-8.129681229820925e-05
0.0035992058210806157,-0.0017767081867233127,-8.218559881327985e-05
0.0038713727007500943,-0.001774840542092855,-8.307348599548388e-05
0.0041360336478619975,-0.001772838690505702,-8.396040580363352e-05
0.004393148281918846,-0.0017707063950232569,-8.484629207501576e-05
0.004642643399455167,-0.0017684474471029133,-8.57310805355473e-05
0.004884412718245603,-0.0017660656830734882,-8.66147088180914e-05
0.00511831732591827,-0.0017635650005624471,-8.749711648900039e-05
0.005344186808536417,-0.0017609493745288334,-8.837824508277321e-05
0.005561821012277704,-0.00175822287257363,-8.925803814454882e-05
0.0057709923814512586,-0.0017553896692251976,-9.013644127999852e-05
0.0059714488201782455,-0.0017524540589247903,-9.101340221203602e-05
0.006162917032257049,-0.0017494204674616814,-9.188887084363264e-05
0.0063451062869153115,-0.0017462934616318882,-9.276279932590603e-05
0.006517712531959532,-0.0017430777569271696,-9.36351421305458e-05
0.0066804227455969905,-0.0017397782231077805,-9.450585612555454e-05
0.006832919403611195,-0.0017363998875704785,-9.53749006532241e-05
0.006974884944064687,-0.0017329479364835596,-9.624223760923762e-05
0.007106006127570982,-0.0017294277137156508,-9.710783152178742e-05
0.007225978209251309,-0.0017258447176314452,-9.79716496296242e-05
0.0073345088569940695,-0.0017222045958648839,-9.883366195799828e-05
0.007431321770338407,-0.0017185131382080508,-9.969384139151651e-05
0.007516159975712662,-0.001714776267771538,-0.00010055216374301141
0.007588788797382879,-0.001711000030578264,-0.00010140860781759887
0.007648998526145738,-0.0017071905837473817,-0.00010226315547118028
0.007696606823582932,-0.0017033541824099496,-0.00010311579166271961
0.0077314609055494,-0.0016994971654776664,-0.00010396650449969151
0.007753439546869601,-0.0016956259403645617,-0.00010481528527615206
0.007762454943288942,-0.001691746966742022,-0.00010566212850292871
0.007758454456788097,-0.0016878667393920028,-0.00010650703192946221
0.007741422257225624,-0.0016839917702134994,-0.00010734999655686358
0.007711380861900441,-0.001680128569433718,-0.00010819102664177538
0.007668392569883089,-0.0016762836260757722,-0.00010903012969065275
0.007612560789666063,-0.001672463387735885,-0.00010986731644410567
0.007544031262285712,-0.0016686742397228971,-0.00011070260085097036
0.0074629931832252885,-0.0016649224836115194,-0.00011153600003180397
0.007369680223227219,-0.0016612143152599063,-0.00011236753423152183
0.007264371439227648,-0.0016575558023442926,-0.00011319722676092289
0.0071473920522828,-0.001653952861471415,-0.00011402510392687681
0.007019114055793681,-0.0016504112349443958,-0.00011485119495098076
0.006879956614835505,-0.0016469364672767385,-0.00011567553187653605
0.006730386230863752,-0.0016435338815653136,-0.00011649814946374656
0.006570916669290641,-0.001640208555840275,-0.00011731908507309796
0.006402108669159896,-0.0016369652995056624,-0.00011813837853693445
0.006224569466424085,-0.0016338086299717664,-0.0001189560720193038
0.006038952163196189,-0.0016307427495643614,-0.00011977220986418783
0.005845954968645607,-0.001627771522781401,-0.00012058683843227427
0.0056463203301917635,-0.0016248984539566915,-0.00012140000592645878
0.005440833971035558,-0.0016221266653813847,-0.0001222117622062933
0.0052303238487274055,-0.001619458875926444,-0.00012302215859162025
0.005015659042145618,-0.0016168973802037259,-0.0001238312476556528
0.004797748557694236,-0.0016144440283037658,-0.00012463908300777967
0.004577540025266421,-0.0016121002061580258,-0.00012544571906639512
0.004356018240630268,-0.0016098668165915515,-0.00012625121082208252
0.004134203508541695,-0.0016077442611542585,-0.00012705561359151898
0.003913149745727627,-0.0016057324228406912,-0.00012785898276251772
0.003693942307328024,-0.0016038306498274272,-0.00012866137353068476
0.0034776955036399846,-0.0016020377403746851,-0.0001294628406282353
0.003265549777551489,-0.0016003519290543873,-0.00013026343804559257
0.0030586685138999695,-0.0015987708744815245,-0.00013106321874647656
0.002858234446437298,-0.0015972916487414402,-0.0001318622343772823
0.002665445618471145,-0.001595910728725213,-0.00013266053497164895
0.0024815108450816172,-0.001594623989609325,-0.00013345816865123258
0.002307644623601659,-0.0015934267007421542,-0.00013425518132382044
0.0021450614515517237,-0.0015923135242233658,-0.0001350516163800618
0.0019949695416715965,-0.00159127851647506,-0.0001358475143902364
0.0018585639647883752,-0.001590315133098445,-0.00013664291280262978
0.0017370192880994191,-0.001589416237285223,-0.0001374378456452257
0.00163148180053998,-0.001588574112013063,-0.00013823234323255028
0.0015430614317030239,-0.0015877804762050023,-0.0001390264318796048
0.0014728234839027597,-0.001587026504976101,-0.00013982013362490007
0.001421780314949678,-0.0015863028540263877,-0.0001406134659646507
0.0013908831305136631,-0.001585599688165022,-0.00014140644160019856
0.0013810140583836526,-0.0015849067138677976,-0.00014219906820070677
0.001392978672217208,-0.0015842132156851474,-0.000142991348183095
0.0014274991122963565,-0.0015835080962390189,-0.00014378327851107605
0.001485207926571904,-0.0015827799194793018,-0.00014457485051500563
0.0015666427321205068,-0.0015820169568146287,-0.00014536604973407912
0.0016722417706758856,-0.0015812072356889296,-0.00014615685578220502
0.0018023403971945233,-0.001580338590146962,-0.000146947242238664
0.001957168501146386,-0.0015793987129223768,-0.00014773717656443134
0.002136848825855547,-0.0015783752085906262,-0.00014852662004480958
0.0023413961274494346,-0.0015772556473523,-0.00014931552775879531
0.0025707171010937893,-0.0015760276190451643,-0.00015010384857539467
0.002824610995112403,-0.0015746787870211127,-0.00015089152517691124
0.0031027708319000917,-0.0015731969415643595,-0.0001516784941090576
0.0034047851597921383,-0.0015715700525664364,-0.0001524646858575903
0.0037301402714151497,-0.0015697863212086347,-0.0001532500249510341
0.004078222834450178,-0.0015678342304321683,-0.0001540344300889443
0.004448322883170427,-0.0015657025940027632,-0.00015481781429505304
0.004839637117403946,-0.0015633806040026197,-0.00015560008509455438
0.0052512724597821945,-0.0015608578766083232,-0.00015638114471470713
0.005682249835799041,-0.0015581244960344279,-0.00015716089030786781
0.006131508159742038,-0.0015551710565355427,-0.0001579392141960103
0.006597908530157696,-0.0015519887023630677,-0.00015871600413573496
0.007080238661967655,-0.0015485691655650364,-0.00015949114360271698
0.007577217603853501,-0.001544904801498581,-0.0001602645120944829
0.008087500797349875,-0.0015409886218982801,-0.00016103598545033211
0.008609685522678129,-0.001536814325318273,-0.00016180543618713624
0.0091423167546888,-0.0015323763247489313,-0.00016257273384965304
0.009683893434410049,-0.0015276697722016565,-0.0001633377453738907
0.010232875152195845,-0.001522690580055005,-0.00016410033546195488
0.01078768923099628,-0.001517435438959207,-0.00016486036696670842
0.011346738184500606,-0.0015119018321053327,-0.00016561770128447457
0.011908407503756333,-0.0015060880456832684,-0.0001663721987539217
0.012471073704679531,-0.0014999931753811595,-0.00016712371905918782
0.013033112556733674,-0.0014936171288158061,-0.00016787212163523707
0.01359290741123126,-0.001486960623823815,-0.000168617266073397
0.014148857548059899,-0.0014800251825839922,-0.00016935901252499894
0.014699386454985084,-0.001472813121583231,-0.00017009722210104076
0.015242949946115957,-0.0014653275374829557,-0.0001708317572658073
0.015778044024025807,-0.0014575722889904202,-0.00017156248222242564
0.01630321239753308,-0.0014495519748850304,-0.0001722892632883945
0.016817053581107983,-0.0014412719083903701,-0.00017301196925921335
0.01731822751935529,-0.0014327380881152543,-0.00017373047175833975
0.017805461703724497,-0.0014239571658094844,-0.00017444464557182093
0.01827755677880852,-0.001414936411188851,-0.00017515436896607052
0.018733391661234833,-0.0014056836740788403,-0.00017585952398738744
0.019171928203766217,-0.00139620734411259,-0.0001765599967419353
0.019592215431055705,-0.0013865163082038845,-0.0001772556776550144
0.019993393356117033,-0.0013766199060070913,-0.00017794646170856714
0.020374696361630463,-0.0013665278835776544,-0.00017863224865596333
0.020735456107965046,-0.0013562503454602555,-0.0001793129432132228
0.02107510392411545,-0.0013457977054522354,-0.00017998845522595091
0.021393172649622098,-0.001335180636308801,-0.00018065869981139117
0.021689297909934433,-0.001324410018668912,-0.0001813235974751356
0.021963218810902657,-0.0013134968894887027,-0.000181983074202175
0.02221477803163497,-0.0013024523902780683,-0.0001826370615221167
0.022443921291687374,-0.0012912877154472376,-0.00018328549654854804
0.02265069617659152,-0.001280014061080168,-0.0001839283219926799
0.022835250321173308,-0.0012686425744557266,-0.00018456548615156386
0.022997828963527082,-0.0012571843046345515,-0.00018519694287133642
0.02313877188922392,-0.0012456501544213638,-0.0001858226514861004
0.02325850978868629,-0.0012340508340018862,-0.0001864425767332062
0.023357560054935923,-0.0012223968165409806,-0.00018705668864584194
0.02343652205313839,-0.0012106982960139621,-0.00018766496242398066
0.023496071896604222,-0.0011989651475265266,-0.0001882673782848658
0.023536956770798506,-0.0011872068903596759,-0.00018886392129433734
0.023559988861286428,-0.0011754326539516547,-0.00018945458118041516
0.02356603895958709,-0.0011636511469964362,-0.0001900393521306522
0.02355602983340699,-0.0011518706297981877,-0.00019061823257485085
0.0235309294468829,-0.0011400988899781153,-0.00019119122495479492
0.02349174410021653,-0.0011283432215913405,-0.0001917583354826873
0.02343951153331078,-0.0011166104076829587,-0.00019231957389000587
0.023375294016615894,-0.001104906706295477,-0.00019287495316850048
0.023300171441913112,-0.0010932378399308449,-0.00019342448930505707
0.023215234424443267,-0.0010816089884642557,-0.00019396820101215585
0.023121577431007432,-0.001070024785500393,-0.00019450610945564702
0.02302029195490625,-0.0010584893181539146,-0.0001950382379815606
0.02291245976917039,-0.0010470061302228955,-0.0001955646118436548
0.02279914630087498,-0.0010355782287053842,-0.00019608525793338687
0.022681394173254675,-0.0010242080935868518,-0.00019660020451395992
0.022560216957799428,-0.0010128976908040882,-0.00019710948096005767
0.02243659317656417,-0.0010016484882704973,-0.0001976131175048263
0.022311460604660816,-0.000990461474825191,-0.00019811114499560024
0.022185710937688105,-0.0009793371819396038,-0.00019860359465979146
0.02206018489513869,-0.0009682757079813971,-0.0001990904978822717
