acceleration,velocity,displacement
-0.029609356899156766,0.0,0.0
-0.03027799600262982,-1.4971838225446647e-05,-3.742959556361662e-09
-0.030939561961254122,-3.0276227716417635e-05,-1.5054976041827735e-08
-0.03158732028202853,-4.59079482772383e-05,-3.4101020040241717e-08
-0.03221519174930412,-6.185857628507146e-05,-6.104265118081916e-08
-0.032818026617035145,-7.811688087665628e-05,-9.60365154712511e-08
-0.033391819111267845,-9.466934230873203e-05,-1.3923307126759818e-07
-0.033933849833803285,-0.00011150075954499981,-1.9077559673103113e-07
-0.03444275021897387,-0.0001285949095581941,-2.507995140068296e-07
-0.034918490453120794,-0.00014593521972621778,-3.1943204632793257e-07
-0.03536229840665253,-0.0001635054169411611,-3.967922054947773e-07
-0.0357765212181441,-0.00018129012184736027,-4.829910901919076e-07
-0.036164443987822134,-0.00019927536314885182,-5.781324614409606e-07
-0.03653008229386862,-0.0002174489947192745,-6.823135509079923e-07
-0.03687796574887,-0.00023580100672995915,-7.956260512703007e-07
-0.037212926890096656,-0.0002543237298897008,-9.181572354252158e-07
-0.03753990398114771,-0.0002730119376075119,-1.0499911522995189e-06
-0.03786376074831433,-0.0002918628537898774,-1.1912098501488661e-06
-0.038189123192087844,-0.00031087607477497795,-1.34189458229008e-06
-0.038520233561046016,-0.0003300534139632614,-1.50212695447464e-06
-0.03886082273193183,-0.0003493986780365059,-1.6719899774745818e-06
-0.039214002684693584,-0.0003689173843906623,-1.8515689930813739e-06
-0.03958217963327289,-0.0003886164299701539,-2.040952446671578e-06
-0.039966986620765914,-0.0004085037215336636,-2.240232484547532e-06
-0.04036923352722236,-0.00042858777657066066,-2.449505359073613e-06
-0.040788872488531656,-0.00044887730307459914,-2.668871628984928e-06
-0.04122497657722436,-0.00046938076534103814,-2.8984361460888373e-06
-0.04167572913787877,-0.000490105941769814,-3.13830782286655e-06
-0.04213842161234728,-0.0005110594794573704,-3.3885991781733464e-06
-0.04260945979772717,-0.000532246449809889,-3.649425660490161e-06
-0.043084381488046775,-0.0005536699101313325,-3.920904750475466e-06
-0.043557890948811157,-0.000575330478240547,-4.203154847568436e-06
-0.04402391677323224,-0.0005972259301710579,-4.496293949671338e-06
-0.044475698922520436,-0.000619350834094996,-4.800438140737851e-06
-0.044905907859684464,-0.0006416962357905472,-5.115699908209237e-06
-0.0453067941081443,-0.0006642494112825044,-5.4421863199775e-06
-0.04567036193337704,-0.0006869937002928847,-5.7799970978713475e-06
-0.04598855809089747,-0.0007099084302989532,-6.129222630519307e-06
-0.04625346661464778,-0.0007329689364753395,-6.48994197221288e-06
-0.04645750279502091,-0.0007561466788277567,-6.862220876038654e-06
-0.0465936022607304,-0.0007794094550916945,-7.246109909518517e-06
-0.04665540302603351,-0.0008027217064133854,-7.641642699894788e-06
-0.04663741871627419,-0.0008260449118489624,-8.048834354460374e-06
-0.04653519986760629,-0.0008493380664949325,-8.467680099046348e-06
-0.04634547812695667,-0.0008725582359935733,-8.898154174668475e-06
-0.046066286959764655,-0.0008956611772652535,-9.340209027983182e-06
-0.045697053035241554,-0.000918602012264005,-9.793774825365497e-06
-0.04523865431462182,-0.0009413359391014709,-1.0258759313206867e-05
-0.0446934429946173,-0.0009638189634287807,-1.073504803883943e-05
-0.04406523324516827,-0.0009860086324887272,-1.1222504937818807e-05
-0.04335925470898256,-0.001007864754477265,-1.1720973284560305e-05
-0.04258207254131007,-0.0010293500862898382,-1.2230276994752081e-05
-0.04174147374057434,-0.0010504309728603092,-1.2750222259539618e-05
-0.040846319294781996,-0.0010710779211191483,-1.3280599483034482e-05
-0.03990636347354905,-0.0010912660918112312,-1.3821185486267078e-05
-0.03893204465036266,-0.001110975693842209,-1.4371745932680438e-05
-0.03793425473599539,-0.0011301922686887986,-1.493203792331319e-05
-0.03692409611771948,-0.0011489068564022272,-1.5501812704585947e-05
-0.03591263611873746,-0.0011671160394613415,-1.608081842855184e-05
-0.03491066919806843,-0.001184821865790543,-1.666880290486481e-05
-0.033928496124183465,-0.001202031657121106,-1.7265516285592723e-05
-0.0329757274693034,-0.0012187577130194777,-1.787071362812787e-05
-0.03206111652381439,-0.001235016924017757,-1.848415728738718e-05
-0.031192424435432867,-0.0012508303092575689,-1.9105619095706013e-05
-0.030376318133100173,-0.0012662224948997022,-1.9734882296745332e-05
-0.029618299417587566,-0.001281221149287374,-2.03717432077921e-05
-0.028922661480937303,-0.0012958563895120053,-2.1016012592491947e-05
-0.028292467302144887,-0.001310160171707776,-2.1667516732796893e-05
-0.02772954369812846,-0.0013241656744578442,-2.2326098194338297e-05
-0.02723448613899201,-0.0013379066819171244,-2.299161628343204e-05
-0.026806672296463715,-0.0013514169715259884,-2.366394719679282e-05
-0.02644428490613519,-0.001364729710826638,-2.4342983867380977e-05
-0.026144345681380583,-0.001377876868473517,-2.5028635512206016e-05
-0.025902762078461754,-0.0013908886454134775,-2.5720826890677764e-05
-0.025714388332367638,-0.0014037929330161848,-2.641949728528518e-05
-0.025573101455841143,-0.001416614805463237,-2.7124599219905035e-05
-0.02547189222828202,-0.0014293760538842677,-2.7836096934741913e-05
-0.025402971396355896,-0.0014420947697904272,-2.8553964640660586e-05
-0.025357892286635764,-0.0014547849857111752,-2.9278184579535985e-05
-0.025327691682621133,-0.0014674563817034894,-3.000874492138965e-05
-0.02530305017155584,-0.0014801140671670337,-3.074563753360728e-05
-0.025274471138735696,-0.0014927584474946065,-3.1488855662272686e-05
-0.02523247483911167,-0.0015053851839890685,-3.2238391570143604e-05
-0.02516780133808399,-0.0015179852530333674,-3.2994234179399216e-05
-0.02507161424068769,-0.0015305451069280603,-3.375636676938957e-05
-0.024935696549036858,-0.0015430469346254913,-3.452476477977796e-05
-0.024752630902414627,-0.0015554690164883542,-3.5299393767556426e-05
-0.02451595845030453,-0.001567786163826534,-3.608020756263515e-05
-0.024220312933200292,-0.0015799702316724102,-3.6867146661509886e-05
-0.023861528410122256,-0.0015919906920082408,-3.766013689243005e-05
-0.023436719857592887,-0.0016038152540751695,-3.8459088378950905e-05
-0.022944335773330826,-0.0016154105179829003,-3.9263894821965426e-05
-0.022384181976202806,-0.0016267426474202836,-4.0074433113316224e-05
-0.021757416574769255,-0.0016377780470580266,-4.08905632869358e-05
-0.021066516891508482,-0.001648484030424596,-4.171212880630646e-05
-0.020315218723430714,-0.0016588294643283307,-4.253895717999469e-05
-0.01950842635898954,-0.0016687853755989357,-4.337086088997651e-05
-0.0186520899261828,-0.0016783255046702288,-4.42076386100438e-05
-0.017753047539535854,-0.0016874267890366584,-4.504907668347052e-05
-0.016818834138896167,-0.0016960697594562665,-4.589495082059375e-05
-0.015857464912260012,-0.0017042388342190554,-4.6745027969012584e-05
-0.014877206080909032,-0.0017119225019673477,-4.759906830305918e-05
-0.013886347995020755,-0.00171911339048633,-4.84568272761726e-05
-0.012892994558521836,-0.0017258082261247156,-4.931805768032536e-05
-0.011904879791013075,-0.0017320076947120993,-5.018251166053456e-05
-0.010929218552301384,-0.001737716219297928,-5.104994263903707e-05
-0.009972595237598825,-0.001742941672745403,-5.19201071120479e-05
-0.009040891416994488,-0.0017476950444090514,-5.2792766291336515e-05
-0.00813925061379946,-0.0017519900799167498,-5.3667687572417966e-05
-0.0072720761050893284,-0.001755842911596472,-5.4544645820296274e-05
-0.006443056316239879,-0.0017592716947018043,-5.542342447187084e-05
-0.00565521198785097,-0.001762296261777827,-5.630381646099075e-05
-0.004910959133500796,-0.001764937804558165,-5.718562497757475e-05
-0.004212181280653589,-0.0017672185896617035,-5.806866407612971e-05
-0.003560303879264444,-0.001769161710951683,-5.8952759151283056e-05
-0.0029563639817324788,-0.0017707908779169322,-5.983774729850021e-05
-0.0024010697115370403,-0.0017721302363402497,-6.0723477577064505e-05
-0.0018948459272474629,-0.001773204215249946,-6.160981118996206e-05
-0.0014378636954005444,-0.001774037392655608,-6.249662159193845e-05
-0.0010300512500244186,-0.0017746543713919641,-6.338379453295034e-05
-0.000671083807786047,-0.0017750796551564167,-6.427122803958743e-05
-0.0003603502450504962,-0.0017753375136696258,-6.515883233179393e-05
-9.689691225276466e-05,-0.0017754518254589516,-6.604652966657607e-05
0.00012064765814019267,-0.0017754458877724797,-6.693425409488393e-05
0.00029415982008075005,-0.0017753421859029244,-6.782195111330278e-05
0.00042610976793191785,-0.0017751621185059213,-6.870957718940499e-05
0.00051964133255696,-0.001774925680730799,-6.959709913921418e-05
0.0005786313295500955,-0.0017746511125652723,-7.048449333753819e-05
0.0006077173326008808,-0.0017743545253997347,-7.137174474702945e-05
0.0006122839168573838,-0.00177404952508737,-7.225884575965122e-05
0.000598400813595511,-0.0017737468539047569,-7.314579485439925e-05
0.0005727121371014597,-0.0017734540756670827,-7.40325950867922e-05
0.0005422822484859803,-0.0017731753270706857,-7.491925243747665e-05
0.0005144088294669936,-0.0017729111543011975,-7.580577405781961e-05
0.0004964161647131871,-0.0017726584480526526,-7.669216645840808e-05
0.000495441322463559,-0.0017724104836808585,-7.757843369134146e-05
0.0005182236403220119,-0.001772157067440162,-7.846457557912172e-05
0.0005709051218346242,-0.001771884785249623,-7.935058604229416e-05
0.0006588470690134063,-0.001771577347201911,-8.023645157540705e-05
0.0007864664496398997,-0.0017712160188222477,-8.11221499169131e-05
0.000957094162048623,-0.0017707801286693256,-8.200764895378599e-05
0.001172857512181536,-0.0017702476407507682,-8.289290589614101e-05
0.001434591204800432,-0.0017695957785715227,-8.377786675097158e-05
0.0017417832279607165,-0.0017688016849633323,-8.466246611685529e-05
0.0020925619445213094,-0.0017678430986702118,-8.554662731276368e-05
0.0024837281760548024,-0.0017666990261400678,-8.643026284396625e-05
0.0029108324137117887,-0.0017653503859926263,-8.731327519699942e-05
0.003368293765359525,-0.0017637806044478585,-8.819555794460955e-05
0.00384955469772832,-0.0017619761423320866,-8.907699713130453e-05
0.004347264983525775,-0.0017599269374117732,-8.995747290124048e-05
0.004853489714157907,-0.0017576267487373523,-9.083686132277777e-05
0.005359938091416354,-0.0017550733917859587,-9.17150363579086e-05
0.005858209280809754,-0.0017522688549429022,-9.259187191959082e-05
0.006340048070937439,-0.0017492192906049654,-9.346724395597778e-05
0.00679759879498576,-0.0017459348788884845,-9.434103249835115e-05
0.007223644009364641,-0.0017424295681873969,-9.521312361012012e-05
0.007611815456933194,-0.0017387207033208224,-9.608341117799718e-05
0.007956767383030987,-0.0017348285576108313,-9.695179849323009e-05
0.008254305039558034,-0.001730775789505184,-9.781819958000909e-05
0.008501463958425545,-0.0017265868472556881,-9.86825402391993e-05
0.00869653839877074,-0.001722287346666389,-9.954475878767982e-05
0.008839060400017903,-0.001717903446966692,-0.00010040480648608809
0.0089297341671354,-0.0017134612483249037,-0.00010126264765991098
0.00897033361287392,-0.0017089862313799014,-0.00010211825952983718
0.008963572873876198,-0.001704502754758214,-0.00010297163177637171
0.008912960040538723,-0.0017000336215296102,-0.00010382276587044367
0.008822643587426916,-0.0016955997206226188,-0.00010467167420598172
0.008697259580011132,-0.0016912197448307592,-0.00010551837907234506
0.008541785719814808,-0.0016869099835058027,-0.00010636291150442921
0.008361405816932014,-0.001682684185621616,-0.00010720531004671106
0.00816138610974456,-0.0016785534876399468,-0.00010804561946502645
0.007946963767334692,-0.001674526400170677,-0.0001088838894369791
0.007723247884957384,-0.001670608847257604,-0.00010972017324883618
0.007495133607567524,-0.0016668042518844727,-0.0001105545265236217
0.00726723002897244,-0.0016631136609753377,-0.00011138700600183665
0.0070438019085260345,-0.0016595359029909632,-0.00011221766839282823
0.006828723817549287,-0.0016560677715594444,-0.00011304656931146582
0.006625443111235791,-0.001652704229827248,-0.0001138737623118125
0.006436946075143506,-0.001649438632530653,-0.00011469929802740197
0.006265721326083137,-0.0016462629656803464,-0.00011552322342695472
0.006113716789928831,-0.0016431681061513433,-0.00011634558119491264
0.005982290374343468,-0.0016401441043602753,-0.00011716640924754054
0.00587215804526454,-0.0016371804922553732,-0.00011798574039669445
0.005783345137569979,-0.0016342666164596647,-0.0001188036021738732
0.005715147085318785,-0.0016313919934039425,-0.0001196200168263391
0.005666104926899086,-0.001628546680400888,-0.00012043500149479032
0.005634000035585976,-0.0016257216541602666,-0.00012124856857843061
0.005615872270509332,-0.0016229091860837429,-0.00012206072628849161
0.005608065653048178,-0.0016201032016028535,-0.00012287147938541327
0.00560630458401529,-0.0016172996090435877,-0.00012368083008807486
0.0056058010422159275,-0.00161449658263703,-0.00012448877913599502
0.005601389984901037,-0.0016116947848802507,-0.00012529532697787434
0.005587687856013314,-0.0016088975154200222,-0.0001261004750529494
0.005559268526259266,-0.001606110776324454,-0.0001269042271258855
0.005510851428002346,-0.0016033432463358884,-0.00012770659063155059
0.005437496961618325,-0.0016006061592384834,-0.00012850757798294417
0.005334804288999792,-0.0015979130839258288,-0.00012930720779373526
0.005199106654914378,-0.0015952796061898503,-0.00013010550596626418
0.005027658913803007,-0.001592722914797671,-0.00013090250659651107
0.004818810430330362,-0.0015902612974616377,-0.0001316982526495759
0.00457215433870138,-0.0015879135562693798,-0.00013249279636300866
0.004288642164982254,-0.0015856983571434589,-0.00013328619934136187
0.0039706518972054995,-0.001583633533627912,-0.00013407853231405472
0.003621998809719451,-0.0015817353709511807,-0.00013486987454019948
0.0032478823793234053,-0.00158001790065392,-0.00013566031285810077
0.00285476835613431,-0.0015784922379700555,-0.00013644994039275677
0.002450210156036269,-0.0015771659933420128,-0.00013723885495058478
0.002042616956196065,-0.0015760427865639547,-0.00013802715714556128
0.0016409777014400832,-0.0015751218878995456,-0.00013881494831417715
0.0012545519104223209,-0.00157439800549658,-0.0001396023282875262
0.0008925406980686222,-0.0015738612323444572,-0.00014038939309698645
0.0005637545926865601,-0.0015734971585217685,-0.00014117623269470302
0.0002762967761691067,-0.0015732871456795546,-0.00014196292877075335
3.727971985978976e-05,-0.0015732087515555474,-0.00014274955274506214
-0.0001474097359509641,-0.0015732362840595701,-0.00014353616400396591
-0.00027328527858852,-0.001573341457813205,-0.0001443228084394341
-0.000337367606871501,-0.0015734941210345699,-0.00014510951733414604
-0.000338217731045535,-0.0015736630173690492,-0.00014589630661874695
-0.00027589713355243034,-0.0015738165460851988,-0.00014668317650961052
-0.0001518602889347725,-0.0015739234854408206,-0.00014747011151749201
3.121031447590635e-05,-0.0015739536479344354,-0.00014825708080083583
0.0002696135559300988,-0.001573878441966834,-0.00014904403882331113
0.0005588689853963484,-0.0015736713213315022,-0.00014983092626413573
0.0008939712433997815,-0.0015733081112743032,-0.00015061767112228716
0.0012696453143528463,-0.0015727672071348651,-0.00015140418995188945
0.001680589910103322,-0.001572029648328751,-0.00015219038916575536
0.002121698802452409,-0.0015710790761506123,-0.0001529761663468752
0.0025882522545442235,-0.0015699015883863631,-0.00015376141151300944
0.0030760717684910513,-0.0015684855073806042,-0.00015454600828695118
0.0035816317444271827,-0.0015668210815023747,-0.00015532983493417193
0.004102122904183416,-0.001564900142840222,-0.00015611276524025758
0.004635465016102458,-0.0015627157458601504,-0.00015689466921243268
0.005180269856137636,-0.0015602618121420904,-0.00015767541360193324
0.005735759016836424,-0.001557532804923847,-0.00015845486225619972
0.006301645257193312,-0.0015545234538553395,-0.00015923287632089452
0.0068779898236913965,-0.0015512285450851183,-0.00016000931432062963
0.007465049744904544,-0.0015476427851929694,-0.00016078403215319915
0.008063127655760203,-0.0015437607408428033,-0.0001615568830347081
0.008672433638125617,-0.0015395768505193318,-0.00016232771743254865
0.009292966041992628,-0.0015350855005993023,-0.00016309638302032832
0.009924417012639864,-0.0015302811548356442,-0.00016386272468418706
0.01056610749072728,-0.0015251585237098023,-0.00016462658460382343
0.011216954487196873,-0.0015197127582153211,-0.0001653878024243047
0.011875470289374978,-0.001513939652021178,-0.00016614621552686382
0.01253979007698155,-0.001507835836929589,-0.00016690165939910152
0.013207722622161576,-0.0015013989587548031,-0.00016765396809802262
0.013876818503383742,-0.0014946278234734167,-0.00016840297479357968
0.014544450332747745,-0.001487522506264384,-0.00016914851237601414
0.015207898740685328,-0.0014800844189960256,-0.00016989041410732923
0.015864436621411963,-0.0014723163351555012,-0.0001706285142958671
0.016511403703694874,-0.0014642223750742245,-0.00017136264897342452
0.017146264528766168,-0.0014558079580161093,-0.0001720926565566971
0.017766644896818843,-0.001447079730659713,-0.00017281837847886607
0.018370344321160935,-0.001438045483355218,-0.0001735396597823698
0.018955325444457535,-0.0014287140659138135,-0.00017425634966968705
0.019519685743140655,-0.001419095313116914,-0.00017496830201444474
0.020061620472671977,-0.0014091999865629608,-0.0001756753758393647
0.020579386912138776,-0.001399039734716758,-0.00017637743576968463
0.02107127856767847,-0.0013886270683468038,-0.00017707435247045052
0.021535614826720575,-0.001377975344998204,-0.00017776600307378677
0.021970747180940914,-0.0013670987544962888,-0.0001784522715986604
0.02237507914651957,-0.0013560122979144236,-0.00017913304936176307
0.022747095575256095,-0.0013447317542339796,-0.00017980823537480016
0.023085398312407357,-0.0013332736307620637,-0.00018047773672104917
0.023388746800077142,-0.0013216550944839425,-0.00018114146890236068
0.023656102104934722,-0.0013098938822576896,-0.0001817993561465461
0.023886671224889217,-0.0012980081889252335,-0.00018245133166434183
0.024079947384773835,-0.0012860165342728177,-0.00018309733784514133
0.024235742643692187,-0.0012739376117657012,-0.00018373732638165096
0.024354210905284543,-0.001261790123378457,-0.000184371258315437
0.02443586088060415,-0.0012495926054319848,-0.0001849991039976396
0.024481558983718704,-0.001237363250465904,-0.0001856208429616141
0.024492522068853634,-0.001225119730202761,-0.00018623646370678125
0.024470300015583483,-0.0012128790246816517,-0.00018684596339550236
0.02441674828462189,-0.0012006572626066005,-0.00018744934746732443
0.024333990566473916,-0.0011884695778938265,-0.00018804662917744954
0.02422437225535067,-0.0011763299871883704,-0.00018863782906872008
0.024090407303228912,-0.0011642512922987254,-0.00018922297438859185
0.0239347234384061,-0.0011522450096133167,-0.00018980209846406986
0.023760012368172663,-0.001140321325661672,-0.0001903752400478886
0.023568991195077323,-0.0011284890747708595,-0.00019094244264799675
0.023364378550646415,-0.0011167557323344287,-0.00019150375384977306
0.02314888495710868,-0.0011051274164574898,-0.00019205922463697104
0.022925213531364202,-0.0010936088918353716,-0.00019260890871404426
0.022696065491228344,-0.0010822035720797236,-0.00019315286183002305
0.02246414477128639,-0.0010709135195140949,-0.00019369114110292151
0.02223215665734905,-0.001059739444156936,-0.00019422380434383927
0.022002796491206875,-0.001048680705869797,-0.00019475090938134596
0.021778726358716843,-0.0010377353251573161,-0.00019527251338910274
0.02156253971985201,-0.001026900008637674,-0.00019578867222255148
0.021356714881079496,-0.0010161701949874412,-0.00019629943977345776
0.021163557875785062,-0.001005540126798225,-0.0001968048673539042
0.0209851354436624,-0.0009950029534683631,-0.00019730500312397083
0.02082320076862456,-0.0009845508694152913,-0.00019779989157969174
0.020679117423753605,-0.0009741752898671967,-0.00019828957311951236
0.02055378847248992,-0.0009638670633931359,-0.00019877408370782746
