acceleration,velocity,displacement
-0.02959732412528371,0.0,0.0
-0.030219142874127185,-1.4954116749852725e-05,-3.738529187463181e-09
-0.03083984588775547,-3.021886394032339e-05,-1.503177436000721e-08
-0.03145832083419734,-4.57934056208116e-05,-3.403484175029096e-08
-0.03207346196223954,-6.167635131992081e-05,-6.090228098547406e-08
-0.032684172846327714,-7.786576002206262e-05,-9.57878088209699e-08
-0.03328936852775908,-9.435914536558431e-05,-1.3884403516788163e-07
-0.03388797693645647,-0.0001111534817316382,-1.9022219194218725e-07
-0.03447893955250509,-0.0001282452108538786,-2.5007186508856646e-07
-0.03506121134924939,-0.00014563024857931723,-3.185407299468654e-07
-0.035633760129673835,-0.00016330399144904803,-3.957742899539567e-07
-0.036195565414119814,-0.00018126132283499645,-4.819156185249678e-07
-0.03674561706905618,-0.00019949661845579045,-5.771051038476646e-07
-0.037282913891412174,-0.00021800375119590754,-6.814801962605891e-07
-0.03780646236743246,-0.00023677609526061869,-7.951751578747206e-07
-0.03831527578994109,-0.00025580652979996206,-9.183208141398658e-07
-0.03880837385057387,-0.0002750874422100908,-1.051044307142379e-06
-0.039284782757304376,-0.0002946107313620604,-1.1934688505354167e-06
-0.03974353589089971,-0.0003143678110241114,-1.3457134861319596e-06
-0.04018367500860514,-0.0003343496137489876,-1.5078928423252343e-06
-0.04060425201109183,-0.0003545465955039119,-1.6801168946384592e-06
-0.041004331287645385,-0.00037494874132859617,-1.8624907288465863e-06
-0.04138299263526569,-0.0003955455723093239,-2.0551143072560665e-06
-0.04173933472041468,-0.00041632615414824404,-2.2580822388704583e-06
-0.04207247903506569,-0.00043727910758711413,-2.4714835543042977e-06
-0.0423815742917197,-0.00045839262091881047,-2.6954014864307787e-06
-0.04266580119282668,-0.0004796544647899471,-2.929913257857968e-06
-0.04292437749737101,-0.0005010520094624965,-3.1750898764210787e-06
-0.04315656330529637,-0.0005225722446631633,-3.4309959399524937e-06
-0.04336166649761505,-0.0005442018021138912,-3.6976894516467572e-06
-0.04353904829810443,-0.0005659269808128211,-3.975221647378436e-06
-0.04368812894562815,-0.0005877337751237542,-4.26363683636258e-06
-0.04380839347427117,-0.0006096079057287291,-4.562972256575701e-06
-0.043899397586929505,-0.0006315348534940293,-4.87325794638139e-06
-0.04396077357331803,-0.0006534998962840911,-5.19451663382592e-06
-0.043992236170974475,-0.0006754881487201642,-5.526763645076984e-06
-0.043993588216232254,-0.0006974846048169659,-5.8700068334612664e-06
-0.04396472590336684,-0.0007194741833468657,-6.224246530502224e-06
-0.04390564347446065,-0.0007414417756913226,-6.589475520261772e-06
-0.04381643719271362,-0.0007633722958581162,-6.965679038149132e-06
-0.04369730849030366,-0.0007852507322788705,-7.352834795183379e-06
-0.0435485662124736,-0.0008070622009545648,-7.750913028491738e-06
-0.04337062789333913,-0.000828791999481018,-8.159876578600634e-06
-0.04316401999505067,-0.0008504256614531154,-8.579680993834168e-06
-0.042929377030607875,-0.0008719490107095301,-9.01027466187483e-06
-0.04266743948982507,-0.0008933482148396383,-9.451598968262121e-06
-0.04237905050798804,-0.0009146098373390917,-9.903588481306804e-06
-0.04206515125185345,-0.000935720887779052,-1.0366171162586341e-05
-0.04172677503601747,-0.0009566688693510197,-1.0839268601868858e-05
-0.04136504021713859,-0.0009774418231643088,-1.132279627499769e-05
-0.0409811419389856,-0.0009980283687033398,-1.1816663822964601e-05
-0.04057634281239782,-0.0010184177398911856,-1.2320775350113233e-05
-0.04015196261492613,-0.0010385998162480165,-1.2835029739148034e-05
-0.039709367103651035,-0.0010585651486776607,-1.3359320980379453e-05
-0.03924995606499949,-0.0010783049794698234,-1.3893538512416324e-05
-0.03877515076832027,-0.0010978112561781533,-1.4437567571328319e-05
-0.038286381027145155,-0.0011170766391270196,-1.4991289545154613e-05
-0.03778507209727586,-0.001136094502408125,-1.5554582330538398e-05
-0.03727263165621423,-0.0011548589283464975,-1.6127320688227055e-05
-0.036750437111361445,-0.0011733646955383913,-1.670937659419828e-05
-0.03621982347168916,-0.0011916072606841539,-1.7300619583253915e-05
-0.035682071992483785,-0.001209582734550197,-1.7900917082062503e-05
-0.03513839977155665,-0.001227287852491207,-1.8510134728822856e-05
-0.03458995044147914,-0.001244719940044466,-1.9128136676956774e-05
-0.034037786067311934,-0.0012618768741716638,-1.9754785880510808e-05
-0.03348288032315912,-0.0012787570407692816,-2.0389944359246046e-05
-0.03292611298391136,-0.0012953592890960492,-2.103347344171238e-05
-0.03236826573364157,-0.0013116828837754374,-2.168523398493025e-05
-0.03181001926911722,-0.0013277274550261271,-2.2345086569630642e-05
-0.03125195167565552,-0.0013434929477623204,-2.3012891670327753e-05
-0.03069453806811377,-0.0013589795701982627,-2.3688509799817897e-05
-0.030138151502265335,-0.0013741877425908575,-2.4371801628015176e-05
-0.029583065157699682,-0.0013891180467558487,-2.5062628075351854e-05
-0.029029455777150086,-0.001403771176989561,-2.5760850381288208e-05
-0.02847740832650668,-0.0014181478930154752,-2.6466330148789465e-05
-0.027926921815943834,-0.0014322489755510877,-2.7178929365931106e-05
-0.027377916200550547,-0.0014460751850552114,-2.789851040608268e-05
-0.026830240267862467,-0.0014596272241723146,-2.8624936008389563e-05
-0.026283680419174674,-0.001472905704344074,-2.935806924051866e-05
-0.025737970248910245,-0.0014859111170110952,-3.009777344585745e-05
-0.025192800810971767,-0.0014986438097760657,-3.084391217755424e-05
-0.02464783143195277,-0.0015111039678367968,-3.159634912195745e-05
-0.024102700895988875,-0.0015232916009187822,-3.235494801414635e-05
-0.023557038794345567,-0.0015352065358413658,-3.3119572548336384e-05
-0.02301047681206144,-0.0015468484147429676,-3.3890086285982464e-05
-0.022462659719922826,-0.0015582166988759637,-3.46663525643872e-05
-0.02191325585511028,-0.001569310677769722,-3.544823440854862e-05
-0.021361966903184957,-0.0015801294834592958,-3.623559444885587e-05
-0.02080853682896059,-0.0015906721093923322,-3.7028294847068776e-05
-0.020252759835323424,-0.0016009374335584031,-3.782619723280646e-05
-0.01969448724977818,-0.0016109242453296786,-3.862916265252848e-05
-0.019133633250655566,-0.001620631275454787,-3.9437051532724596e-05
-0.01857017935980619,-0.0016300572286074024,-4.0249723658740144e-05
-0.018004177652591487,-0.001639200817860502,-4.106703817035712e-05
-0.017435752660839847,-0.0016480608004388597,-4.188885357493196e-05
-0.016865101955781194,-0.001656636014093015,-4.2715027778564923e-05
-0.016292495391719907,-0.0016649254134298902,-4.354541813544565e-05
-0.01571827298600151,-0.0016729281055243206,-4.43798815151842e-05
-0.015142841436166515,-0.0016806433841298626,-4.5218274387597746e-05
-0.014566669339789331,-0.0016880707618238515,-4.606045292408617e-05
-0.013990281263954801,-0.0016952099994747875,-4.690627311441083e-05
-0.013414250879019436,-0.0017020611325105311,-4.7755590897407155e-05
-0.012839193406831923,-0.001708624493581994,-4.8608262303930285e-05
-0.012265757632515677,-0.001714900731341831,-4.946414361016124e-05
-0.011694617700354177,-0.0017208908251750484,-5.032309149929046e-05
-0.011126464877604896,-0.0017265960958195382,-5.11849632295391e-05
-0.010561999438028328,-0.0017320182118984466,-5.20496168064686e-05
-0.010001922787389978,-0.001737159192454801,-5.2916911157556915e-05
-0.009446929922611156,-0.0017420214056323012,-5.378670630707869e-05
-0.008897702289232767,-0.0017466075636852622,-5.465886354940808e-05
-0.008354901084480483,-0.0017509207145286905,-5.553324561896157e-05
-0.007819161044724039,-0.0017549642300609917,-5.640971685510899e-05
-0.007291084748812038,-0.0017587417915093757,-5.728814336050158e-05
-0.006771237455901935,-0.0017622573720605542,-5.8168393151394066e-05
-0.006260142481498724,-0.0017655152170449042,-5.905033629867043e-05
-0.005758277108715971,-0.001768519821942458,-5.993384505841727e-05
-0.0052660690377608005,-0.0017712759084790772,-6.0818793991022655e-05
-0.004783893387230279,-0.001773788399085325,-6.170506006791376e-05
-0.004312070263059764,-0.0017760623899978976,-6.259252276518456e-05
-0.003850862899867289,-0.0017781031232886294,-6.348106414350619e-05
-0.0034004763637972284,-0.0017799159581045455,-6.437056891385448e-05
-0.002961056800963227,-0.0017815063413957357,-6.526092448872956e-05
-0.002532691229162543,-0.0017828797784032672,-6.615202101867931e-05
-0.0021154078980350696,-0.0017840418031850665,-6.704375141407639e-05
-0.0017091772718078803,-0.0017849979494775272,-6.793601135224204e-05
-0.0013139137067561934,-0.001785753722222168,-6.882869927016697e-05
-0.0009294778983120649,-0.0017863145701234352,-6.972171634325337e-05
-0.0005556801660475855,-0.0017866858596395252,-7.061496645069412e-05
-0.00019228463444797417,-0.001786872850839649,-7.150835612831391e-05
0.00016098565324652224,-0.0017868806755849493,-7.240179450992007e-05
0.0005044426954853956,-0.0017867143184977664,-7.329519325844074e-05
0.0008384266441484444,-0.001786378601162858,-7.41884664883559e-05
0.0011632982205561626,-0.0017858781699466818,-7.508153068113328e-05
0.0014794306474198824,-0.0017852174877296878,-7.597430459555237e-05
0.001787201336363069,-0.001784400829733742,-7.686670917491823e-05
0.0020869835660642013,-0.001783432283508135,-7.77586674532287e-05
0.002379138357616264,-0.001782315753027215,-7.865010446236253e-05
0.0026640067180318623,-0.001781054966758303,-7.954094714230892e-05
0.0029419023915412206,-0.0017796534894809098,-8.043112425636872e-05
0.0032131052310929932,-0.0017781147375752512,-8.132056631313276e-05
0.0034778552795400736,-0.001776441997447593,-8.220920549688847e-05
0.003736347643024326,-0.0017746384467169519,-8.30969756079296e-05
0.003988728252076197,-0.0017727071777431768,-8.398381201404463e-05
0.004235090619427418,-0.001770651223025301,-8.486965161423675e-05
0.0044754736922494745,-0.0017684735819473818,-8.575443281547991e-05
0.00470986085725463,-0.0017661772483100057,-8.663809552304426e-05
0.00493818010501032,-0.0017637652380694394,-8.752058114463913e-05
0.005160305309544497,-0.0017612406167158007,-8.840183260833544e-05
0.005376058540447474,-0.0017586065257533027,-8.92817943939527e-05
0.005585213308065438,-0.0017558662077911745,-9.016041257733882e-05
0.0057874986503735045,-0.0017530230298015647,-9.1037634886737e-05
0.0059826039836166885,-0.0017500805041430671,-9.191341077022316e-05
0.006170184627559792,-0.001747042306990273,-9.278769147300649e-05
0.006349867870959824,-0.001743912293865643,-9.366043012322047e-05
0.006521259390309962,-0.0017406945120503256,-9.453158182469946e-05
0.0066839498101150165,-0.0017373932097502194,-9.540110375514959e-05
0.006837521203307825,-0.0017340128419968638,-9.626895526808636e-05
0.006981553359173245,-0.0017305580733562435,-9.713509799692463e-05
0.0071156296786370294,-0.001727033777596791,-9.799949595966289e-05
0.007239342590144028,-0.0017234450345295956,-9.886211566269449e-05
0.007352298414532946,-0.0017197971242784264,-9.97229262023965e-05
0.007454121645714304,-0.0017160955192633647,-0.00010058189936328195
0.007544458656033004,-0.0017123458741879279,-0.00010143900971164477
0.007622980875567489,-0.0017085540143050278,-0.000102294234683768
0.007689387522812112,-0.001704725922205433,-0.00010314755466789562
0.007743407974791943,-0.001700867723331032,-0.00010399895307927974
0.007784803861912146,-0.001696985670371856,-0.00010484841642770547
0.007813370962538778,-0.0016930861266657431,-0.00010569593437696486
0.007828940954805684,-0.001689175548686407,-0.0001065414997958029
0.007831383060064966,-0.0016852604676826895,-0.00010738510879989518
0.007820605592224,-0.0016813474705196173,-0.00010822676078444575
0.007796557418627732,-0.0016774431797669043,-0.00010906645844701738
0.007759229340948503,-0.0016735542330770102,-0.00010990420780022837
0.0077086554104940095,-0.0016696872618891497,-0.00011074001817396991
0.007644914193996548,-0.001665848869488027,-0.0001115739022068142
0.007568129999789419,-0.0016620456084395806,-0.00011240587582629611
0.007478474057995229,-0.0016582839574251344,-0.0001132359582177623
0.007376165622459591,-0.0016545702975050206,-0.00011406417178149483
0.007261472937437111,-0.0016509108878650465,-0.00011489054207783735
0.007134714006931171,-0.0016473118411289543,-0.00011571509776008585
0.006996257127349088,-0.0016437790983453843,-0.00011653787049495442
0.0068465211841494756,-0.0016403184037675096,-0.00011735889487048264
0.006685975750481808,-0.0016369352795338517,-0.00011817820829130798
0.006515141046329623,-0.0016336350003346488,-0.00011899585086127511
0.006334587817115496,-0.0016304225681187876,-0.00011981186525338846
0.006144937177839707,-0.0016273026868700486,-0.00012062629656713567
0.005946860455249323,-0.0016242797374617763,-0.00012143919217321862
0.0057410790547033725,-0.0016213577525842882,-0.00012225060154573013
0.0055283643749103415,-0.0016185403917268848,-0.0001230605760818079
0.005309537779481926,-0.0016158309161882867,-0.0001238691689087867
0.005085470603835746,-0.0016132321640924573,-0.0001246764346788569
0.0048570841391459285,-0.001610746525406712,-0.00012548242935123168
0.00462534950919039,-0.0016083759169946278,-0.000126287209961832
0.004391287350725424,-0.0016061217577796488,-0.0001270908343805256
0.0041559672152349765,-0.0016039849441381586,-0.00012789336105600504
0.003920506616722367,-0.0016019658256801693,-0.00012869484874845961
0.003686069654707816,-0.0016000641816123118,-0.00012949535625028272
0.003453865146851457,-0.0015982791979119219,-0.00013029494209516377
0.0032251442061108416,-0.0015966094455736814,-0.00013109366425603517
0.00300119718665252,-0.0015950528602254905,-0.00013189157983248498
0.002783349904898146,-0.0015936067234526027,-0.00013268874472840452
0.002572959027030091,-0.0015922676462196206,-0.00013348521332082257
0.0023714065113668,-0.0015910315548350214,-0.00013428103812108624
0.002180093015541839,-0.0015898936799532942,-0.0001350762694297833
0.002000430231613227,-0.0015888485491415054,-0.000135870954987057
0.0018338321842629795,-0.0015878899835375365,-0.00013666513962022676
0.00168170559183012,-0.0015870110990935133,-0.00013745886489088452
0.0015454394324205779,-0.0015862043128374505,-0.00013825216874386727
0.001426393883248469,-0.0015854613545085332,-0.00013904508516070376
0.0013258888247346021,-0.0015847732838315375,-0.00013983764382028877
0.0012451921327841344,-0.0015841305135921577,-0.0001406298697696447
0.0011855080206286787,-0.0015835228385538045,-0.00014142178310768119
0.0011479657157944336,-0.0015829394701196988,-0.00014221339868484957
0.0011336087501051565,-0.0015823690765032238,-0.0001430047258215053
0.0011433851060664683,-0.001581799828039181,-0.0001437957680476409
0.0011781384211821196,-0.0015812194471573687,-0.00014458652286644005
0.0012386004119890864,-0.0015806152624490758,-0.00014537698154384166
0.0013253846340980928,-0.001579974266187554,-0.00014616712892600081
0.0014389816346381268,-0.00157928317462037,-0.0001469569432862028
0.0015797554857127291,-0.0015785284903402823,-0.00014774639620244296
0.0017479416283012533,-0.0015776965660617788,-0.00014853545246654347
0.0019436459156632162,-0.0015767736691757878,-0.00014932407002535286
0.0021668447225072366,-0.0015757460465162451,-0.00015011219995427586
0.002417385975274042,-0.0015745999888417998,-0.00015089978646311538
0.0026949909576527856,-0.0015733218946085681,-0.00015168676693397797
0.00299925675635585,-0.001571898332680066,-0.00015247307199080012
0.003329659234015036,-0.0015703161036824732,-0.00015325862559989077
0.003685556436087254,-0.0015685622997649476,-0.00015404334520075261
0.004066192344763223,-0.001566624362569735,-0.0001548271418663363
0.004470700891608933,-0.001564490139260642,-0.0001556099204917939
0.004898110149782788,-0.001562147936500294,-0.00015639158001073413
0.005347346652458949,-0.0015595865722997336,-0.00015717201363793414
0.005817239818387511,-0.0015567954256820219,-0.0001579511091374296
0.006306526503444419,-0.001553764484101564,-0.00015872874911487548
0.006813855739857986,-0.0015504843885407384,-0.00015950481133303606
0.007337793764134293,-0.0015469464761647402,-0.00016027916904921241
0.007876829449829348,-0.0015431428203612494,-0.0001610516913733439
0.008429380242513303,-0.0015390662679381638,-0.00016182224364541875
0.0089937986572965,-0.0015347104732132113,-0.0001625906878307066
0.00956837936879044,-0.0015300699287066897,-0.00016335688293118658
0.01015136690760794,-0.0015251399921375902,-0.00016412068541139764
0.010740963965134211,-0.0015199169094194046,-0.00016488194963678687
0.011335340284717403,-0.0015143978333569418,-0.00016564052832248097
0.011932642080655892,-0.0015085808377655985,-0.0001663962729902616
0.012531001889454113,-0.001502464926773071,-0.00016714903443139627
0.013128548736673178,-0.0014960500391165393,-0.00016789866317286868
0.013723418499514806,-0.0014893370473074922,-0.0001686450099444747
0.014313764345903712,-0.0014823277515961376,-0.0001693879261442006
0.01489776712233777,-0.0014750248687290773,-0.0001701272642992819
0.015473645549160487,-0.0014674320155612028,-0.00017086287852035448
0.016039666077647865,-0.0014595536876545008,-0.0001715946249461584
0.01659415227586785,-0.0014513952330661218,-0.00017232236217633854
0.017135493634088523,-0.0014429628215886327,-0.00017304595169000223
0.017662153710318842,-0.0014342634097525308,-0.00017376525824783752
0.018172677577337034,-0.0014253047019306168,-0.0001744801502757583
0.018665698584498413,-0.001416095107890158,-0.0001751905002282135
0.01913994449147571,-0.0014066436971211644,-0.0001758961849294663
0.019594243046654383,-0.0013969601502366318,-0.00017659708589130575
0.020027527070451936,-0.0013870547077073552,-0.00017729308960579175
0.020438839071596025,-0.001376938116171843,-0.00017798408781176156
0.02082733537882089,-0.0013666215725592389,-0.00017866997773394432
0.021192289729447915,-0.0013561166662821717,-0.00017935066229365467
0.021533096244550194,-0.0013454353197886722,-0.00018002605029017238
0.021849271739375946,-0.0013345897277926907,-0.0001806960565520677
0.022140457341291914,-0.0013235922955225237,-0.00018136060205789652
0.022406419391167966,-0.0013124555763394088,-0.000182019614025862
0.022647049590934765,-0.0013011922090938831,-0.00018267302597222034
0.022862364352349243,-0.001289814855608062,-0.00018332077773839582
0.023052503314295873,-0.0012783361386914007,-0.00018396281548697067
0.02321772702133235,-0.0012667685811074937,-0.0001845990916669204
0.023358413777989293,-0.0012551245459076633,-0.00018522956494867418
0.023475055703451587,-0.001243416178537303,-0.00018585420012978544
0.023568254015457764,-0.0012316553511075756,-0.00018647296801219666
0.02363871357823135,-0.0012198536092091533,-0.00018708584525227583
0.023687236755171377,-0.0012080221216258025,-0.00018769281418498456
0.023714716611325213,-0.0011961716332841783,-0.00018829386262371207
0.023722129521537585,-0.0011843124217509626,-0.00018888898363747086
0.023710527264404105,-0.0011724542575544772,-0.00018947817530729722
0.023681028712783502,-0.0011606063685601802,-0.0001900614404638259
0.023634811252841885,-0.0011487774085687738,-0.00019063878640810812
0.02357310206139018,-0.0011369754302402158,-0.00019121022461781036
0.0234971693419989,-0.0011252078623893685,-0.00019177577044096776
0.0234083135762492,-0.0011134814916598065,-0.00019233544277948007
0.023307858808587375,-0.0011018024485635973,-0.00019288926376453592
0.023197143964523655,-0.0010901761978703195,-0.0001934372584261444
0.023077514199685904,-0.0010786075333292671,-0.0001939794543589443
0.022950312283022505,-0.00106710057670859,-0.00019451588138645376
0.022816870028831867,-0.0010556587811306264,-0.00019504657122591356
0.022678499811307404,-0.0010442849386705917,-0.00019557155715586386
0.022536486215973556,-0.0010329811921637715,-0.00019609087368857245
0.022392077890056497,-0.001021749051137264,-0.00019660455624939772
0.022246479646671247,-0.0010105894117530823,-0.0001971126408651203
0.02210084487536997,-0.000999502580622572,-0.0001976151638632142
0.021956268329884995,-0.0009884883023212581,-0.00019811216158395015
0.021813779391157362,-0.0009775457903909975,-0.0001986036701071282
