frame_number,force
0,729.3796389993831
1,729.3368516550613
2,729.294144312144
3,729.2515967920532
4,729.2092885581303
5,729.1672985411639
6,729.1257049700772
7,729.0845852089504
8,729.0440156010761
9,729.0040713202252
10,728.9648262288487
11,728.926352742643
12,728.8887217006966
13,728.8520022402679
14,728.8162616752053
15,728.7815653772244
16,728.747976659667
17,728.715556663765
18,728.6843642476495
19,728.6544558783537
20,728.6258855269965
21,728.598704567313
22,728.5729616778034
23,728.5487027479139
24,728.5259707887469
25,728.5048058488179
26,728.4852449354087
27,728.4673219421178
28,728.4510675831975
29,728.4365093351275
30,728.4236713856702
31,728.4125745904824
32,728.4032364372724
33,728.3956710175348
34,728.3898890060871
35,728.3858976489277
36,728.3837007602292
37,728.3832987294358
38,728.3846885393717
39,728.387863796057
40,728.3928147706486
41,728.3995284537132
42,728.4079886219222
43,728.4181759172601
44,728.4300679388843
45,728.4436393477607
46,728.4588619840484
47,728.4757049969743
48,728.4941349866764
49,728.5141161572692
50,728.5356104802055
51,728.5585778669372
52,728.5829763498638
53,728.6087622704964
54,728.6358904735744
55,728.6643145056019
56,728.6939868160439
57,728.7248589592652
58,728.7568817952109
59,728.7900056868175
60,728.8241806922385
61,728.8593567501396
62,728.895483856536
63,728.9325122318763
64,728.9703924773172
65,729.0090757193874
66,729.0485137424963
67,729.0886591089869
68,729.1294652666081
69,729.1708866433145
70,729.2128787292368
71,729.2553981456169
72,729.2984027005568
73,729.3418514315636
74,729.3857046350342
75,729.4299238830017
76,729.4744720276329
77,729.5193131940671
78,729.5644127622122
79,729.6097373381633
80,729.6552547160248
81,729.700933831129
82,729.7467447058816
83,729.7926583896897
84,729.8386468945728
85,729.8846831281031
86,729.9307408252411
87,729.97679448046
88,730.0228192813479
89,730.068791044686
90,730.1146861558793
91,730.1604815125467
92,730.2061544729871
93,730.2516828100933
94,730.2970446711253
95,730.3422185436885
96,730.3871832282961
97,730.4319178179279
98,730.4764016848362
99,730.5206144744317
100,730.564536105574
101,730.608146776154
102,730.6514269726256
103,730.6943574821478
104,730.736919406166
105,730.7790941744869
106,730.820863559093
107,730.862209687123
108,730.903115052626
109,730.9435625268625
110,730.983535367021
111,731.0230172232729
112,731.061992144119
113,731.1004445800603
114,731.1383593857086
115,731.1757218204899
116,731.2125175480483
117,731.2487326343813
118,731.2843535447261
119,731.319367139269
120,731.3537606678494
121,731.3875217638472
122,731.4206384373585
123,731.4530990675794
124,731.4848923941273
125,731.5160075069113
126,731.5464338341361
127,731.5761611280594
128,731.6051794481725
129,731.6334791416012
130,731.6610508207903
131,731.6878853389588
132,731.7139737642856
133,731.739307354136
134,731.7638775308061
135,731.7876758602156
136,731.81069403479
137,731.8329238615316
138,731.8543572560669
139,731.8749862432705
140,731.8948029649057
141,731.9137996946595
142,731.9319688610168
143,731.9493030784827
144,731.9657951875776
145,731.9814383037623
146,731.9962258751057
147,732.0101517481794
148,732.0232102413972
149,732.0353962249026
150,732.0467052061384
151,732.0571334203104
152,732.0666779248655
153,732.0753366968161
154,732.0831087313958
155,732.0899941403751
156,732.0959942484149
157,732.1011116860166
158,732.1053504778288
159,732.1087161252742
160,732.1112156826878
161,732.1128578263958
162,732.1136529164372
163,732.1136130508871
164,732.1127521129306
165,732.1110858109098
166,732.1086317115639
167,732.1054092666321
168,732.1014398328981
169,732.0967466856249
170,732.0913550252271
171,732.0852919769942
172,732.0785865837216
173,732.0712697911697
174,732.0633744263126
175,732.0549351683244
176,732.0459885121845
177,732.0365727246499
178,732.0267277922209
179,732.0164953607315
180,732.0059186663724
181,731.9950424582399
182,731.9839129127793
183,731.9725775406531
184,731.9610850866085
185,731.9494854228672
186,731.9378294365197
187,731.9261689114
188,731.9145564049312
189,731.9030451203773
190,731.8916887747819
191,731.8805414626656
192,731.8696575154332
193,731.8590913564279
194,731.8488973516485
195,731.8391296562074
196,731.8298420566637
197,731.821087809412
198,731.8129194753327
199,731.805388750854
200,731.7985462954761
201,731.7924415557206
202,731.787122585458
203,731.7826358626982
204,731.7790261032688
205,731.7763360722449
206,731.7746063943987
207,731.77387536519
208,731.7741787639662
209,731.7755496711679
210,731.7780182915135
211,731.7816117853528
212,731.7863541104991
213,731.7922658767692
214,731.7993642152098
215,731.8076626636877
216,731.8171710702276
217,731.8278955151575
218,731.8398382526949
219,731.8529976721355
220,731.8673682783838
221,731.8829406912622
222,731.8997016628367
223,731.917634111879
224,731.9367171745201
225,731.9569262701684
226,731.9782331818451
227,732.0006061501631
228,732.0240099801632
229,732.0484061601564
230,732.0737529917299
231,732.100005730186
232,732.1271167348535
233,732.1550356288977
234,732.1837094684884
235,732.2130829213853
236,732.2430984550615
237,732.2736965343288
238,732.3048158281676
239,732.3363934252427
240,732.3683650574619
241,732.40066533084
242,732.4332279627574
243,732.4659860244691
244,732.4988721874684
245,732.5318189721805
246,732.5647589974368
247,732.5976252291886
248,732.6303512268752
249,732.6628713857883
250,732.6951211737598
251,732.727037360605
252,732.7585582389235
253,732.7896238350768
254,732.8201761094485
255,732.8501591454556
256,732.8795193270912
257,732.9082055049201
258,732.9361691504109
259,732.9633644983352
260,732.9897486767234
261,733.0152818236614
262,733.0399271901891
263,733.0636512287305
264,733.0864236666935
265,733.1082175649506
266,733.129009360885
267,733.1487788956913
268,733.1675094257524
269,733.1851876181308
270,733.201803530393
271,733.2173505751106
272,733.2318254694528
273,733.2452281703695
274,733.2575617959471
275,733.2688325335943
276,733.2790495358149
277,733.2882248045227
278,733.2963730650739
279,733.3035116313615
280,733.3096602633273
281,733.3148410180873
282,733.3190780956132
283,733.3223976796812
284,733.3248277747066
285,733.3263980390672
286,733.3271396155669
287,733.3270849597577
288,733.3262676669591
289,733.3247222989363
290,733.322484211236
291,733.3195893821195
292,733.3160742440028
293,733.3119755184052
294,733.3073300555585
295,733.3021746798797
296,733.2965460424292
297,733.2904804813555
298,733.2840138912281
299,733.2771816020589
300,733.2700182686591
301,733.2625577707456
302,733.2548331238875
303,733.246876400984
304,733.238718663633
305,733.2303899026218
306,733.2219189868895
307,733.2133336205903
308,733.2046603081579
309,733.1959243273594
310,733.187149710244
311,733.1783592317182
312,733.1695744053167
313,733.1608154855779
314,733.1521014763124
315,733.1434501440089
316,733.1348780357259
317,733.1264005009822
318,733.1180317172647
319,733.1097847187756
320,733.1016714280346
321,733.0937026900646
322,733.0858883091298
323,733.0782370882293
324,733.070756871638
325,733.0634545906807
326,733.05633631273
327,733.0494072932432
328,733.0426720305302
329,733.036134322782
330,733.0297973267031
331,733.0236636168484
332,733.0177352445274
333,733.0120137949838
334,733.0065004415791
335,733.0011959959527
336,732.9961009534424
337,732.991215533251
338,732.9865397128032
339,732.9820732555736
340,732.9778157315491
341,732.9737665295075
342,732.9699248604329
343,732.9662897515483
344,732.9628600305767
345,732.9596342999529
346,732.9566109009336
347,732.9537878679399
348,732.9511628739083
349,732.9487331678175
350,732.946495505864
351,732.9444460779777
352,732.9425804314916
353,732.9408933937116
354,732.9393789948728
355,732.9380303926313
356,732.936839798994
357,732.9357984105048
358,732.9348963425581
359,732.9341225688217
360,732.9334648668143
361,732.9329097705972
362,732.932442531324
363,732.932047086131
364,732.931706035672
365,732.9314006305776
366,732.9311107672677
367,732.9308149937689
368,732.9304905263036
369,732.9301132773837
370,732.9296578960542
371,732.9290978209107
372,732.9284053465494
373,732.9275517040986
374,732.926507156337
375,732.9252411076379
376,732.9237222286037
377,732.9219185948186
378,732.9197978386467
379,732.9173273124569
380,732.9144742611273
381,732.9112060012526
382,732.907490104316
383,732.9032945811844
384,732.8985880655036
385,732.8933399937729
386,732.8875207800172
387,732.8811019831608
388,732.8740564654236
389,732.8663585402591
390,732.8579841084646
391,732.84891078122
392,732.8391179890453
393,732.8285870761185
394,732.8173013799836
395,732.805246297276
396,732.792409336513
397,732.7787801592232
398,732.7643506107203
399,732.7491147417196
400,732.7330688217936
401,732.7162113454394
402,732.6985430313684
403,732.6800668155092
404,732.6607878380925
405,732.6407134250649
406,732.6198530639997
407,732.598218374597
408,732.5758230737534
409,732.5526829350663
410,732.5288157426487
411,732.5042412393408
412,732.4789810696864
413,732.4530587182461
414,732.4264994438236
415,732.3993302100301
416,732.3715796124411
417,732.343277802504
418,732.31445640841
419,732.2851484532955
420,732.2553882712328
421,732.2252114213749
422,732.1946546003352
423,732.1637555525908
424,732.1325529785636
425,732.1010864400743
426,732.0693962630016
427,732.0375234370747
428,732.0055095127638
429,731.973396495286
430,731.9412267359021
431,731.9090428209275
432,731.876887459126
433,731.8448033683511
434,731.8128331624073
435,731.7810192390655
436,731.749403669979
437,731.7180280930054
438,731.6869336072602
439,731.6561606711688
440,731.6257490037985
441,731.5957374897018
442,731.566164087286
443,731.5370657404483
444,731.5084782930028
445,731.4804364053927
446,731.4529734732502
447,731.426121547421
448,731.3999112550883
449,731.374371721667
450,731.3495304932395
451,731.3254134594362
452,731.3020447768058
453,731.2794467929333
454,731.257639971845
455,731.2366428215677
456,731.2164718249244
457,731.1971413747248
458,731.178663714467
459,731.1610488855512
460,731.1443046818212
461,731.128436612048
462,731.1134478707794
463,731.0993393178145
464,731.0861094664309
465,731.0737544804011
466,731.0622681798112
467,731.0516420557688
468,731.0418652942001
469,731.0329248089896
470,731.0248052846028
471,731.0174892280929
472,731.0109570301883
473,731.005187035139
474,731.000155619121
475,730.9958372771198
476,730.9922047182195
477,730.9892289690947
478,730.9868794853184
479,730.9851242698986
480,730.9839299982937
481,730.9832621489444
482,730.9830851381224
483,730.9833624577295
484,730.9840568147677
485,730.9851302715481
486,730.9865443861412
487,730.9882603528787
488,730.990239142817
489,730.9924416439961
490,730.9948288012029
491,730.9973617548592
492,731.0000019786169
493,731.0027114152301
494,731.0054526103039
495,731.0081888435315
496,731.0108842570082
497,731.0135039801494
498,731.0160142506699
499,731.0183825310152
500,731.0205776195241
501,731.0225697555378
502,731.0243307177083
503,731.0258339149134
504,731.0270544693929
505,731.0279692919298
506,731.0285571490738
507,731.028798722493
508,731.0286766605634
509,731.0281756222425
510,731.0272823131579
511,731.0259855136793
512,731.0242760986362
513,731.0221470483334
514,731.0195934506278
515,731.0166124939719
516,731.0132034514255
517,731.0093676556507
518,731.0051084649309
519,731.0004312203436
520,730.9953431943501
521,730.98985353112
522,730.9839731788777
523,730.9777148145221
524,730.9710927607997
525,730.9641228964014
526,730.9568225594278
527,730.9492104446424
528,730.9413064947894
529,730.933131786093
530,730.9247084079759
531,730.9160593371272
532,730.9072083062678
533,730.8981796681692
534,730.8889982555625
535,730.879689237535
536,730.8702779729225
537,730.860789861143
538,730.8512501908912
539,730.8416839871146
540,730.832115856739
541,730.8225698337311
542,730.8130692242897
543,730.8036364532056
544,730.7942929126605
545,730.7850588149324
546,730.7759530506374
547,730.7669930542296
548,730.7581946784745
549,730.7495720794869
550,730.7411376137017
551,730.7329017478818
552,730.7248729830696
553,730.7170577933616
554,730.7094605804782
555,730.7020836450924
556,730.6949271756237
557,730.6879892547599
558,730.6812658835067
559,730.6747510222139
560,730.6684366478447
561,730.6623128266747
562,730.6563678015473
563,730.6505880926669
564,730.6449586106702
565,730.6394627805305
566,730.6340826748672
567,730.6287991554807
568,730.623592022352
569,730.6184401697949
570,730.6133217497849
571,730.6082143425641
572,730.603095134405
573,730.5979411020551
574,730.5927292029969
575,730.5874365703102
576,730.5820407106717
577,730.5765197038868
578,730.570852402298
579,730.5650186284182
580,730.5589993692042
581,730.5527769655429
582,730.5463352957731
583,730.5396599522966
584,730.5327384104417
585,730.5255601887083
586,730.5181169994072
587,730.5104028886068
588,730.5024143642162
589,730.4941505109799
590,730.4856130911327
591,730.4768066294541
592,730.467738481431
593,730.4584188831986
594,730.4488609819794
595,730.4390808459158
596,730.4290974525186
597,730.4189326553893
598,730.4086111294207
599,730.3981602952358
600,730.3876102241138
601,730.3769935249886
602,730.3663452152657
603,730.3557025772517
604,730.3451050019917
605,730.3345938222841
606,730.3242121365553
607,730.314004625114
608,730.3040173601283
609,730.2942976104655
610,730.28489364231
611,730.2758545162175
612,730.267229881036
613,730.259069765019
614,730.2514243645243
615,730.2443438309421
616,730.2378780569
617,730.2320764632359
618,730.2269877885907
619,730.2226598836021
620,730.2191395115834
621,730.2164721573192
622,730.2147018453545
623,730.2138709689291
624,730.2140201304856
625,730.2151879944402
626,730.2174111526215
627,730.2207240024566
628,730.225158637684
629,730.2307447511627
630,730.2375095492494
631,730.2454776771799
632,730.2546711548812
633,730.2651093226694
634,730.276808796349
635,730.289783431264
636,730.3040442948259
637,730.3195996469573
638,730.3364549278089
639,730.354612752057
640,730.3740729090996
641,730.3948323685356
642,730.416885290422
643,730.4402230398933
644,730.4648342057908
645,730.4907046230034
646,730.5178173982649
647,730.5461529391526
648,730.5756889859665
649,730.6064006461029
650,730.6382604305716
651,730.6712382925147
652,730.7053016678984
653,730.7404155188367
654,730.7765423802178
655,730.813642410433
656,730.8516734470268
657,730.8905910680248
658,730.9303486596068
659,730.9708974907414
660,731.0121867953127
661,731.054163862092
662,731.0967741326792
663,731.1399613073386
664,731.183667458509
665,731.227833151688
666,731.2723975733516
667,731.317298665548
668,731.3624732667429
669,731.4078572584209
670,731.453385716866
671,731.4989930693994
672,731.5446132541117
673,731.5901798818361
674,731.6356263988351
675,731.6808862485185
676,731.7258930304786
677,731.770580655271
678,731.8148834936486
679,731.8587365193409
680,731.9020754449057
681,731.9448368505898
682,731.986958306479
683,732.0283784884253
684,732.0690372883481
685,732.1088759195478
686,732.1478370177339
687,732.1858647384967
688,732.2229048518791
689,732.2589048345684
690,732.2938139601318
691,732.3275833876859
692,732.3601662493237
693,732.3915177364743
694,732.4215951851481
695,732.4503581598024
696,732.4777685353129
697,732.5037905762762
698,732.5283910126511
699,732.5515391106944
700,732.5732067382858
701,732.5933684239685
702,732.6120014091828
703,732.6290856932098
704,732.6446040703701
705,732.6585421590988
706,732.6708884226646
707,732.6816341814199
708,732.6907736165829
709,732.6983037656709
710,732.7042245099086
711,732.7085385541244
712,732.7112513997491
713,732.7123713115328
714,732.7119092785467
715,732.7098789700167
716,732.7062966865885
717,732.7011813077651
718,732.69455423638
719,732.6864393409767
720,732.6768628968543
721,732.665853526451
722,732.6534421397557
723,732.6396618755231
724,732.6245480440774
725,732.6081380723645
726,732.5904714515985
727,732.5715896874722
728,732.5515362525989
729,732.5303565407218
730,732.5080978221289
731,732.484809199535
732,732.4605415633858
733,732.4353475452184
734,732.409281467549
735,732.3823992888553
736,732.3547585425551
737,732.3264182693258
738,732.2974389424729
739,732.267882386261
740,732.2378116871637
741,732.2072910979966
742,732.1763859349206
743,732.1451624673163
744,732.1136878005439
745,732.0820297516201
746,732.0502567178972
747,732.0184375389151
748,731.9866413516972
749,731.9549374398903
750,731.9233950772912
751,731.8920833664101
752,731.861071072679
753,731.8304264547979
754,731.800217091656
755,731.7705097063144
756,731.7413699876407
757,731.7128624102315
758,731.6850500532685
759,731.6579944189606
760,731.6317552512451
761,731.6063903553677
762,731.5819554188631
763,731.5585038343875
764,731.5360865249103
765,731.5147517719997
766,731.49454504829
767,731.475508855572
768,731.4576825701754
769,731.441102297325
770,731.4258007360398
771,731.4118070560182
772,731.3991467878781
773,731.3878417280811
774,731.377909859806
775,731.3693652908993
776,731.3622182097927
777,731.3564748599389
778,731.3521375329972
779,731.3492045807769
780,731.3476704458001
781,731.347525710201
782,731.3487571624739
783,731.3513478812987
784,731.3552773353545
785,731.36052149776
786,731.3670529736117
787,731.3748411390318
788,731.3838522901598
789,731.3940498005704
790,731.405394285664
791,731.4178437726778
792,731.4313538750744
793,731.4458779701607
794,731.4613673788771
795,731.4777715468371
796,731.4950382259303
797,731.513113656037
798,731.5319427465215
799,731.5514692571998
800,731.5716359785345
801,731.5923849109754
802,731.6136574435577
803,731.6353945319664
804,731.6575368762079
805,731.6800250978167
806,731.7027999162358
807,731.7258023237267
808,731.7489737578942
809,731.7722562706225
810,731.7955926919233
811,731.8189267870456
812,731.842203405295
813,731.8653686192878
814,731.8883698537098
815,731.9111560030145
816,731.9336775378882
817,731.9558866006298
818,731.9777370897731
819,731.999184734307
820,732.0201871577875
821,732.0407039325083
822,732.060696623746
823,732.0801288239527
824,732.0989661767001
825,732.1171763902391
826,732.1347292407312
827,732.1515965654561
828,732.1677522465411
829,732.1831721859329
830,732.1978342724585
831,732.2117183418833
832,732.2248061308726
833,732.237081225692
834,732.2485290064008
835,732.2591365872413
836,732.268892753923
837,732.2777878984692
838,732.2858139521894
839,732.2929643171767
840,732.2992337966328
841,732.3046185243129
842,732.3091158934658
843,732.3127244857675
844,732.31544400085
845,732.3172751870441
846,732.3182197738682
847,732.3182804066572
848,732.3174605836173
849,732.3157645955139
850,732.313197468081
851,732.3097649071271
852,732.3054732462721
853,732.3003293973522
854,732.2943408037714
855,732.2875153973426
856,732.2798615593861
857,732.2713880869494
858,732.2621041649412
859,732.2520193447574
860,732.2411435297012
861,732.2294869672185
862,732.2170602477197
863,732.2038743095765
864,732.1899404497902
865,732.1752703398829
866,732.1598760467405
867,732.1437700583793
868,732.1269653147199
869,732.1094752434041
870,732.0913138005213
871,732.0724955158945
872,732.0530355423725
873,732.0329497083826
874,732.0122545728234
875,731.990967481262
876,731.9691066223234
877,731.9466910830789
878,731.9237409021126
879,731.9002771188362
880,731.8763218176649
881,731.851898165824
882,731.8270304437572
883,731.8017440672859
884,731.7760656008323
885,731.7500227612032
886,731.7236444116286
887,731.6969605459648
888,731.6700022631181
889,731.6428017317617
890,731.6153921453435
891,731.5878076672961
892,731.5600833663073
893,731.5322551415303
894,731.5043596376954
895,731.4764341501797
896,731.4485165201778
897,731.4206450202026
898,731.3928582302847
899,731.3651949054511
900,731.3376938353084
901,731.3103936968489
902,731.2833329019072
903,731.2565494409035
904,731.2300807245462
905,731.2039634250787
906,731.178233318567
907,731.1529251296859
908,731.1280723804311
909,731.1037072441391
910,731.0798604061484
911,731.0565609324163
912,731.0338361473925
913,731.0117115224556
914,730.9902105761856
915,730.9693547876375
916,730.9491635235895
917,730.929653980519
918,730.9108411418059
