frame_number,force
0,611.5369200000188
1,611.4478738124394
2,611.3648259287584
3,611.2927299107852
4,611.2346173444539
5,611.1910222807962
6,611.1597922695581
7,611.1363167451179
8,611.1141424005002
9,611.0858826132226
10,611.0442819671729
11,610.9832784381774
12,610.8989126316751
13,610.7899583171088
14,610.6581836830424
15,610.5081964617549
16,610.3468845179483
17,610.1825366392516
18,610.0237970742253
19,609.8786412985341
20,609.7535387544698
21,609.652899125133
22,609.5788206717116
23,609.5311127537648
24,609.5075550913577
25,609.5043550773594
26,609.5167485070307
27,609.5396622244191
28,609.5683358513569
29,609.5987972126957
30,609.6281071292399
31,609.6543323983785
32,609.6762698653991
33,609.6930185987713
34,609.7035459405729
35,609.7063843258395
36,609.6995390983499
37,609.6806197974447
38,609.6471537686401
39,609.5970100502769
40,609.528855000294
41,609.4425719492174
42,609.3395895761224
43,609.2230670856771
44,609.097886295431
45,608.9704192580548
46,608.848078782242
47,608.7387003886191
48,608.6498281976142
49,608.5879810435998
50,608.5579721306112
51,608.5623608121647
52,608.6011244320288
53,608.6716264231699
54,608.7689079018347
55,608.886257875184
56,609.0159510344556
57,609.1500089564241
58,609.2808611870471
59,609.4018527709096
60,609.5076169403811
61,609.5943495913097
62,609.6599821023384
63,609.7042047817172
64,609.7282960255353
65,609.7347640984491
66,609.726872689923
67,609.7081585637499
68,609.6820393959166
69,609.6515590327311
70,609.6192579266511
71,609.5871253844529
72,609.5565989827177
73,609.5286022748917
74,609.5036238094518
75,609.4818317253164
76,609.4632062673061
77,609.4476721202653
78,609.4352208800153
79,609.4260193698558
80,609.4204911701859
81,609.419339502725
82,609.4234719378084
83,609.4338107670618
84,609.4510203733314
85,609.4752294609289
86,609.5058424270552
87,609.541499487634
88,609.5801743144241
89,609.6193427464501
90,609.6561532617617
91,609.6875655527459
92,609.7104612528428
93,609.7217510196234
94,609.7185082766193
95,609.6981611716918
96,609.6587669514803
97,609.5993625703494
98,609.5203350610016
99,609.4237171742392
100,609.3133138910102
101,609.1945934446865
102,609.0743135223776
103,608.9599038261254
104,608.8586955724645
105,608.7771491160798
106,608.7202389880129
107,608.6910986350241
108,608.690939859107
109,608.7191953529187
110,608.7738108721327
111,608.8516212557812
112,608.9487541662342
113,609.0610102810926
114,609.1841811759292
115,609.3142894690382
116,609.4477557116749
117,609.5815035862029
118,609.7130175212764
119,609.8403747716662
120,609.9622795642542
121,610.0781118466402
122,610.1879672791632
123,610.2926367406616
124,610.3934816161767
125,610.492202383729
126,610.5905405731531
127,610.6899686404103
128,610.7914088750168
129,610.8950086994341
130,611.0000071365755
131,611.1047423713167
132,611.2068397578748
133,611.3035722313047
134,611.3923271995913
135,611.4710805847337
136,611.5387829086005
137,611.5955948497885
138,611.6429480644268
139,611.6834253932079
140,611.7204505657528
141,611.7577862958004
142,611.7988899532006
143,611.8462426228007
144,611.9008001567751
145,611.9616971679977
146,612.0262832243207
147,612.0904996114228
148,612.149525016966
149,612.1985523768838
150,612.2335364900828
151,612.2517793676287
152,612.2522734742241
153,612.2357766683442
154,612.2046394565486
155,612.1624415604022
156,612.1135128736561
157,612.0624138909972
158,612.0134401001
159,611.970195657826
160,611.9352570315351
161,611.90993211291
162,611.8941249848151
163,611.8863287875736
164,611.8837682283156
165,611.8826933201826
166,611.8787986176153
167,611.8677244893015
168,611.8455942640426
169,611.8095398632674
170,611.7581557555242
171,611.6918066206598
172,611.6127181255493
173,611.5248081540268
174,611.4332616058399
175,611.3439090644155
176,611.2625225235157
177,611.1941607798042
178,611.142665576607
179,611.1103464260086
180,611.0978388089835
181,611.1041013589946
182,611.1265236710967
183,611.1611262472248
184,611.2028374937147
185,611.2458293547108
186,611.2838856276212
187,611.3107771792138
188,611.320639146977
189,611.3083719391116
190,611.270087275943
191,611.2035850018011
192,611.1087981350474
193,610.9881063163587
194,610.846409818982
195,610.6908919318264
196,610.5304698202258
197,610.3750050090748
198,610.2343759289154
199,610.1175102563848
200,610.0314713187607
201,609.9807062032157
202,609.9665675831468
203,609.9871907828144
204,610.0377509592192
205,610.1110673865376
206,610.1984720873552
207,610.2908180433842
208,610.379478223447
209,610.4571938612078
210,610.5186684397145
211,610.5608611055322
212,610.5829907577871
213,610.5862979073294
214,610.5736205784963
215,610.5488433087352
216,610.516291774122
217,610.4801558835583
218,610.4440082207079
219,610.4104534329953
220,610.3809324739258
221,610.3557149462854
222,610.3341005629069
223,610.3147916450364
224,610.2963281439384
225,610.2774551049016
226,610.2573398963918
227,610.2356366733865
228,610.2124537182991
229,610.1882860461823
230,610.1639415441891
231,610.1404498408552
232,610.1189315534417
233,610.1004270722518
234,610.0857189802359
235,610.0752080478558
236,610.0689035007568
237,610.06655185189
238,610.0678634087784
239,610.0727417829997
240,610.0814177553102
241,610.0944346068039
242,610.1124969094129
243,610.1362438443003
244,610.1660207428049
245,610.2017053987082
246,610.2426230456612
247,610.2875683594308
248,610.3349385482974
249,610.3829632137761
250,610.4299969837352
251,610.474823199043
252,610.5169055161275
253,610.5565273759945
254,610.5947798830904
255,610.6333893119138
256,610.6744069156385
257,610.7198107304017
258,610.7710873258042
259,610.8288674479629
260,610.8926851643378
261,610.9609177533517
262,611.0309371216155
263,611.0994604549883
264,611.1630447554478
265,611.2186457542077
266,611.2641544847596
267,611.2988247049761
268,611.3235129311043
269,611.3406728878381
270,611.3540735423703
271,611.3682480470459
272,611.3877405210969
273,611.4162887786498
274,611.4561230284584
275,611.5075365719273
276,611.568803770084
277,611.6364288919523
278,611.7056453043974
279,611.7710582673872
280,611.8273270079716
281,611.8697971968447
282,611.8950152616765
283,611.9010813067171
284,611.8878219430578
285,611.8567767413215
286,611.8109967650844
287,611.7546705098252
288,611.6926241484429
289,611.629765951312
290,611.5705449243935
291,611.5184831116829
292,611.4758288897915
293,611.4433568135978
294,611.4203113726815
295,611.4044826866913
296,611.3924213236394
297,611.3798177828116
298,611.3620541829277
299,611.3348804080358
300,611.2951088070083
301,611.2412000611448
302,611.1736396033491
303,611.0950528784216
304,611.0100440696857
305,610.9247614243071
306,610.8462160712988
307,610.7814259577245
308,610.736507609562
309,610.7158642294437
310,610.7216007391742
311,610.7532449931856
312,610.8077968036167
313,610.8800831183606
314,610.9633696303968
315,611.050154579654
316,611.1330439966814
317,611.2055917650719
318,611.2629997425946
319,611.3026062215146
320,611.3241155041471
321,611.3295235361101
322,611.3227007720487
323,611.3086411988896
324,611.2924772202505
325,611.2784503323159
326,611.269065917625
327,611.264628256352
328,611.2632651959799
329,611.2614412356115
330,611.2548526647178
331,611.2395188519092
332,611.212839253473
333,611.1743850669546
334,611.1262486187832
335,611.0728787395706
336,611.0204533889446
337,610.9759360416161
338,610.9460062608872
339,610.9360523869967
340,610.9493775130933
341,610.9867108504894
342,611.0460542936232
343,611.1228481343173
344,611.2104164429829
345,611.3006445490968
346,611.3848371836203
347,611.4546943091987
348,611.5033139001321
349,611.5260928057869
350,611.5213728883995
351,611.4906972247198
352,611.438606279183
353,611.3719958007198
354,611.2991462037181
355,611.2285930526701
356,611.1680299306
357,611.123423243861
358,611.0984761823847
359,611.0945007454937
360,611.1106578568263
361,611.1444485106443
362,611.1923104576691
363,611.2501874273781
364,611.3139745551936
365,611.3797932465178
366,611.4441012739628
367,611.5036907848297
368,611.555655585212
369,611.5974033832546
370,611.6267510596327
371,611.6420965345211
372,611.6426250535734
373,611.6284808263595
374,611.6008283147972
375,611.5617554829654
376,611.514021164357
377,611.4606920880282
378,611.4047389335049
379,611.3486675171189
380,611.29425434213
381,611.2424362424841
382,611.1933732781821
383,611.1466675894167
384,611.1016878565512
385,611.0579279598741
386,611.0153226599077
387,610.9744522468035
388,610.9365929454963
389,610.9036116211463
390,610.8777537426691
391,610.8614085761956
392,610.8569291111005
393,610.8665335056929
394,610.8922499011625
395,610.9358306021691
396,610.9985782856431
397,611.0810827576319
398,611.1829250863182
399,611.3024342797222
400,611.4365723544566
401,611.5809928180231
402,611.7302824922467
403,611.8783605299
404,612.0189744066437
405,612.146214449643
406,612.2549771489903
407,612.3413372944614
408,612.4028201731962
409,612.4385779874551
410,612.4494645677172
411,612.4379832368763
412,612.4080771177665
413,612.3647550849621
414,612.3135922540216
415,612.2601797722218
416,612.2095986005826
417,612.1659644152195
418,612.1320665561242
419,612.1091192562102
420,612.0966460470556
421,612.092509880245
422,612.0930843413875
423,612.0935534302616
424,612.0883319809412
425,612.0715958968576
426,612.0378861003851
427,611.982714815884
428,611.9030862343034
429,611.7978642140147
430,611.6679664138215
431,611.5164025954724
432,611.3481802742227
433,611.1700831464501
434,610.9903133052715
435,610.8179897952738
436,610.6625099971941
437,610.5328020257814
438,610.4365226635149
439,610.3792806637614
440,610.3639840802359
441,610.3904165345826
442,610.455130404569
443,610.5516988338752
444,610.67130289289
445,610.8035653277723
446,610.9374993681344
447,611.062437367743
448,611.1688425359971
449,611.2489658387534
450,611.2973527155816
451,611.3112084831764
452,611.2906103823365
453,611.2385410258208
454,611.160725087865
455,611.0652603446838
456,610.962032038083
457,610.8619032391424
458,610.7757103977311
459,610.7131613153044
460,610.6817959066905
461,610.6861862962176
462,610.7275082136649
463,610.8035341346867
464,610.9090209598908
465,611.0364141844992
466,611.1767593874954
467,611.3206899694618
468,611.4593562790147
469,611.5851870551766
470,611.692420900422
471,611.7773923406907
472,611.8385882229184
473,611.8765024741402
474,611.8933235358753
475,611.8925073896128
476,611.8783137069979
477,611.8553804068837
478,611.8283675824034
479,611.8016454966873
480,611.7789795341521
481,611.7631954936663
482,611.7558667749572
483,611.757105473001
484,611.7655331050581
485,611.7784612790506
486,611.7922583335652
487,611.8028403083584
488,611.8062123947504
489,611.7989945664423
490,611.7788770769993
491,611.7449548637246
492,611.697887367052
493,611.6398372103929
494,611.5741696582938
495,611.5049452904655
496,611.4362988194695
497,611.3718411169451
498,611.3142195060742
499,611.264916104636
500,611.2242814738796
501,611.1917314112183
502,611.1660083549425
503,611.1454291198303
504,611.1280833436757
505,611.1119815176644
506,611.0951677024472
507,611.075819717403
508,611.0523629663318
509,611.0236132706918
510,610.9889373677853
511,610.9483948632325
512,610.9028200967707
513,610.8538178293632
514,610.8036708998675
515,610.7551753794181
516,610.71142069931
517,610.6755221384434
518,610.6503032210644
519,610.6379331899858
520,610.6395574381037
521,610.6549969551165
522,610.6826045088179
523,610.7193409021625
524,610.7610896894723
525,610.8031799268003
526,610.8410437255534
527,610.8709063131932
528,610.890393782289
529,610.8989456557011
530,610.8979395678384
531,610.8904828873636
532,610.88089623927
533,610.8739805845745
534,610.8741984343677
535,610.8849101190746
536,610.9077971442025
537,610.9425728355218
538,610.9870209182269
539,611.0373334858848
540,611.0886693828755
541,611.1358342871655
542,611.1739881137293
543,611.1992976916099
544,611.2094598537395
545,611.2040271073349
546,611.1844871911503
547,611.154073703843
548,611.1173071885321
549,611.0792976273196
550,611.0448984560607
551,611.0178698124117
552,611.0002342411578
553,610.9919620038276
554,610.9910260088047
555,610.993766238139
556,610.9954425724053
557,610.9908537754486
558,610.9749459169303
559,610.9433782514914
560,610.8930195684455
561,610.8223266740882
562,610.7315482275031
563,610.622713530305
564,610.4993971145543
565,610.3662946554225
566,610.2286986701852
567,610.0919935848023
568,609.9612690086666
569,609.8410872103544
570,609.7353806694073
571,609.6474333565899
572,609.5799092944508
573,609.5349033543283
574,609.5139872270387
575,609.518221681146
576,609.5481207159735
577,609.6035790436771
578,609.6837927449734
579,609.7872039818177
580,609.9114922145054
581,610.0536276516016
582,610.2099945134199
583,610.3765728851107
584,610.5491450435056
585,610.7234839316776
586,610.8954950920887
587,611.0613083283272
588,611.217338173363
589,611.360346518784
590,611.487542540309
591,611.5967384002107
592,611.6865458917296
593,611.7565663206012
594,611.8075126664884
595,611.8412138727728
596,611.8604770953842
597,611.8688129898129
598,611.8700525727248
599,611.8678998233838
600,611.8654761024535
601,611.8649220635544
602,611.8671263394051
603,611.8716439132421
604,611.8768459334011
605,611.8803030143768
606,611.8793495535076
607,611.8717189344538
608,611.8560995314689
609,611.8324685864034
610,611.8021288557578
611,611.7674715366433
612,611.7315615914164
613,611.6976545920978
614,611.6687236736489
615,611.6470439611084
616,611.6338747025172
617,611.6292835780878
618,611.6321480536276
619,611.6403416957539
620,611.6510848133872
621,611.6614167869241
622,611.6687279594704
623,611.6712725727226
624,611.6685777168328
625,611.6616689315883
626,611.6530520587955
627,611.6464277473854
628,611.6461653872948
629,611.656609839702
630,611.6813240914275
631,611.7223842120753
632,611.7798436206486
633,611.8514708378785
634,611.9328319214792
635,612.0177309573511
636,612.0989515944435
637,612.1691831252723
638,612.221977001531
639,612.2525668841913
640,612.2584113244924
641,612.2393879196682
642,612.1976505151953
643,612.137218206079
644,612.0633903502276
645,611.9820877506835
646,611.8992074053267
647,611.8200472161944
648,611.7488256127492
649,611.688308867622
650,611.639569185765
651,611.6019171746315
652,611.5730583882545
653,611.5494893969999
654,611.5270763520202
655,611.5016901180344
656,611.4697547879731
657,611.4286098949298
658,611.3766572942422
659,611.3133231545248
660,611.2388999437154
661,611.1543465562582
662,611.0611189068255
663,610.9610746172445
664,610.8564479030202
665,610.7498473972303
666,610.6442173740792
667,610.5427250944223
668,610.4485704379194
669,610.3647343092332
670,610.2936893443647
671,610.2371073038418
672,610.1956142108952
673,610.1686475175698
674,610.1544513144125
675,610.1502200509603
676,610.152378598105
677,610.1569621592628
678,610.1600310084073
679,610.1580343955465
680,610.1480465979749
681,610.1278451658305
682,610.0958639266302
683,610.0510913068474
684,609.9929815579387
685,609.9214191592457
686,609.8367467605309
687,609.7398466625351
688,609.6322600640044
689,609.5163254559524
690,609.3952942228348
691,609.2733435646279
692,609.1554000264503
693,609.0467387342028
694,608.9524029339163
695,608.8765485450419
696,608.8218470004523
697,608.7890861935716
698,608.7770887322433
699,608.7830008612726
700,608.8028974486223
701,608.832541387139
702,608.8680870351717
703,608.9065521792376
704,608.9459767998973
705,608.9852912530848
706,609.0239943306646
707,609.0617764043702
708,609.0982113784869
709,609.1325943347055
710,609.1639446195622
711,609.1911503991629
712,609.2132038928168
713,609.2294571307152
714,609.2398198177717
715,609.2448401780669
716,609.2456562367425
717,609.2438530535891
718,609.2412852999772
719,609.2399206693343
720,609.2417400739305
721,609.2487041727522
722,609.2627641368929
723,609.28586679397
724,609.3199000153882
725,609.3665515770134
726,609.4270953954517
727,609.502145742163
728,609.5914247552774
729,609.693586236957
730,609.8061429388372
731,609.9255456165164
732,610.047437562932
733,610.1670547440808
734,610.2796869424801
735,610.3810960527717
736,610.4678164169511
737,610.5373145055484
738,610.5880246471493
739,610.6192950903315
740,610.6312929495155
741,610.6249316485704
742,610.6018769211923
743,610.5646397955413
744,610.5166929482928
745,610.4624925888203
746,610.4072933857948
747,610.3567183240384
748,610.316151709472
749,610.2901024324361
750,610.2816982189397
751,610.2924240422062
752,610.322140130942
753,610.3693414076179
754,610.4315766405775
755,610.5059402888171
756,610.5895648798094
757,610.6800480221561
758,610.7757400458655
759,610.8758205661217
760,610.9801282650523
761,611.0887697696777
762,611.2015911421614
763,611.3176285267734
764,611.4346624584508
765,611.5489929585925
766,611.6555322573897
767,611.7482649006421
768,611.8210411065425
769,611.8685691606073
770,611.88739741337
771,611.8766585839818
772,611.838400041071
773,611.7774269773647
774,611.7006971491346
775,611.6163863398557
776,611.5327875993801
777,611.4572287671457
778,611.395193143688
779,611.3497949103455
780,611.3216897514424
781,611.3094085825287
782,611.3100172826563
783,611.3199498432612
784,611.3358417995591
785,611.355204587188
786,611.376831662601
787,611.4009033329015
788,611.4288229138173
789,611.4628402544544
790,611.505515368193
791,611.5590872107022
792,611.6248462267296
793,611.7026290503469
794,611.7905397788098
795,611.8849670492223
796,611.9809203140339
797,612.0726491045226
798,612.154442245246
799,612.2214563076998
800,612.2704195834832
801,612.3000981790362
802,612.3114673704662
803,612.3075789650495
804,612.2931481453198
805,612.2739088327213
806,612.2558176297027
807,612.2442250187323
808,612.2431552634115
809,612.2548148402443
810,612.2793864033381
811,612.3150950502957
812,612.3584888398077
813,612.4048664559535
814,612.4487987845882
815,612.4847059613224
816,612.5074544504292
817,612.5129320369479
818,612.4985498111935
819,612.4636153307753
820,612.4095259131635
821,612.3397489561936
822,612.2595822538484
823,612.1757114938459
824,612.0956028365637
825,612.0267903531628
826,611.9761345725
827,611.9491262612869
828,611.9492935638299
829,611.9777591656674
830,612.0329918478662
831,612.1107924387853
832,612.204539444734
833,612.3056951334617
834,612.4045410324886
835,612.4910736950324
836,612.5559541494351
837,612.5913855133118
838,612.5918069768752
839,612.554333905301
840,612.478924899976
841,612.3682974713076
842,612.2276330505755
843,612.0641148872935
844,611.8863417342889
845,611.7036596401339
846,611.5254550403873
847,611.3604626122003
848,611.2161591585631
849,611.0983208270859
850,611.0107987305545
851,610.9555193367361
852,610.93265960296
853,610.9409107425888
854,610.9777477877918
855,611.0396574314074
856,611.1223193647911
857,611.2207685403321
858,611.3295822755623
859,611.4431338603398
860,611.5559300648786
861,611.663009888264
862,611.7603458355964
863,611.8451778584472
864,611.9162272305797
865,611.9737673173756
866,612.0195538276753
867,612.0566322628198
868,612.0890433887392
869,612.1214411720674
870,612.1586306808246
871,612.205034782423
872,612.2641138754806
873,612.3377949146181
874,612.426002248672
875,612.5263974665505
876,612.6344165150246
877,612.7436497809084
878,612.8465540370618
879,612.9354169423619
880,613.0034275509536
881,613.045662428836
882,613.0597952002531
883,613.0463886239701
884,613.0087295963689
885,612.9522848821268
886,612.8839326037403
887,612.8111309275951
888,612.7411457050302
889,612.6804183275011
890,612.6341280803609
891,612.6059754434369
892,612.5981779136367
893,612.6116370612801
894,612.6462084571596
895,612.7009843135633
896,612.7744969585518
897,612.8647897953496
898,612.9693692845805
899,613.0851028382256
900,613.2081389015409
901,613.3339156391495
902,613.4573147114286
903,613.5729970581178
904,613.6759124341173
905,613.7619131130818
906,613.8283503153067
907,613.8745094985212
908,613.9017603840744
909,613.9133648589474
910,613.913985141281
911,613.9090240714432
912,613.9039622235771
913,613.9038164771954
914,613.9127644709554
915,613.9339150895265
916,613.9691869038302
917,614.0192711093027
