frame_number,force
0,566.165350000032
1,566.6142671409916
2,567.0456847080641
3,567.4433017076308
4,567.7931072992028
5,568.0842900120311
6,568.3099202515447
7,568.4673709991658
8,568.5584417387872
9,568.589163998204
10,568.5692968772893
11,568.5115517136694
12,568.4306016533409
13,568.3419382600963
14,568.2606530844895
15,568.2002559212709
16,568.1716693085999
17,568.1825266741032
18,568.236849333941
19,568.3351143140281
20,568.4746663311606
21,568.6503720140697
22,568.8553751934159
23,569.0818152598486
24,569.321422267479
25,569.5659720813231
26,569.8076337961006
27,570.039261364844
28,570.2546852883179
29,570.4490458194359
30,570.6191613776643
31,570.7638583386097
32,570.8841471834448
33,570.9831462646381
34,571.0657131797927
35,571.1378095341631
36,571.2056817378394
37,571.2749887275148
38,571.3500324759591
39,571.4332232984558
40,571.5248442348969
41,571.6231109936672
42,571.7244917635372
43,571.824245933317
44,571.9171288456399
45,571.9981729659555
46,572.063410596718
47,572.110391094603
48,572.1383968502789
49,572.148358473259
50,572.1425524413711
51,572.1241900504438
52,572.0969809509284
53,572.0647160648172
54,572.0308934212301
55,571.9984086128543
56,571.9693344548563
57,571.9448121697471
58,571.9250661500273
59,571.9095308212131
60,571.8970434275036
61,571.8860321877953
62,571.8746386353619
63,571.8607559451644
64,571.8420180687026
65,571.8158080681364
66,571.7793488468039
67,571.7298959562308
68,571.6649926170169
69,571.5827079272051
70,571.4817887525875
71,571.361707077911
72,571.2226368127921
73,571.0654095078887
74,570.8914747674922
75,570.7028592112304
76,570.5021115531457
77,570.2922413671216
78,570.0766718799312
79,569.8592110459991
80,569.6440161711618
81,569.4355086101497
82,569.2381936955597
83,569.0563605196965
84,568.8936777853261
85,568.7527513102114
86,568.634741550799
87,568.5391397725178
88,568.4637675531632
89,568.4050051862044
90,568.3581917712532
91,568.3181038877957
92,568.2794256737486
93,568.2371519792711
94,568.1868905513259
95,568.1250487903229
96,568.0489205055053
97,567.9567209367328
98,567.8476275446429
99,567.7218594568437
100,567.5807862694157
101,567.4270193206119
102,567.2644195595659
103,567.0979623558295
104,566.9334291178719
105,566.7769354575462
106,566.6343397118524
107,566.5105972182957
108,566.4091397054592
109,566.3313709003455
110,566.2763732935596
111,566.240901334828
112,566.2196829227028
113,566.2059769661502
114,566.1922773041474
115,566.1710472734358
116,566.1354129478797
117,566.0797932394611
118,566.0004544020472
119,565.8959403401011
120,565.7672915831795
121,565.6179720761794
122,565.4534789172635
123,565.2806772756603
124,565.1069451279013
125,564.9392349829278
126,564.7831850421242
127,564.6424318680885
128,564.5182555152852
129,564.4096158247386
130,564.3135473871015
131,564.2258100738951
132,564.1416583753132
133,564.0565941152889
134,563.9669977906468
135,563.8705811205101
136,563.7666416118633
137,563.6561116352261
138,563.5413943859161
139,563.4259949581153
140,563.313991295309
141,563.209427623209
142,563.115734160316
143,563.0352763235824
144,562.9691124689566
145,562.9169889650913
146,562.8775355932689
147,562.8485722848171
148,562.8274270134037
149,562.8111945595278
150,562.7969137650384
151,562.7816819979732
152,562.7627471638272
153,562.7376172900413
154,562.7042069291397
155,562.6610065607767
156,562.6072367918134
157,562.5429543089417
158,562.4691056650854
159,562.3875460522294
160,562.3010309469036
161,562.2131622514644
162,562.1282568008947
163,562.0511139544866
164,561.9866763371315
165,561.9395915840716
166,561.9137012058245
167,561.911516975993
168,561.9337825962933
169,561.9792278538368
170,562.0445905786498
171,562.1249243026492
172,562.2141495449797
173,562.3057554515036
174,562.3935216756789
175,562.4721230729226
176,562.537519642243
177,562.5871111085295
178,562.6197078299048
179,562.6354021143086
180,562.6354146316081
181,562.6219575624963
182,562.5981183146399
183,562.5677383180886
184,562.5352445162708
185,562.505388156082
186,562.4828664516274
187,562.4718511615391
188,562.4755010842784
189,562.4955613245079
190,562.532139758585
191,562.5837108582716
192,562.6473485943075
193,562.7191513589482
194,562.7947952916725
195,562.8701266449705
196,562.9416790095914
197,563.0070028866661
198,563.0647452683418
199,563.1144967737289
200,563.1564846290563
201,563.1912009119948
202,563.2190317019487
203,563.2399334958404
204,563.2532092959773
205,563.257448315749
206,563.2506757400262
207,563.2307093814978
208,563.1956711808815
209,563.1445747393113
210,563.0778885605681
211,562.997943138912
212,562.9090383103131
213,562.8171603497208
214,562.7293307989656
215,562.6527195459344
216,562.5937037247869
217,562.5570312161335
218,562.5451901343646
219,562.5580409953608
220,562.592752669723
221,562.644075120551
222,562.7049500086156
223,562.7673950775284
224,562.8235233404513
225,562.8665136052424
226,562.8913614670021
227,562.8953071046129
228,562.8779303706859
229,562.8409831647587
230,562.7880586462653
231,562.7241741668395
232,562.6553041314862
233,562.5878770913337
234,562.5282547909712
235,562.4822237651111
236,562.4545409555793
237,562.4485815247765
238,562.4661339137908
239,562.5073654502137
240,562.5709431080178
241,562.6542555444594
242,562.7536682301187
243,562.8647650593686
244,562.9825716117472
245,563.1017873773933
246,563.217060508928
247,563.3233218735033
248,563.4161664041003
249,563.4922416093481
250,563.5495838762045
251,563.5878352829667
252,563.6082825231506
253,563.6136924838027
254,563.6079671584796
255,563.5956786643728
256,563.5815568603774
257,563.5699938224949
258,563.5646189677828
259,563.5679967793727
260,563.5814989712369
261,563.6053855811291
262,563.6390830400476
263,563.6815827016043
264,563.7318337044788
265,563.7890025698589
266,563.8525250191407
267,563.9219600234989
268,563.9967356512537
269,564.0759153865058
270,564.1580945622864
271,564.241472131067
272,564.3240643599539
273,564.403965592356
274,564.4795428394949
275,564.5494839051781
276,564.6126845258176
277,564.6680316068611
278,564.714194922466
279,564.7495521303786
280,564.7723232687679
281,564.7809019080565
282,564.774291207368
283,564.7525201209461
284,564.7169288994342
285,564.6702528210708
286,564.6164768404489
287,564.560474018296
288,564.507482065833
289,564.4625136955272
290,564.4298197470903
291,564.4125101172845
292,564.4123880963508
293,564.4299902703843
294,564.4647701346032
295,564.515336652736
296,564.5796688182332
297,564.655264789518
298,564.739221489394
299,564.8282559269115
300,564.9186795685217
301,565.0063468378535
302,565.0866312560379
303,565.1545192669295
304,565.2049123609827
305,565.233166366511
306,565.2357893150374
307,565.211122705287
308,565.1598064240393
309,565.0848918913105
310,564.9915785536252
311,564.886646322051
312,564.7777109702668
313,564.6724406016596
314,564.577848734306
315,564.4997370458033
316,564.4423195546007
317,564.408039440524
318,564.3975862262354
319,564.4101095812429
320,564.4435916668862
321,564.4952966020531
322,564.56219137414
323,564.6412460478656
324,564.7295695785581
325,564.8243981879693
326,564.9229967287557
327,565.0225421261964
328,565.1200379118216
329,565.2122841600898
330,565.2959181408144
331,565.3675463556121
332,565.4239904543113
333,565.4626528516216
334,565.4819696107742
335,565.4818649060369
336,565.4640743127162
337,565.4322002021349
338,565.3914258953045
339,565.3479255679881
340,565.3081082958038
341,565.2778754226993
342,565.2620356891415
343,565.2639402330443
344,565.2853185934068
345,565.3262544550066
346,565.3852450444997
347,565.4593263065051
348,565.5442892149783
349,565.6350294691332
350,565.7260467081453
351,565.8120518630313
352,565.8885855199885
353,565.9525294396617
354,566.0024169128812
355,566.0384952906879
356,566.0625413156563
357,566.077469372493
358,566.0868045043634
359,566.0941096799072
360,566.1024535670088
361,566.1139858434719
362,566.1296666154444
363,566.1491826534196
364,566.1710683915029
365,566.1930247916947
366,566.2123943755433
367,566.2267109834862
368,566.2342095982185
369,566.2341787102237
370,566.2270843570928
371,566.2144737310971
372,566.1987259091635
373,566.1827240958204
374,566.1694981267132
375,566.1618707317426
376,566.162146480102
377,566.1718830153578
378,566.191763521694
379,566.2215632979568
380,566.2601940291829
381,566.3058144565647
382,566.3559986443721
383,566.4079477828185
384,566.458724239449
385,566.5054783943898
386,566.5456295015022
387,566.5769608773239
388,566.5976078978669
389,566.6059511859366
390,566.6004593128463
391,566.5795371744639
392,566.5414250866988
393,566.4841744050756
394,566.4057139833707
395,566.3040201787061
396,566.1774011464379
397,566.024889893665
398,565.846703650451
399,565.6446800954147
400,565.4225688849818
401,565.1860669821199
402,564.9425469117756
403,564.7005095014335
404,564.4688491283817
405,564.256032902885
406,564.0692909116906
407,563.9139143159098
408,563.7927509853497
409,563.7059585160988
410,563.6510285739406
411,563.6230546274602
412,563.6151921629242
413,563.6192582804717
414,563.6264243171074
415,563.6279556722362
416,563.6159448010542
417,563.5839774370361
418,563.5276791586466
419,563.4451073119606
420,563.3369667658859
421,563.2066236422795
422,563.059875530403
423,562.904435798719
424,562.7491267422649
425,562.6028477516787
426,562.4734612230675
427,562.3667885164431
428,562.2859084037503
429,562.2308929691354
430,562.1990196104277
431,562.1854004249908
432,562.1838945030091
433,562.1881173574224
434,562.1923482739711
435,562.1921803506042
436,562.1848464935304
437,562.1692441890782
438,562.1457381509776
439,562.1158362180454
440,562.0818248771343
441,562.0464362178465
442,562.0126003289872
443,561.9833028946933
444,561.9615184515965
445,561.9501517671574
446,561.9519187861215
447,561.9691370430439
448,562.0034529331587
449,562.0555777173937
450,562.1251107485617
451,562.2104984488612
452,562.3091353441204
453,562.4175841559382
454,562.531884460209
455,562.6479212210844
456,562.7618156521045
457,562.8702815970356
458,562.9708808578694
459,563.0621230374064
460,563.143392550042
461,563.2147480991354
462,563.2767037424392
463,563.3301166391036
464,563.3762526628054
465,563.4170070973446
466,563.4551723036448
467,563.4946041851988
468,563.540161716812
469,563.5973704905155
470,563.6718553150531
471,563.768651081821
472,563.8915149816678
473,564.042347649962
474,564.220813422508
475,564.4242310801594
476,564.6477727920739
477,564.884958086049
478,565.1283709307274
479,565.370475187283
480,565.6043741269181
481,565.8243698773592
482,566.0262338697601
483,566.2071851539226
484,566.3656556897474
485,566.5009646492388
486,566.6130177855887
487,566.7021126800989
488,566.7688857758251
489,566.8143861801914
490,566.8402118554517
491,566.8486195087293
492,566.8425368827284
493,566.8254532829889
494,566.8012101266085
495,566.7737364821749
496,566.7467779740218
497,566.7236623527074
498,566.7071290353755
499,566.6992178764314
500,566.7011834964426
501,566.7134090092846
502,566.7353411806254
503,566.7655186449895
504,566.8017688550334
505,566.8415951890241
506,566.8826933492492
507,566.9234718528825
508,566.9634319326882
509,567.0032896695733
510,567.0447880375918
511,567.0902284113645
512,567.1418230960431
513,567.2010150039479
514,567.2679208685445
515,567.3410267016022
516,567.4172036460294
517,567.4920370313062
518,567.5603912655952
519,567.6170820522619
520,567.657507946266
521,567.6781170846282
522,567.6766499644438
523,567.6521783986308
524,567.6050114181196
525,567.5365362311962
526,567.4490246711141
527,567.3454030737439
528,567.2289784947166
529,567.103131000808
530,566.9710048751919
531,566.8352498144965
532,566.6978696467136
533,566.560225731079
534,566.4232126858083
535,566.2875754669415
536,566.1542809300951
537,566.0248274570638
538,565.9014005786264
539,565.7868419021916
540,565.684446885295
541,565.5976277980131
542,565.5294917811585
543,565.4824021451356
544,565.4575995471798
545,565.4549474264231
546,565.4728452858329
547,565.5083358348435
548,565.5574075276114
549,565.615454284463
550,565.6778167089551
551,565.7403143720621
552,565.799684159894
553,565.8538545686198
554,565.9020120673301
555,565.9444595683614
556,565.9823184455707
557,566.0171573229007
558,566.0506275433685
559,566.0841603326473
560,566.1187556594886
561,566.1548751463666
562,566.1924378344228
563,566.2309025470018
564,566.2694027357732
565,566.3068869686246
566,566.3422202032218
567,566.3742203557745
568,566.4016382878573
569,566.4231258183539
570,566.437257221887
571,566.442664286869
572,566.4383141931302
573,566.4239043533948
574,566.4002781463315
575,566.3697153112319
576,566.3359643548971
577,566.303967431443
578,566.2793336070939
579,566.2676833213175
580,566.2739894684009
581,566.3020004369882
582,566.3537882436309
583,566.4294418722478
584,566.5269154529822
585,566.6420329456323
586,566.7686490814664
587,566.8989742579666
588,567.0240781320892
589,567.1345787213831
590,567.2214991671082
591,567.27723661069
592,567.2965383462368
593,567.2773342872556
594,567.2212627572933
595,567.1337644088335
596,567.0236934496425
597,566.9024854641234
598,566.7830034512639
599,566.6782260599152
600,566.5999312154944
601,566.5574930359185
602,566.5568883048238
603,566.6000082263607
604,566.6843727029096
605,566.8033261918847
606,566.9467428892051
607,567.1021859203336
608,567.2563733884965
609,567.3967404294751
610,567.5128759278049
611,567.5976484994799
612,567.6478914279764
613,567.6645734829867
614,567.6524448130581
615,567.6192168271315
616,567.574400061756
617,567.5279677280247
618,567.4890286563804
619,567.4646875560442
620,567.4592473191665
621,567.4738588175576
622,567.5066405382847
623,567.5531936146759
624,567.6073699197962
625,567.6621388335915
626,567.7104308234697
627,567.7458769588962
628,567.7633832089704
629,567.7594810307469
630,567.7324142884917
631,567.6819757684565
632,567.6091716956298
633,567.5158310661635
634,567.4042735194046
635,567.2771184569889
636,567.1372740727005
637,566.9880874042833
638,566.8335688709498
639,566.6785550969779
640,566.5286765123506
641,566.3900595661232
642,566.2687896658385
643,566.1702404050495
644,566.0984022200099
645,566.0553298788973
646,566.0408056486128
647,566.0522908180997
648,566.0851963189453
649,566.1334390866609
650,566.1901819532053
651,566.2486087061333
652,566.3025886812841
653,566.3471417521347
654,566.378690930441
655,566.3951371789998
656,566.395793715184
657,566.3812003767367
658,566.3528351541443
659,566.3127627162307
660,566.2632934147105
661,566.2067354258386
662,566.1452844722728
663,566.0810283899964
664,566.015994176726
665,565.9521661281224
666,565.8914462772553
667,565.835571515134
668,565.786012931255
669,565.7438674464697
670,565.7097412730052
671,565.6836417557855
672,565.6649283956184
673,565.6523892234749
674,565.6444771608739
675,565.6396714466929
676,565.6368619029696
677,565.6356284970863
678,565.636320008343
679,565.6399092892563
680,565.6476802535083
681,565.6608405945739
682,565.6801442706425
683,565.705580270337
684,565.7361691622806
685,565.7699019045143
686,565.8038379250166
687,565.8343516450798
688,565.8574961196169
689,565.8694518201768
690,565.867036874236
691,565.8482442495115
692,565.8127305608026
693,565.7621408241531
694,565.7001585771372
695,565.6322299883966
696,565.5649877600881
697,565.5054574375554
698,565.4601570947148
699,565.4342125883537
700,565.430612857596
701,565.4497202621981
702,565.4891218315449
703,565.5438590507906
704,565.6070164364996
705,565.6705888077563
706,565.7264900527076
707,565.7675336267845
708,565.7882286162012
709,565.7852879090436
710,565.7578077809228
711,565.7071327579554
712,565.6364673287065
713,565.5503359388513
714,565.4540093445974
715,565.3529955214191
716,565.2526435492786
717,565.1578550531024
718,565.0728684883753
719,565.0010839176555
720,564.9449119898617
721,564.9056473578474
722,564.8833885421578
723,564.8770504502937
724,564.8845208757809
725,564.9029834190652
726,564.9293748920691
727,564.9608871812802
728,564.9953862651374
729,565.0316261707887
730,565.0691882225728
731,565.1081580784282
732,565.1486352084866
733,565.1902207750335
734,565.2316283705742
735,565.2705150016851
736,565.3035721712373
737,565.3268735856861
738,565.3364386750892
739,565.3289270109472
740,565.3023419711457
741,565.2566170923028
742,565.1939862828735
743,565.119079073844
744,565.0387191159459
745,564.9614367685583
746,564.8967372479399
747,564.8541938952636
748,564.842459974332
749,564.8683093251335
750,564.9358197397083
751,565.0457958813355
752,565.1954927934275
753,565.3786634370888
754,565.5859341120407
755,565.805506430248
756,566.0241637516913
757,566.2285070036406
758,566.4062840103287
759,566.5476435347914
760,566.6461498083718
761,566.6994270795254
762,566.7093603883737
763,566.6818494430152
764,566.6261778985642
765,566.5541018849513
766,566.478776100324
767,566.413631666513
768,566.3713024140219
769,566.362668943811
770,566.3960647329498
771,566.4766760438097
772,566.6061647714124
773,566.7825448033997
774,567.0003429102289
775,567.2510612209368
776,567.5239190336943
777,567.8068001296546
778,568.0872969938479
779,568.3537403117889
780,568.596119763089
781,568.8068218386168
782,568.9811270993224
783,569.1174283521408
784,569.2171533401461
785,569.2843990759736
786,569.3253160702538
787,569.3473214187801
788,569.3582509428785
789,569.3655602863854
790,569.3756581047122
791,569.3934234658714
792,569.4219332772959
793,569.4623993495237
794,569.5142893501884
795,569.5755885046406
796,569.643151458752
797,569.7130958333969
798,569.7812058957
799,569.843342556777
800,569.8958679138548
801,569.9360659493834
802,569.9624903798738
803,569.9751389078158
804,569.9753728505723
805,569.96556675078
806,569.9485474068744
807,569.9269332949943
808,569.9025077969633
809,569.875759558084
810,569.8457005999525
811,569.8100242208545
812,569.7655910924748
813,569.709143937451
814,569.6380806152137
815,569.5511024005613
816,569.4486050146518
817,569.332757624596
818,569.2072791263396
819,569.0769611394196
820,568.9470171246516
821,568.8223661949663
822,568.7069774508534
823,568.603389311867
824,568.5124757144782
825,568.4334716306831
826,568.3642187337183
827,568.30156749415
828,568.2418719417553
829,568.1815186542633
830,568.1174293051015
831,568.0474718554224
832,567.9707249730293
833,567.8875708781616
834,567.7996308297056
835,567.7095805612302
836,567.6208780692278
837,567.5374182479518
838,567.4631245089097
839,567.4015050531162
840,567.3552273181817
841,567.3257836302646
842,567.3133250561973
843,567.3167167176766
844,567.3338098004996
845,567.3618534909775
846,567.3979264404508
847,567.4392788411716
848,567.4835291087326
849,567.5287160846349
850,567.5732402907611
851,567.6157356641405
852,567.6549168756586
853,567.689458996372
854,567.7179729743156
855,567.7391218509807
856,567.7518729359274
857,567.7558141137202
858,567.7514124899512
859,567.7400989001894
860,567.7241276033279
861,567.706248879149
862,567.6892956293216
863,567.6757994499868
864,567.667721308956
865,567.666327220872
866,567.6721849252815
867,567.6852275353024
868,567.704839231442
869,567.7299536904854
870,567.7591783925437
871,567.7909416825595
872,567.8236254199605
873,567.8556354521861
874,567.8853916306537
875,567.9112716323118
876,567.931584313681
877,567.9446475682107
878,567.9489979973998
879,567.9436958903658
880,567.9286468834637
881,567.9048504796574
882,567.8744926862582
883,567.8408207500834
884,567.8077769029655
885,567.7794224458393
886,567.7592411637091
887,567.7494517114828
888,567.7504602879154
889,567.760549493135
890,567.7758568923701
891,567.790664742538
892,567.7979847112699
893,567.7903665782053
894,567.7608089235348
895,567.7036315703962
896,567.6151875162003
897,567.4943298773164
898,567.3425949760716
899,567.164109177875
900,566.9652604107803
901,566.7541860640006
902,566.5401309052351
903,566.3327403456669
904,566.1413659480846
905,565.9744446642953
906,565.8389704198893
907,565.7400393966662
908,565.6804477098176
909,565.6603505137134
910,565.6770329133516
911,565.7248723802206
912,565.7955721674741
913,565.8787074586776
914,565.9625608564371
915,566.0351587316237
916,566.085380913947
917,566.1040106713667
