frame_number,force
0,738.5403400076194
1,738.5464096081635
2,738.5524605440536
3,738.5584741711602
4,738.5644318935215
5,738.5703152034725
6,738.5761057366781
7,738.5817853415098
8,738.587336160215
9,738.5927407184031
10,738.5979820188619
11,738.6030436351487
12,738.6079097997998
13,738.6125654814905
14,738.6169964450698
15,738.6211892883767
16,738.6251314506434
17,738.6288111894229
18,738.6322175258236
19,738.6353401603398
20,738.6381693629035
21,738.6406958410187
22,738.6429105897183
23,738.6448047273408
24,738.6463693219641
25,738.6475952145851
26,738.6484728462517
27,738.6489920966667
28,738.6491421409388
29,738.6489113294833
30,738.648287094133
31,738.6472558818203
32,738.6458031160868
33,738.6439131863689
34,738.6415694653036
35,738.638754354583
36,738.6354493598243
37,738.6316351946639
38,738.6272919139514
39,738.6223990750433
40,738.6169359243568
41,738.6108816039998
42,738.6042153715684
43,738.5969168258084
44,738.5889661316426
45,738.5803442394252
46,738.5710330947363
47,738.5610158362605
48,738.5502769800513
49,738.538802588721
50,738.5265804240745
51,738.5136000815804
52,738.4998531048032
53,738.4853330776165
54,738.4700356918702
55,738.4539587880975
56,738.4371023666439
57,738.4194685665632
58,738.401061610379
59,738.3818877143498
60,738.3619549653235
61,738.341273165862
62,738.3198536492987
63,738.2977090664789
64,738.2748531461991
65,738.2513004314991
66,738.2270659941264
67,738.2021651303495
68,738.176613042875
69,738.1504245149106
70,738.1236135823914
71,738.0961932093031
72,738.0681749699803
73,738.039568741949
74,738.0103824131251
75,737.9806216074408
76,737.9502894329213
77,737.9193862558176
78,737.8879095037737
79,737.855853500401
80,737.8232093331887
81,737.7899647561306
82,737.7561041274173
83,737.7216083812299
84,737.6864550318429
85,737.6506182082187
86,737.614068717409
87,737.5767741348582
88,737.5386989194947
89,737.4998045519128
90,737.4600496948674
91,737.4193903762289
92,737.3777801952737
93,737.3351705539848
94,737.2915109159082
95,737.2467490955202
96,737.2008315805887
97,737.1537038888404
98,737.1053109588393
99,737.055597573658
100,737.0045088146954
101,736.9519905419578
102,736.8979898963969
103,736.8424558194763
104,736.7853395848819
105,736.7265953371927
106,736.6661806324985
107,736.6040569763976
108,736.5401903552082
109,736.4745517561373
110,736.4071176715778
111,736.3378705820951
112,736.2667994123597
113,736.1938999541567
114,736.1191752504352
115,736.042635934293
116,735.9643005171669
117,735.8841956215681
118,735.8023561553473
119,735.7188254261619
120,735.6336551960014
121,735.5469056762826
122,735.4586454646375
123,735.368951425497
124,735.277908517748
125,735.1856095734797
126,735.0921550316591
127,734.9976526299013
128,734.9022170572479
129,734.8059695713486
130,734.7090375840886
131,734.6115542199335
132,734.5136578511768
133,734.4154916142857
134,734.3172029115553
135,734.2189429017246
136,734.12086598175
137,734.0231292599354
138,733.9258920186123
139,733.829315162959
140,733.7335606517207
141,733.6387909058816
142,733.545168192704
143,733.4528539843308
144,733.362008291808
145,733.2727889769687
146,733.1853510462936
147,733.0998459324204
148,733.0164207698189
149,732.935217670856
150,732.8563730073118
151,732.7800167012974
152,732.706271529373
153,732.6352524445869
154,732.56706592243
155,732.5018093375808
156,732.4395703786672
157,732.3804265084713
158,732.3244444772713
159,732.271679897328
160,732.2221768868313
161,732.1759677918346
162,732.1330729943194
163,732.0935008129615
164,732.0572475004097
165,732.0242973374975
166,731.9946228213029
167,731.9681849408429
168,731.9449335320854
169,731.9248077032064
170,731.9077363211435
171,731.8936385507342
172,731.8824244377344
173,731.8739955270543
174,731.8682455081017
175,731.8650608802274
176,731.8643216323145
177,731.8659019310882
178,731.8696708130116
179,731.8754928751421
180,731.8832289608544
181,731.8927368364493
182,731.9038718543425
183,731.9164875981736
184,731.9304365051966
185,731.9455704617977
186,731.9617413686594
187,731.9788016725086
188,731.9966048615756
189,732.0150059221778
190,732.0338617542589
191,732.053031543859
192,732.0723770904771
193,732.0917630878611
194,732.111057358149
195,732.1301310406355
196,732.1488587367792
197,732.167118612587
198,732.1847924594645
199,732.2017657159396
200,732.2179274553031
201,732.2331703472223
202,732.2473906036104
203,732.2604879196792
204,732.2723654203809
205,732.2829296210076
206,732.2920904087971
207,732.2997610498359
208,732.3058582227825
209,732.3103020786738
210,732.3130163247023
211,732.3139283293268
212,732.3129692463482
213,732.3100741563262
214,732.3051822243343
215,732.2982368731763
216,732.2891859707489
217,732.2779820293185
218,732.2645824135178
219,732.2489495535033
220,732.2310511600031
221,732.2108604382953
222,732.1883562979698
223,732.1635235545705
224,732.1363531180745
225,732.1068421621214
226,732.0749942677398
227,732.040819536277
228,732.0043346677335
229,731.9655630021259
230,731.9245345228928
231,731.8812858230044
232,731.8358600362923
233,731.7883067382155
234,731.73868182142
235,731.6870473516924
236,731.6334714094128
237,731.5780279210059
238,731.5207964845391
239,731.4618621931459
240,731.4013154590377
241,731.3392518396744
242,731.2757718664014
243,731.2109808745321
244,731.1449888325485
245,731.0779101673935
246,731.0098635831724
247,730.9409718715407
248,730.8713617123985
249,730.8011634625939
250,730.7305109286347
251,730.6595411176895
252,730.5883939596488
253,730.517211991982
254,730.4461399992931
255,730.3753246013522
256,730.304913786354
257,730.2350563888813
258,730.165901513649
259,730.0975979068762
260,730.0302932779068
261,729.9641335749876
262,729.8992622208413
263,729.8358193155957
264,729.7739408165855
265,729.7137577064669
266,729.6553951629024
267,729.598971744827
268,729.5445986118881
269,729.4923787943627
270,729.4424065299478
271,729.3947666814114
272,729.3495342459388
273,729.3067739635464
274,729.2665400281263
275,729.2288759005066
276,729.1938142188692
277,729.1613767988076
278,729.1315747140796
279,729.1044084499493
280,729.0798681232403
281,729.0579337654277
282,729.0385756661477
283,729.0217547741692
284,729.0074231517408
285,728.995524477023
286,728.9859945883977
287,728.9787620638814
288,728.973748828663
289,728.9708707840647
290,728.9700384519653
291,728.9711576295683
292,728.9741300497847
293,728.9788540422816
294,728.9852251898365
295,728.9931369743429
296,729.0024814064667
297,729.0131496322703
298,729.0250325092838
299,729.0380211440092
300,729.0520073833566
301,729.0668842545414
302,729.0825463512126
303,729.0988901669532
304,729.11581437964
305,729.1332200911925
306,729.1510110275098
307,729.1690937034052
308,729.1873775571039
309,729.2057750584413
310,729.2242017947253
311,729.242576538485
312,729.2608213016316
313,729.2788613805303
314,729.2966253963151
315,729.3140453349708
316,729.3310565923849
317,729.3475980302544
318,729.3636120487636
319,729.3790446809928
320,729.3938457121266
321,729.4079688241269
322,729.421371764287
323,729.4340165344062
324,729.4458695960213
325,729.4569020856775
326,729.4670900324875
327,729.4764145687145
328,729.4848621234204
329,729.4924245895368
330,729.4990994558852
331,729.5048898975914
332,729.509804820766
333,729.5138588596064
334,729.5170723256975
335,729.5194711104269
336,729.5210865424933
337,729.5219552033777
338,729.5221187040094
339,729.5216234256901
340,729.5205202280786
341,729.5188641270648
342,729.5167139456776
343,729.5141319414629
344,729.5111834136715
345,729.5079362927415
346,729.5044607129392
347,729.5008285672843
348,729.4971130429556
349,729.493388135353
350,729.489728139114
351,729.4862071141164
352,729.4828983246068
353,729.479873651395
354,729.4772029806512
355,729.4749535765577
356,729.4731894471092
357,729.4719707124744
358,729.4713529844955
359,729.471386765096
360,729.4721168711071
361,729.4735818935374
362,729.4758137003665
363,729.4788369926779
364,729.4826689234474
365,729.4873187866089
366,729.4927877820365
367,729.4990688606175
368,729.506146652691
369,729.513997482482
370,729.5225894705043
371,729.5318827250854
372,729.5418296229677
373,729.5523751772577
374,729.5634574888059
375,729.5750082743907
376,729.5869534620672
377,729.5992138414776
378,729.6117057557849
379,729.6243418225343
380,729.637031672603
381,729.6496826984753
382,729.6622008046717
383,729.6744911539296
384,729.6864589026217
385,729.6980099180162
386,729.7090514686838
387,729.7194928783315
388,729.7292461334285
389,729.7382264365693
390,729.7463527002349
391,729.7535479787437
392,729.7597398392775
393,729.7648606758738
394,729.7688479729297
395,729.7716445264226
396,729.7731986313595
397,729.7734642432125
398,729.7724011199008
399,729.7699749498207
400,729.7661574707474
401,729.7609265837608
402,729.7542664648498
403,729.7461676741525
404,729.7366272595839
405,729.7256488492479
406,729.7132427263032
407,729.6994258804941
408,729.6842220315075
409,729.6676616202396
410,729.6497817649672
411,729.6306261801801
412,729.6102450561806
413,729.5886948975909
414,729.5660383191812
415,729.5423437982464
416,729.5176853837532
417,729.4921423630649
418,729.4657988871724
419,729.438743555569
420,729.4110689626734
421,729.3828712089589
422,729.3542493812492
423,729.3253050077454
424,729.2961414942441
425,729.2668635486791
426,729.2375766015033
427,729.2083862295523
428,729.1793975909894
429,729.1507148787729
430,729.1224407996932
431,729.0946760852112
432,729.0675190390886
433,729.0410651254225
434,729.0154065993444
435,728.9906321813878
436,728.9668267755002
437,728.9440712300163
438,728.9224421405239
439,728.9020116930229
440,728.8828475448644
441,728.8650127398628
442,728.8485656532877
443,728.8335599625316
444,728.8200446400142
445,728.8080639659362
446,728.7976575597637
447,728.788860431031
448,728.7817030521435
449,728.7762114574738
450,728.7724073731334
451,728.7703083800778
452,728.7699281104689
453,728.7712764745643
454,728.774359913407
455,728.7791816714055
456,728.7857420828407
457,728.7940388676545
458,728.8040674340597
459,728.8158211875007
460,728.8292918464612
461,728.8444697653347
462,728.8613442632688
463,728.8799039561192
464,728.9001370872941
465,728.9220318529718
466,728.9455767177702
467,728.9707607175749
468,728.9975737462111
469,729.0260068219734
470,729.0560523291906
471,729.0877042296064
472,729.1209582388817
473,729.1558119652922
474,729.1922650107019
475,729.2303190374262
476,729.2699778072943
477,729.311247200018
478,729.3541352169116
479,729.3986519739906
480,729.444809686352
481,729.492622644029
482,729.542107178553
483,729.5932816191479
484,729.6461662372134
485,729.7007831771398
486,729.7571563709993
487,729.8153114349967
488,729.8752755466579
489,729.9370773029403
490,730.0007465604783
491,730.0663142602615
492,730.1338122401518
493,730.2032730392649
494,730.2747296980162
495,730.3482155567375
496,730.42376405441
497,730.5014085271931
498,730.5811820043724
499,730.6631169981349
500,730.7472452841105
501,730.8335976716951
502,730.922203765484
503,731.0130917204187
504,731.1062879932437
505,731.2018170923171
506,731.2997013275217
507,731.3999605620664
508,731.5026119679746
509,731.6076697868295
510,731.715145096983
511,731.8250455878483
512,731.9373753411093
513,732.0521346179312
514,732.1693196508322
515,732.2889224388867
516,732.4109305455281
517,732.53532689926
518,732.6620895986335
519,732.7911917236795
520,732.9226011566572
521,733.0562804154084
522,733.1921865023752
523,733.3302707714248
524,733.470478813567
525,733.6127503619584
526,733.7570192163743
527,733.90321318744
528,734.0512540612738
529,734.2010575857676
530,734.3525334805341
531,734.5055854733218
532,734.6601113659227
533,734.8160031321221
534,734.9731470496696
535,735.1314238685115
536,735.2907090187415
537,735.4508728627426
538,735.6117809954279
539,735.773294594205
540,735.9352708174245
541,736.0975632476841
542,736.2600223748436
543,736.4224961130521
544,736.5848303464808
545,736.7468694992662
546,736.9084571255289
547,737.0694365146743
548,737.2296513057935
549,737.3889461037825
550,737.5471670896989
551,737.7041626190697
552,737.8597838036717
553,738.0138850739054
554,738.1663247199629
555,738.316965410778
556,738.465674690389
557,738.6123254514993
558,738.7567963852932
559,738.8989724050525
560,739.0387450394554
561,739.1760127901526
562,739.3106814473783
563,739.442664356847
564,739.5718826309098
565,739.6982652972049
566,739.8217493792777
567,739.9422799057905
568,740.0598098474975
569,740.1742999839563
570,740.2857187048703
571,740.3940417534338
572,740.4992519205729
573,740.6013386997239
574,740.7002979122337
575,740.7961313135667
576,740.8888461899088
577,740.9784549534162
578,741.0649747428397
579,741.1484270351889
580,741.2288372734738
581,741.30623451495
582,741.3806511034641
583,741.4521223686074
584,741.5206863536148
585,741.5863835733323
586,741.649256803186
587,741.7093508997195
588,741.7667126524848
589,741.8213906656304
590,741.8734352660442
591,741.9228984342119
592,741.9698337542803
593,742.0142963806989
594,742.0563430197635
595,742.0960319252804
596,742.1334229082984
597,742.1685773612899
598,742.2015582972334
599,742.2324304037455
600,742.2612601114827
601,742.2881156743596
602,742.3130672571914
603,742.3361870250408
604,742.3575492282617
605,742.377230277725
606,742.3953088054417
607,742.411865706406
608,742.4269841581041
609,742.4407496152662
610,742.4532497790879
611,742.464574541713
612,742.4748159075665
613,742.484067892882
614,742.492426403788
615,742.4999890922419
616,742.506855188494
617,742.5131253086946
618,742.5189012364137
619,742.524285677079
620,742.5293819846667
621,742.5342938604558
622,742.5391250244677
623,742.5439788615203
624,742.5489580454881
625,742.5541641469093
626,742.5596972303358
627,742.5656554489776
628,742.5721346451817
629,742.5792279654719
630,742.5870254977061
631,742.595613935654
632,742.6050762738371
633,742.6154915335283
634,742.6269345196897
635,742.6394756082381
636,742.6531805628865
637,742.6681103804824
638,742.6843211633598
639,742.7018640173842
640,742.7207849752907
641,742.7411249459644
642,742.7629196907162
643,742.7861998274388
644,742.8109908635586
645,742.8373132591867
646,742.8651825222726
647,742.894609337169
648,742.9255997268469
649,742.9581552475307
650,742.9922732131957
651,743.0279469463893
652,743.0651660511236
653,743.1039167029319
654,743.14418195052
655,743.1859420229872
656,743.2291746363886
657,743.2738552934261
658,743.3199575703919
659,743.3674533861217
660,743.4163132483305
661,743.466506473157
662,743.5180013743521
663,743.5707654198344
664,743.6247653552928
665,743.679967296643
666,743.736336794599
667,743.7938388748858
668,743.8524380569888
669,743.9120983537783
670,743.9727832545252
671,744.0344556946075
672,744.09707801603
673,744.160611923448
674,744.2250184407128
675,744.290257873161
676,744.3562897808486
677,744.4230729673963
678,744.4905654878946
679,744.5587246777895
680,744.6275072035015
681,744.6968691351736
682,744.7667660423725
683,744.8371531143807
684,744.9079853071437
685,744.9792175182085
686,745.05080478904
687,745.122702531604
688,745.194866773857
689,745.2672544170778
690,745.3398234968333
691,745.4125334388517
692,745.4853453013745
693,745.5582219966454
694,745.6311284857196
695,745.704031942603
696,745.7769018858218
697,745.8497102776468
698,745.922431592899
699,745.9950428601999
700,746.0675236787494
701,746.1398562134785
702,746.2120251711198
703,746.2840177595343
704,746.3558236324465
705,746.4274348214219
706,746.4988456565262
707,746.5700526767935
708,746.6410545315812
709,746.7118518742062
710,746.7824472499362
711,746.8528449811239
712,746.9230510522516
713,746.9930729964835
714,747.0629197834076
715,747.1326017059462
716,747.2021302637696
717,747.2715180411934
718,747.3407785788987
719,747.4099262397856
720,747.4789760691152
721,747.5479436480587
722,747.6168449388902
723,747.685696120043
724,747.7545134097553
725,747.823312877318
726,747.892110240926
727,747.9609206514648
728,748.029758462807
729,748.0986369911508
730,748.1675682677375
731,748.2365627903278
732,748.3056292793729
733,748.3747744452177
734,748.444002772789
735,748.5133163298048
736,748.5827146036
737,748.6521943703026
738,748.7217495985519
739,748.7913713885089
740,748.861047945634
741,748.930764587441
742,749.0005037801955
743,749.0702452017182
744,749.1399658262335
745,749.2096400272549
746,749.2792396943737
747,749.3487343593492
748,749.4180913263176
749,749.4872758008147
750,749.5562510130652
751,749.6249783324913
752,749.6934173720433
753,749.7615260823791
754,749.82926083728
755,749.8965765132609
756,749.9634265677737
757,750.0297631210342
758,750.0955370461243
759,750.160698071166
760,750.2251948966187
761,750.2889753302559
762,750.3519864419459
763,750.4141747398552
764,750.475486369036
765,750.5358673324891
766,750.5952637338239
767,750.6536220399902
768,750.7108893625546
769,750.76701375644
770,750.8219445353135
771,750.875632602547
772,750.9280307960202
773,750.9790942442496
774,751.0287807304162
775,751.0770510598111
776,751.1238694251215
777,751.1692037630166
778,751.213026094921
779,751.2553128449338
780,751.2960451285066
781,751.3352090063147
782,751.3727956984027
783,751.4088017542377
784,751.4432291749818
785,751.4760854851887
786,751.5073837520766
787,751.5371425514755
788,751.5653858807001
789,751.59214302011
790,751.6174483469985
791,751.6413411075058
792,751.6638651541479
793,751.6850686577304
794,751.7050038024742
795,751.723726471985
796,751.7412959316157
797,751.7577745104883
798,751.7732272845375
799,751.7877217604214
800,751.8013275587704
801,751.8141160942579
802,751.8261602499483
803,751.8375340443974
804,751.848312291446
805,751.8585702538197
806,751.8683832920841
807,751.8778265100309
808,751.8869743963453
809,751.8959004609882
810,751.9046768640256
811,751.9133740351292
812,751.9220602834167
813,751.9308013992553
814,751.9396602520917
815,751.9486963911945
816,751.9579656586419
817,751.9675198250402
818,751.9774062579428
819,751.9876676310724
820,751.9983416800117
821,752.0094610079614
822,752.0210529440487
823,752.0331394562395
824,752.0457371203793
825,752.0588571458602
826,752.0725054571813
827,752.086682829455
828,752.1013850744868
829,752.1166032724831
830,752.1323240434958
831,752.1485298529057
832,752.1651993461629
833,752.1823077088349
834,752.1998270482551
835,752.2177267925999
836,752.2359741021922
837,752.254534286771
838,752.2733712218323
839,752.2924477569884
840,752.3117261093812
841,752.3311682355655
842,752.3507361762216
843,752.3703923697808
844,752.3900999333924
845,752.4098229120802
846,752.429526498782
847,752.4491772287314
848,752.4687431512484
849,752.488193980817
850,752.5075012278227
851,752.5266383078647
852,752.5455806274888
853,752.5643056439357
854,752.5827928970327
855,752.6010240120942
856,752.6189826732441
857,752.6366545670945
858,752.6540272976059
859,752.6710902745581
860,752.6878345803358
861,752.7042528219703
862,752.7203389765324
863,752.7360882376598
864,752.7514968698054
865,752.7665620754182
866,752.781281878785
867,752.7956550285522
868,752.8096809194534
869,752.8233595330548
870,752.8366913973686
871,752.8496775652385
872,752.8623196107759
873,752.874619641702
874,752.8865803235334
875,752.8982049094847
876,752.9094972682317
877,752.9204619008752
878,752.9311039388505
879,752.9414291157519
880,752.9514437074426
881,752.9611544362631
882,752.9705683369415
883,752.9796925839987
884,752.9885342826597
885,752.9971002271744
886,753.0053966320468
887,753.0134288431602
888,753.0212010371777
889,753.0287159185194
890,753.0359744234289
891,753.0429754401509
892,753.0497155533142
893,753.056188819434
894,753.0623865792056
895,753.068297311089
896,753.0739065296539
897,753.0791967310365
898,753.0841473865462
899,753.0887349843138
900,753.0929331183885
901,753.0967126245663
902,753.100041761866
903,753.1028864378867
904,753.105210475694
905,753.1069759194855
906,753.1081433758695
907,753.1086723871686
908,753.1085218330106
909,753.1076503566508
910,753.1060168125084
911,753.1035807307418
912,753.1003027933599
913,753.0961453150604
914,753.0910727211112
915,753.0850520139606
916,753.0780532197404
917,753.0700498059022
918,753.0610190621535
