acceleration,velocity,displacement
-0.08182395032344193,0.0,0.0
-0.07877782021689943,-8.030088527017069e-05,-4.0150442635085346e-08
-0.07582814401398395,-0.00015760386738561237,-1.5910281896297688e-07
-0.07305448218473441,-0.00023204518048497154,-3.539273428982688e-07
-0.07050573653527249,-0.000303825289844975,-6.218625780632421e-07
-0.06819175796598254,-0.0003731740370956025,-9.603622415335309e-07
-0.06608132381059591,-0.0004403105779838917,-1.367104549073278e-06
-0.06410640136229752,-0.0005054044405703384,-1.8399620583503931e-06
-0.06217183913350037,-0.0005685435608182374,-2.376936059044681e-06
-0.06016899030752736,-0.0006297139755387512,-2.9760648272231756e-06
-0.05799119907269774,-0.0006887940702288637,-3.635318850106983e-06
-0.055548760772913756,-0.0007455640501516695,-4.35249791029725e-06
-0.052781114814611334,-0.000799728987945432,-5.125144429345801e-06
-0.04966463008544299,-0.0008509518603954592,-5.950484853516246e-06
-0.04621520638703037,-0.0008988917786316959,-6.825406673029824e-06
-0.04248580846564598,-0.0009432422860580341,-7.746473705374688e-06
-0.03855972706255319,-0.0009837650538221338,-8.709977375314773e-06
-0.03454066962301198,-0.0010203152521649163,-9.712017528308298e-06
-0.03054083211253686,-0.0010528560030326907,-1.07486031559071e-05
-0.026668212691042463,-0.0010814605254344802,-1.1815761420140686e-05
-0.02301474499587995,-0.0011063020042779415,-1.2909642684996897e-05
-0.019647070224649073,-0.001127632911888206,-1.4026610143079971e-05
-0.016601505072884742,-0.001145757199536973,-1.516330519879256e-05
-0.013883899997610473,-0.0011609999020722205,-1.6316683749597158e-05
-0.011473946949666379,-0.001173678825545859,-1.74840231134062e-05
-0.009332567556849433,-0.0011840820827991169,-1.8662903567578687e-05
-0.0074105988585313224,-0.0011924536660068072,-1.985117144198165e-05
-0.005657086995595164,-0.0011989875089338704,-2.104689202945199e-05
-0.004025900951531457,-0.0012038290029074336,-2.2248300285372642e-05
-0.0024799029469217944,-0.0012070819048566603,-2.345375573925469e-05
-0.0009924871253201972,-0.0012088180998927813,-2.466170574162941e-05
0.0004531004592529667,-0.0012090877932258149,-2.5870658688188707e-05
0.0018657751220933906,-0.0012079283554351416,-2.7079166762519185e-05
0.0032489861225566247,-0.0012053709748128167,-2.8285816427643164e-05
0.004602820999126864,-0.001201445071251975,-2.948922445067556e-05
0.005925742372070705,-0.0011961807895663763,-3.0688037381084734e-05
0.007216199807265687,-0.0011896098184767082,-3.188093268510628e-05
0.008474231249182819,-0.001181764602948484,-3.306661989581887e-05
0.00970262672135128,-0.001172676173963217,-3.424384028427472e-05
0.010906782295936876,-0.0011623714694545728,-3.5411364105983614e-05
0.012092563958429085,-0.0011508717963273898,-3.65679857388746e-05
0.013262344027661311,-0.0011381943423343446,-3.771251880820546e-05
0.014410345017354295,-0.0011243579978118367,-3.8843794978278554e-05
0.015518919516669616,-0.0011093933655448248,-3.996067065995688e-05
0.016557178270431606,-0.0010933553166512743,-4.106204500105493e-05
0.01748266663619268,-0.0010763353941979621,-4.214689035647955e-05
0.018245925000734384,-0.0010584710983794986,-4.321429360276828e-05
0.01879704770756937,-0.0010399496120253467,-4.4263503957970704e-05
0.019093071818318225,-0.001021004552262403,-4.529398104011458e-05
0.01910525497428671,-0.0010019053888661005,-4.6305436010678826e-05
0.018825659513459367,-0.0009829399316222274,-4.729785867092299e-05
0.018272489319788976,-0.0009643908572056032,-4.827152406533691e-05
0.0174933410514715,-0.000946507942019973,-4.9226973464949694e-05
0.016565339506585786,-0.0009294786017409443,-5.016496673683015e-05
0.015591340147045316,-0.0009134002619141287,-5.1086406168657686e-05
0.014691995052862812,-0.0008982585943141747,-5.199223559677184e-05
0.013994277212555853,-0.0008839154581814653,-5.2883322623019664e-05
0.013617763453577724,-0.0008701094378483985,-5.37603350710346e-05
0.013660375633969954,-0.0008564703683046247,-5.462362497411111e-05
0.01418535997880042,-0.0008425475004982394,-5.5473133908512536e-05
0.015211170725840054,-0.0008278492351459192,-5.630833227633462e-05
0.016705636176383192,-0.0008118908316948075,-5.712820230975498e-05
0.018585250237279242,-0.0007942453884879763,-5.793127041984637e-05
0.020719778280657818,-0.0007745928742290078,-5.871568955120486e-05
0.0229418860689677,-0.000752762042054195,-5.947936700934646e-05
0.02506124529353441,-0.000728760476372944,-6.022012826856003e-05
0.02688227029854605,-0.0007027887185769037,-6.093590286603495e-05
0.028224100581213732,-0.0006752355331370238,-6.162491499189191e-05
0.028940777220557743,-0.0006466530942361381,-6.22858593055785e-05
0.0289390439849959,-0.0006177131836333612,-6.291804244451325e-05
0.02819108693579186,-0.0005891481181729673,-6.352147309541642e-05
0.026739995602331167,-0.0005616825769039058,-6.409688844295486e-05
0.024696808065965088,-0.0005359641750697577,-6.464571181894168e-05
0.022229407924925046,-0.0005125010670743126,-6.516994444001372e-05
0.019544793505898918,-0.0004916139663589007,-6.567200195673033e-05
0.01686705390599049,-0.00047340804265295596,-6.615451296123626e-05
0.014413862058011925,-0.00045776758467095475,-6.662010077489821e-05
0.012374564104135465,-0.00044437337158988107,-6.707117125302863e-05
0.010892789506871907,-0.0004327396947843774,-6.750972778621575e-05
0.01005563705364402,-0.00042226548150411946,-6.793723037436001e-05
0.009890098631058232,-0.00041229261366176835,-6.835450942194295e-05
0.01036609002653509,-0.0004021645193329717,-6.876173798844031e-05
0.011404714918621928,-0.0003912791168603932,-6.915845980653699e-05
0.012890121344405115,-0.00037913169872887966,-6.954366521433163e-05
0.014683231902474007,-0.0003653450221054401,-6.991590357474878e-05
0.01663563100354987,-0.00034968559065242814,-7.027341888112771e-05
0.01860201232686149,-0.0003320667689872225,-7.061429506094753e-05
0.020449907997920173,-0.00031254080882483164,-7.093659884985356e-05
0.022066067268205983,-0.0002912828211917686,-7.123851066486186e-05
0.02335975227255744,-0.00026856991142138684,-7.151843703116844e-05
0.024263900962433013,-0.00024475808480389164,-7.177510102928109e-05
0.024735142415148022,-0.00022025856311510113,-7.200760935324059e-05
0.024753157343627912,-0.00019551441323571316,-7.2215495841416e-05
0.024319376768972056,-0.00017097814617941318,-7.239874212112355e-05
0.02345491202265251,-0.0001470910017836009,-7.255777669510506e-05
0.022197878318065523,-0.00012426460661324189,-7.269345449930348e-05
0.0206005173793962,-0.00010286540876451102,-7.280701950699236e-05
0.01872642193759116,-8.320193910601735e-05,-7.290005318092762e-05
0.016647788532733614,-6.551483387085496e-05,-7.297441156741606e-05
0.014442288000251121,-4.996979560436259e-05,-7.303215388215367e-05
0.012189112277017989,-3.6654095465728034e-05,-7.307546582768872e-05
0.009964095682355711,-2.5577491486041185e-05,-7.31065816211646e-05
0.007834303591186215,-1.6678291849270223e-05,-7.312770951283225e-05
0.005852786129270494,-9.834746989041868e-06,-7.31409660322514e-05
0.004054195698935939,-4.881256074938651e-06,-7.314832403378339e-05
0.002451890416511472,-1.628213017214946e-06,-7.315157876832946e-05
0.0010371901858586576,1.1632728397011893e-07,-7.315233471119609e-05
-0.00021853849179875144,5.25653131000072e-07,-7.31520137209886e-05
-0.0013586169567037358,-2.6292459325117154e-07,-7.315188235671973e-05
-0.00243295624591321,-2.1587111945596443e-06,-7.315309317461364e-05
-0.0034883308718524028,-5.11935475344245e-06,-7.315673220758764e-05
-0.004558922973687034,-9.142981676212169e-06,-7.316386337580247e-05
-0.005659220945045939,-1.4252053635578655e-05,-7.317556089345836e-05
-0.0067808743044822355,-2.047210126034274e-05,-7.319292297090633e-05
-0.00789414309379776,-2.780960995948274e-05,-7.321706382651624e-05
-0.008953465528023175,-3.623341427039321e-05,-7.324908533863118e-05
-0.009905712801113761,-4.566300343496168e-05,-7.329003354748387e-05
-0.010699216925544413,-5.596546829829077e-05,-7.334084778335049e-05
-0.011291779236957008,-6.696096637954148e-05,-7.340231100068941e-05
-0.011656387142783265,-7.843504956941161e-05,-7.347500900866389e-05
-0.011783989790953422,-9.015523803627996e-05,-7.355930415246674e-05
-0.01168330234196678,-0.00010188888410274006,-7.365532621353624e-05
-0.011378203508819644,-0.00011341963702813327,-7.376298047410168e-05
-0.010903728987751804,-0.000124560603276419,-7.388197059425395e-05
-0.010301767749742476,-0.00013516335164516613,-7.401183257171474e-05
-0.009617351724903859,-0.0001451229113824893,-7.415197570322857e-05
-0.00889608699850426,-0.00015437963074419337,-7.430172697429191e-05
-0.008182927670030885,-0.00016291913807846094,-7.446037635870324e-05
-0.0075221205963598185,-0.0001707716622116563,-7.462722175884829e-05
-0.006957744037296237,-0.0001780115945284843,-7.480161338721837e-05
-0.00653393435008341,-0.00018475743372217414,-7.498299790134369e-05
-0.006293855360757426,-0.00019117132857759457,-7.517096228249357e-05
-0.00627686475003312,-0.00019745668863298984,-7.536527629109887e-05
-0.006514021996690406,-0.0002038521320063516,-7.556593070141853e-05
-0.007022691383182335,-0.00021062048869628796,-7.577316701176986e-05
-0.007801271902665094,-0.00021803247033921167,-7.59874934912876e-05
-0.008825072030664875,-0.00022634564230587665,-7.620968254761015e-05
-0.010044223004114644,-0.0002357802898232664,-7.644074551367473e-05
-0.011384388378313069,-0.0002464945955144803,-7.66818829563436e-05
-0.012750816961605363,-0.0002585621981844395,-7.693441135319306e-05
-0.014035852247722391,-0.00027195553278910336,-7.719967021867983e-05
-0.015129280027668434,-0.00028653809892679875,-7.747891703453779e-05
-0.015930069804434364,-0.00030206777384285014,-7.777321997092261e-05
-0.01635758851603895,-0.0003182116030030868,-7.808335965934558e-05
-0.016360507637385686,-0.00033457065107979914,-7.840975078638701e-05
-0.01592221855027794,-0.00035071201417363095,-7.875239211901373e-05
-0.015062252055043005,-0.0003662042494762914,-7.911085025083868e-05
-0.013833750947846548,-0.0003806522509777362,-7.94842785010657e-05
-0.012317441284314857,-0.0003937278470938169,-7.987146855010148e-05
-0.010612827068904056,-0.0004051929812704263,-8.027092896428359e-05
-0.008827575565880619,-0.00041491318258781866,-8.068098204621272e-05
-0.00706633991702662,-0.0004228601403292723,-8.109986870767127e-05
-0.005420480566719952,-0.0004291035505711456,-8.152585055312148e-05
-0.003960050207631454,-0.0004337938159583213,-8.195729923638621e-05
-0.002728929806914196,-0.0004371383059655941,-8.239276529734818e-05
-0.001743397713910752,-0.0004393744697260066,-8.283102168519397e-05
-0.0009939662002870755,-0.00044074315168310553,-8.327108049589853e-05
-0.0004500542536301861,-0.0004414651619100642,-8.371218465269511e-05
-6.685604551413731e-05,-0.00044172361705963634,-8.415377904217996e-05
0.00020638919012020844,-0.0004416538504873333,-8.459546777595344e-05
0.0004175517539323785,-0.00044134188001530703,-8.503696564120476e-05
0.0006030391199293235,-0.0004408315845783762,-8.547805237350161e-05
0.0007805450221484867,-0.0004401397925073373,-8.591853806204446e-05
0.0009444705448697803,-0.0004392772847238282,-8.635824660066005e-05
0.0010654282319375072,-0.00043827233533542454,-8.679702141068967e-05
0.0010947460971429364,-0.0004371922481708843,-8.723475370244282e-05
0.0009738178756950163,-0.00043615796618446534,-8.76714288096205e-05
0.0006468350010818486,-0.0004353476397460769,-8.810718161258577e-05
7.43640821220865e-05,-0.00043498704020447496,-8.854234895256104e-05
-0.0007552623895891384,-0.00043532748935820847,-8.897750621734238e-05
-0.001819511457634837,-0.0004366148762818205,-8.941347740016239e-05
-0.0030618549276573578,-0.0004390555594744666,-8.985131261804054e-05
-0.004398604976490131,-0.0004427857894265403,-9.029223329249103e-05
-0.005730607094151989,-0.00044785039546186135,-9.073755138493524e-05
-0.0069568630202584475,-0.0004541941305190666,-9.11885736479257e-05
-0.007987129958721813,-0.00046166612700855673,-9.164650377668952e-05
-0.008751563169282892,-0.0004700354735725591,-9.211235457698008e-05
-0.009206769010056723,-0.0004790146396622289,-9.258687963359747e-05
-0.009338440054666181,-0.0004882872441945903,-9.307053057552589e-05
-0.009160951058044365,-0.0004975369397509456,-9.356344266749866e-05
-0.008714295329028125,-0.0005064745629444819,-9.406544841884637e-05
-0.008058841980789598,-0.0005148611315993907,-9.45761162661183e-05
-0.00726860229984549,-0.0005225248537397083,-9.509480925878785e-05
-0.006423828136092695,-0.0005293710689576774,-9.562075722013654e-05
-0.005603695578033237,-0.0005353848308147403,-9.615313517002274e-05
-0.004879661580539628,-0.0005406265093940267,-9.669114084012713e-05
-0.004309998260095472,-0.0005452213393143443,-9.723406476448132e-05
-0.0039359669353000075,-0.0005493443219120421,-9.778134759509452e-05
-0.0037799309614776158,-0.0005532022708604309,-9.833262089148076e-05
-0.003845388709581597,-0.0005570149306959605,-9.888772949225896e-05
-0.004118542209857117,-0.0005609968961556798,-9.944673540568478e-05
-0.0045707921226899005,-0.0005653415633219533,-0.00010000990463542359
-0.005161611235957381,-0.0005702077650012769,-0.0001005776792995852
-0.005841500581846719,-0.000575709320910179,-0.00010115063784254093
-0.006554938817573255,-0.000581907540609889,-0.00010172944627330096
-0.00724332790314282,-0.000588806673970247,-0.00010231480338059103
-0.007847982625133474,-0.0005963523292343852,-0.00010290738288219334
-0.00831317273125355,-0.0006044329069125787,-0.00010350777550026682
-0.008589031001378004,-0.0006128840087788944,-0.00010411643395811256
-0.008633901891872185,-0.0006214954752255195,-0.00010473362370011476
-0.008415677260662537,-0.0006300202648017869,-0.00010535938157012842
-0.007911976557248682,-0.0006381840917107425,-0.00010599348374838468
-0.007109548266589687,-0.0006456948541226616,-0.00010663542322130139
-0.006003671343719771,-0.0006522514639278164,-0.00010728439638032663
-0.004598249837642092,-0.0006575524245184973,-0.0001079392983245498
-0.002906637973202803,-0.0006613048684239198,-0.000108598726971021
-0.0009524939800011636,-0.0006632344344005218,-0.00010926099662243322
0.0012301800643089106,-0.0006630955913583679,-0.00010992416163531266
0.003598086342358995,-0.000660681458155034,-0.00011058605016006936
0.006100336500439122,-0.0006558322467336349,-0.0001112443070125137
0.008680163012124261,-0.0006484419969773532,-0.00011189644413436919
0.011276357384818468,-0.0006384637367788819,-0.0001125398970012473
0.01382472373983166,-0.0006259131962165568,-0.00011317208546774502
0.01626011859616619,-0.0006108707750485578,-0.00011379047745337757
0.018519441342020746,-0.0005934809950794643,-0.00011439265333844157
0.020545366383289614,-0.0005739485912168091,-0.00011497636813158971
0.022289998799326985,-0.0005525309086255009,-0.00011553960788151087
0.023717394789981708,-0.0005295272118308465,-0.00011608063694173904
0.024804236808328987,-0.0005052663960316911,-0.00011659803374567032
0.025538710044369653,-0.0004800949226053418,-0.00011709071440498884
0.02591835311752915,-0.00045436639102439244,-0.0001175579450618037
0.02594799776077462,-0.00042843321558524056,-0.00011799934486510852
0.025638771977462955,-0.00040263983071612175,-0.0001184148813882592
0.025008660070563876,-0.00037731611469210834,-0.00011880485936096333
0.02408449358479773,-0.00035276953786442754,-0.00011916990218724159
0.02290455876279476,-0.0003292750116906313,-0.00011951092446201912
0.02152038427207791,-0.00030706254017319495,-0.00011982909323795103
0.01999616249484586,-0.0002863042667897331,-0.0001201257766414325
0.018404985558907412,-0.00026710369276285645,-0.0001204024806212088
0.016822326619661904,-0.0002494900366735718,-0.00012066077748592701
0.015318255288205391,-0.00023341974571963812,-0.00012090223237712362
0.013950244106919148,-0.00021878549602207586,-0.00012112833499799448
0.012758061701778987,-0.00020543134311772678,-0.00012134044341756439
0.011761457207338143,-0.0001931715836631682,-0.00012153974488095484
0.010960516367665717,-0.00018181059687566627,-0.00012172723597122426
0.010338006302158923,-0.00017116133554075395,-0.00012190372193743247
0.009862824721822957,-0.000161060920028763,-0.00012206983306521723
0.009493737078649972,-0.00015138263912852653,-0.00012222605484479588
0.009182760570895785,-0.00014204439030375364,-0.00012237276835951202
0.008877832559857909,-0.0001330140937383768,-0.0001225102976015331
0.008524890053712634,-0.00012431273243159152,-0.00012263896101461806
0.00807001739002263,-0.00011601527870972389,-0.0001227591250201887
0.007462424708968779,-0.00010824905766022818,-0.0001228712571883737
0.006658530510303332,-0.00010118858005059212,-0.0001229759760072291
0.005626747615544072,-9.504594098766842e-05,-0.00012307409326774824
0.004352201984526941,-9.005646618763291e-05,-0.00012316664447133588
0.0028405958788581933,-8.646006725594034e-05,-0.00012325490273805767
0.0011204909689571294,-8.447952383203268e-05,-0.00012334037253360165
-0.0007566789231390242,-8.429761780912363e-05,-0.00012342476110442223
-0.002719383622944426,-8.603564908216535e-05,-0.00012350992773786786
-0.004681648236854694,-8.973616501206491e-05,-0.00012359781364491498
-0.006551080153293063,-9.535252920713878e-05,-0.0001236903579920246
-0.00823821159151194,-0.00010274717507954129,-0.00012378940784416793
-0.009665774047510872,-0.0001116991678990527,-0.00012389663101565723
-0.010776629220208278,-0.00012192036953291227,-0.00012401344078437321
-0.011539569665006558,-0.00013307846897551968,-0.00012414094020362742
-0.011952686124496894,-0.0001448245968702714,-0.00012427989173655033
-0.012044149745714057,-0.0001568230148053769,-0.00012443071554238814
-0.011870188745844201,-0.00016878018405115604,-0.00012459351714181642
-0.011510120996972443,-0.00018047033892256437,-0.00012476814240330327
-0.01105870842389528,-0.00019175475363299822,-0.00012495425494958104
-0.010616647734049777,-0.00020259243171197075,-0.00012515142854225352
-0.010280392830618107,-0.00021304095199430468,-0.00012535924523410667
-0.010132556425367707,-0.0002232474266222976,-0.00012557738942341496
-0.010233921758110921,-0.0002334306657140369,-0.00012580572846958312
-0.010617753872410023,-0.00024385650352929736,-0.0001260443720542048
-0.011286774707200749,-0.00025480876781910276,-0.000126293704689879
-0.012212958165959088,-0.00026655863425568266,-0.00012655438839091637
-0.013340183770969925,-0.00027933520522414716,-0.00012682733531065629
-0.014589656958608877,-0.0002933001255889366,-0.00012711365297606283
-0.01586781182580468,-0.00030852885998114334,-0.00012741456746884788
-0.017076118618517842,-0.0003250008252033046,-0.0001277313323114401
-0.018121787232207965,-0.00034259977812866753,-0.00012806513261310609
-0.018927939623827567,-0.0003611246415566853,-0.00012841699482294875
-0.01944172239340384,-0.000380309472565301,-0.00012878771188000975
-0.019639193933577912,-0.0003998499307287919,-0.0001291777915816568
-0.01952652117141631,-0.000419432788281289,-0.00012958743294116183
-0.019137781178365555,-0.00043876493945617997,-0.00013001653180503056
-0.0185301789159631,-0.00045759891950334427,-0.00013046471373451033
-0.01777762983241003,-0.00047575282387753084,-0.00013093138960620077
-0.016963571967053958,-0.0004931234247772628,-0.00013141582773052818
-0.016173749923566877,-0.0005096920857225732,-0.0001319172354857781
-0.015489536126887174,-0.0005255237287478002,-0.0001324348433930133
-0.014982129799918007,-0.0005407595617112029,-0.0001329679850382428
-0.014707873257173328,-0.0005556045632397486,-0.00013351616710071827
-0.014705017575591822,-0.0005703110086561311,-0.00013407912488666622
-0.014992355833011294,-0.0005851596953604327,-0.00013465686023867452
-0.015569994366452981,-0.0006004408704601648,-0.00013524966052158482
-0.016422164179349875,-0.0006164369497330662,-0.00013585809943168143
-0.0175215801903633,-0.0006334088219179228,-0.00013648302231750693
-0.01883458836732925,-0.0006515869061967691,-0.00013712552018156429
-0.020326243673862952,-0.0006711673222173652,-0.00013778689729577136
-0.02196453820700376,-0.0006923127131577985,-0.00013846863731345894
-0.023723234598300592,-0.0007151565995604507,-0.00013917237196981805
