frame_number,force
0,548.8443000000585
1,548.5406955846183
2,548.2465108544031
3,547.9703402395348
4,547.7192704552875
5,547.4984295174027
6,547.3107897388202
7,547.1572001441554
8,547.0365974623057
9,546.9463342217675
10,546.8825628737111
11,546.8406187222271
12,546.8153538234809
13,546.8014023382937
14,546.793400677965
15,546.7862091042537
16,546.7751613061579
17,546.7563264765907
18,546.7267441019476
19,546.684594905631
20,546.6292850605928
21,546.5614336503406
22,546.4827645401384
23,546.3959098301096
24,546.3041331878609
25,546.2109914615079
26,546.1199829437429
27,546.0342639301425
28,545.9565144761937
29,545.8889788599901
30,545.8336209451413
31,545.7922761193416
32,545.7666887990925
33,545.7583839818766
34,545.7683875356927
35,545.7968525757108
36,545.8426694813484
37,545.9031475381994
38,545.9738595957441
39,546.0487273648502
40,546.1203844899056
41,546.1807954360075
42,546.2220548444001
43,546.2372603133465
44,546.2213362455524
45,546.1716802904774
46,546.088515702717
47,545.9748738323065
48,545.836196476562
49,545.6796231825425
50,545.5130966466243
51,545.3444557669864
52,545.1806695965952
53,545.0273037103697
54,544.8882369737757
55,544.7655936979513
56,544.6598364157683
57,544.5699697910256
58,544.4938192462918
59,544.4283591588361
60,544.3700736188028
61,544.3153345127548
62,544.2607735777275
63,544.2036124864915
64,544.1419093971583
65,544.0746861701042
66,544.0019135422834
67,543.9243504975234
68,543.8432607163527
69,543.7600589634909
70,543.6759621537025
71,543.591721508579
72,543.5074891787361
73,543.4228346840529
74,543.3368890616392
75,543.2485651356043
76,543.1567842137722
77,543.0606418976364
78,542.9594762026047
79,542.8528525573902
80,542.7405282911508
81,542.6224715461734
82,542.4989679588864
83,542.3707780040215
84,542.2392658787493
85,542.1064352033801
86,541.974848548145
87,541.8474386696903
88,541.7272359039752
89,541.6170546199346
90,541.5192053918952
91,541.4353105216879
92,541.3662777950315
93,541.3124341123323
94,541.2737633590853
95,541.2501554102349
96,541.2415679356433
97,541.2480325158451
98,541.269485565917
99,541.3054498934008
100,541.3546342482479
101,541.4145663654859
102,541.4814103223839
103,541.5500981661279
104,541.6148140280286
105,541.669746376072
106,541.7099322778165
107,541.7319949450368
108,541.7346264996099
109,541.7187663692476
110,541.6875211306622
111,541.6459133764073
112,541.6005227456176
113,541.559025630126
114,541.5296046783602
115,541.5202178563368
116,541.5377768569947
117,541.5873419083105
118,541.6714581429436
119,541.7897357971007
120,541.9387375444625
121,542.1121992258016
122,542.3015672110713
123,542.4967783018318
124,542.6871585205879
125,542.8623106743668
126,543.0129017357428
127,543.1313133655107
128,543.2121412687056
129,543.2525154089808
130,543.252193487503
131,543.2133894512716
132,543.1403473338845
133,543.0387362665307
134,542.9149844758387
135,542.7756598352872
136,542.6269540856089
137,542.4742823798811
138,542.3219993099123
139,542.1732422424052
140,542.0299133554033
141,541.8927982907363
142,541.7618043767992
143,541.6362909693124
144,541.515456580324
145,541.39873934316
146,541.2861769621655
147,541.1786630307134
148,541.0780384002262
149,540.9869748631075
150,540.9086425169234
151,540.846200950874
152,540.8022101785232
153,540.7780962941931
154,540.7738069047582
155,540.7877523101049
156,540.8170627703789
157,540.8581099148848
158,540.9071595746983
159,540.9609821743113
160,541.0172743055853
161,541.0748220179573
162,541.1334119292302
163,541.1935409570505
164,541.2559957753804
165,541.3213855134412
166,541.38972174709
167,541.4601410932662
168,541.5308437626247
169,541.599269741468
170,541.6624663474282
171,541.717547132879
172,541.7621272271289
173,541.7946440713407
174,541.8145172562383
175,541.8221483578826
176,541.8187968618939
177,541.8063824026591
178,541.7872588861079
179,541.7639944327993
180,541.7391804716416
181,541.7152804998916
182,541.6945096441034
183,541.6787174765988
184,541.6692455720296
185,541.6667598269582
186,541.6711040834061
187,541.6812498494896
188,541.6953976067406
189,541.7112295830717
190,541.7262617141984
191,541.738221509916
192,541.7453889914417
193,541.7468660551566
194,541.742768119071
195,541.7343447044168
196,541.7240285657706
197,541.7153954582793
198,541.7130015706229
199,541.7220680648143
200,541.7480140271512
201,541.7958876298677
202,541.8697764193836
203,541.9722779522398
204,542.104100029469
205,542.2638462378369
206,542.4480154348711
207,542.6512023501539
208,542.8664528257754
209,543.0857173448882
210,543.3003556656159
211,543.5016629781509
212,543.6814063836931
213,543.832370061139
214,543.9488984275185
215,544.0274008834858
216,544.066755093146
217,544.0685319387679
218,544.0369681721012
219,543.9786367721604
220,543.9018144514165
221,543.815607291645
222,543.7289423122744
223,543.6495556446223
224,543.5831209403877
225,543.5326656151007
226,543.4983894272746
227,543.4779138084547
228,543.4668844334373
229,543.4597795113849
230,543.4507673088594
231,543.4344892355035
232,543.4066870805929
233,543.3646293136306
234,543.3073218375762
235,543.2355146165168
236,543.1515365687316
237,543.0590033378693
238,542.9624385437203
239,542.8668304417272
240,542.777133044202
241,542.6977333747627
242,542.6319376806392
243,542.5815524313036
244,542.5466321678978
245,542.5254386891595
246,542.5146213227641
247,542.5095999654001
248,542.5051114829434
249,542.4958579168646
250,542.4771716487759
251,542.4456010445325
252,542.3993288898827
253,542.3383585466333
254,542.2644316844753
255,542.1806799546227
256,542.0910624653702
257,541.999688818431
258,541.9101571301263
259,541.8250404281016
260,541.745630836953
261,541.6719963594027
262,541.6033285262035
263,541.5384887252219
264,541.4766219285499
265,541.4176999110169
266,541.3628759637559
267,541.3145845968156
268,541.276393637383
269,541.2526726282678
270,541.2481512692568
271,541.2674213184564
272,541.3144191189643
273,541.3919264391089
274,541.5011366195473
275,541.6413403273768
276,541.8097820525974
277,542.0017188311488
278,542.2106827117161
279,542.4289283411512
280,542.6480460511249
281,542.859719601247
282,543.056581881581
283,543.233075436408
284,543.3861867902511
285,543.5159183777201
286,543.6253932084563
287,543.7205479059428
288,543.80944752522
289,543.9013303234225
290,544.0055398193325
291,544.1305099058092
292,544.2829305200557
293,544.467150540576
294,544.684812258763
295,544.9346932696043
296,545.2127481682346
297,545.5123576863263
298,545.8247883160211
299,546.1398473871772
300,546.4466947120346
301,546.7347455051664
302,546.9945750707034
303,547.2187184777175
304,547.4022547892379
305,547.5430854643457
306,547.6418653140593
307,547.7016137470343
308,547.7271003571514
309,547.7241326011197
310,547.6988627989502
311,547.6571939930726
312,547.6043275593029
313,547.5444760701248
314,547.4807562200507
315,547.4152586930693
316,547.3492571029265
317,547.2834829178954
318,547.218378865062
319,547.1542569238568
320,547.0913247574956
321,547.0295961416573
322,546.9687476015416
323,546.9080048149868
324,546.8461321103882
325,546.781563475252
326,546.712662352216
327,546.6380435644755
328,546.5568600687436
329,546.4689707311562
330,546.3749539712192
331,546.2759835738635
332,546.173608930385
333,546.0694782157674
334,545.9650317520825
335,545.861200280566
336,545.7581667199645
337,545.6552596278108
338,545.5510215575295
339,545.4434494427602
340,545.3303651454366
341,545.2098547775641
342,545.0807077713165
343,544.9427804134859
344,544.7972049608871
345,544.6463787545333
346,544.4937105186931
347,544.3431635549978
348,544.1986901050147
349,544.0636801076126
350,543.9405479035303
351,543.8305470125284
352,543.7338366494171
353,543.6497478426656
354,543.5771466489397
355,543.5147884130607
356,543.4615957005474
357,543.4168451880095
358,543.3802824093603
359,543.352183627537
360,543.3333635429301
361,543.3251110897173
362,543.3290390895187
363,543.3468548744227
364,543.3800839336175
365,543.4297887165377
366,543.4963119021319
367,543.5790549653021
368,543.6763053008294
369,543.7851517800615
370,543.9015547984311
371,544.0206309088567
372,544.1371586906547
373,544.2462301065653
374,544.3439055227078
375,544.4277170817284
376,544.4969050349016
377,544.5523416574366
378,544.5961761532047
379,544.6313061531381
380,544.6608245469835
381,544.6875803012932
382,544.7139293271409
383,544.7416684306519
384,544.7720804924579
385,544.8059970821249
386,544.8438124196194
387,544.885443494385
388,544.930287446912
389,544.9772431417952
390,545.0248326326456
391,545.0714048236897
392,545.1153610216888
393,545.1553305883186
394,545.1902488876028
395,545.2193376742401
396,545.2420330743275
397,545.2579203197743
398,545.266710161561
399,545.2682498320992
400,545.2625333362952
401,545.2496788075881
402,545.2298654226851
403,545.2032472145142
404,545.1698736496774
405,545.1296495659878
406,545.0823635912956
407,545.0277972043771
408,544.9658917772274
409,544.8969173707446
410,544.8215827854065
411,544.7410560015736
412,544.6569074370584
413,544.5710197161368
414,544.4855055536058
415,544.4026356394621
416,544.3247322646099
417,544.2539825539542
418,544.1921817395028
419,544.1404830076665
420,544.0992445577574
421,544.0680190924517
422,544.045671188637
423,544.0305768974822
424,544.0208614661628
425,544.0146395105412
426,544.0102195117576
427,544.006234726942
428,544.0016858508121
429,543.9959184078439
430,543.9885810551762
431,543.9796040144502
432,543.9692092223348
433,543.9579385003889
434,543.9466800162758
435,543.9366837568195
436,543.9295648633579
437,543.9272840920737
438,543.9320739226926
439,543.9462732882079
440,543.972063463947
441,544.0111505160414
442,544.0644792841691
443,544.1320637528729
444,544.2129841651944
445,544.3055536301019
446,544.4076073761719
447,544.5168223388973
448,544.630958063572
449,544.7479484710072
450,544.865849924975
451,544.9827098725881
452,545.0964333952257
453,545.2047092774011
454,545.3050352922083
455,545.3948579644505
456,545.471813936447
457,545.5340342926226
458,545.5804573964401
459,545.6110935698402
460,545.6271976652395
461,545.6313289539977
462,545.6272957179934
463,545.6199802812381
464,545.6150290639233
465,545.6183971030048
466,545.6357672621008
467,545.6719083348991
468,545.730073646881
469,545.8115546384057
470,545.9154818598155
471,546.0389135659887
472,546.1771866855003
473,546.3244472266135
474,546.4742479210262
475,546.6201117387908
476,546.7559994742849
477,546.8766583832663
478,546.9778463548041
479,547.0564288501686
480,547.1103562971234
481,547.1385586036224
482,547.1408228214638
483,547.1177182237624
484,547.0705907355258
485,547.001592725575
486,546.9136858927864
487,546.8105732989292
488,546.6965597682262
489,546.5763675585952
490,546.4549298584824
491,546.3371650610554
492,546.2277198392618
493,546.1306650796631
494,546.0491403624338
495,545.9849734886647
496,545.9383404552902
497,545.9075564585976
498,545.8890849361104
499,545.8778178847421
500,545.8676235362884
501,545.8520894931561
502,545.8253314680749
503,545.7827116645138
504,545.7213280854538
505,545.6401979495262
506,545.5401505301955
507,545.4235259415261
508,545.2938009683402
509,545.155226062838
510,545.0124997544422
511,544.8704698915544
512,544.7338458084978
513,544.6069187777698
514,544.4933031678394
515,544.3957174332728
516,544.315823648951
517,544.254144142834
518,544.2100749952499
519,544.1820100173254
520,544.1675667243237
521,544.1638739650776
522,544.1678621802536
523,544.1765085685147
524,544.1870186173035
525,544.1969459996997
526,544.2042567201531
527,544.2073427160541
528,544.2049935212337
529,544.196339425676
530,544.1807822640558
531,544.157931617571
532,544.1275656546026
533,544.0896305790275
534,544.0442728201374
535,543.9918739600846
536,543.9330554058041
537,543.8686429799333
538,543.7996037476149
539,543.7269678841245
540,543.6517433354935
541,543.5748453039826
542,543.4970856073327
543,543.4192628242381
544,543.3423508329582
545,543.267728434854
546,543.1973643483688
547,543.13388620093
548,543.0805028426529
549,543.040786439665
550,543.0183427889666
551,543.0164145223539
552,543.0374758522238
553,543.0828787579312
554,543.1525950662565
555,543.2450781149515
556,543.3572536070614
557,543.4846440324951
558,543.6216288342048
559,543.761832626066
560,543.8986099395546
561,544.0255682727603
562,544.137061378465
563,544.2285942906271
564,544.2970949748975
565,544.3410203332265
566,544.3602920089083
567,544.3561023170811
568,544.3306629550317
569,544.2869597998562
570,544.2285333400846
571,544.1592616479712
572,544.0831118618173
573,544.0038497660539
574,543.9247335721176
575,543.8482435719412
576,543.7759028761608
577,543.7082254711232
578,543.6447960761136
579,543.5844626466445
580,543.5256214830969
581,543.4665842804455
582,543.406006442028
583,543.3433159323697
584,543.2790398284274
585,543.2149241484468
586,543.1537961505412
587,543.0991987295112
588,543.0548867134005
589,543.0242865964447
590,543.0099957907954
591,543.0133710734235
592,543.0342479613739
593,543.0708257198355
594,543.1197277426372
595,543.1762192680599
596,543.2345563882337
597,543.2884444760213
598,543.3315794224358
599,543.3582286007337
600,543.3637912279116
601,543.3452697208585
602,543.3015934299362
603,543.2337673710886
604,543.1448576378599
605,543.0398445385415
606,542.9253600480993
607,542.8092968309327
608,542.7002663850333
609,542.6069122087895
610,542.5371402779938
611,542.4973792395123
612,542.4919874429768
613,542.5228761350189
614,542.5893574319829
615,542.6881968383643
616,542.813853841833
617,542.9588983140146
618,543.1145786674413
619,543.2715030719312
620,543.4203896588782
621,543.5528362921523
622,543.6620432951072
623,543.7434029635494
624,543.7948692873222
625,543.8170466203642
626,543.8129740904945
627,543.7876227596626
628,543.7471681642822
629,543.6981490135993
630,543.6466498148549
631,543.5976297297331
632,543.5544715817808
633,543.5187752785644
634,543.490389424156
635,543.4676565258301
636,543.4478239199872
637,543.4275451366598
638,543.4033863360831
639,543.3722740278901
640,543.331858431313
641,543.2807916987923
642,543.2189172513799
643,543.1473463191958
644,543.0683852172447
645,542.9852912315255
646,542.901874967499
647,542.8220127341787
648,542.74916006676
649,542.6859535568834
650,542.63395740587
651,542.5935715470822
652,542.5640890616465
653,542.5438798211412
654,542.5306754840433
655,542.5219225031731
656,542.5151517742615
657,542.5083001412628
658,542.4999264734557
659,542.4892922613769
660,542.4763047573475
661,542.4613396922124
662,542.4449829797649
663,542.4277637049614
664,542.4099720586538
665,542.3916364307896
666,542.3726733707045
667,542.3531550197546
668,542.333598915473
669,542.315191305937
670,542.2998924149871
671,542.290406563588
672,542.2900120321378
673,542.3022500782263
674,542.3304945030843
675,542.3774628132937
676,542.4447680263763
677,542.5326281326718
678,542.6398299169228
679,542.76397302155
680,542.9019213658535
681,543.0503177033646
682,543.2060112503849
683,543.3662991897929
684,543.5289576817014
685,543.6921081688017
686,543.8540104653495
687,544.0128827048632
688,544.1668199774906
689,544.3138337096742
690,544.4519819543593
691,544.5795245502751
692,544.6950351163698
693,544.7974397360833
694,544.88600602001
695,544.9603360625443
696,545.0203996698524
697,545.0665949681497
698,545.0997843476589
699,545.1212566494174
700,545.1326052653388
701,545.135552107323
702,545.1317606890935
703,545.12266810877
704,545.1093469332002
705,545.092402229649
706,545.0719181905486
707,545.0474813685047
708,545.018307882489
709,544.98347876784
710,544.9422428369093
711,544.8943050627886
712,544.8400150242946
713,544.7804079858707
714,544.7170973206551
715,544.6520465677
716,544.5872696435185
717,544.5245276068423
718,544.4650979355208
719,544.4096709211941
720,544.3583795494881
721,544.3109172167029
722,544.2666701632938
723,544.2248022912602
724,544.1842703295406
725,544.1437959717126
726,544.1018570024692
727,544.0567618685471
728,544.0068337497413
729,543.9506707972913
730,543.8874052099015
731,543.8168786096427
732,543.7396860865364
733,543.6570969095591
734,543.5708986836553
735,543.4832080544617
736,543.3962612753324
737,543.3121787763374
738,543.2327065578984
739,543.158966521229
740,543.0912792075421
741,543.0291314603861
742,542.9713305752713
743,542.916326611411
744,542.8626327975903
745,542.8092584513146
746,542.7560837321616
747,542.7041245386761
748,542.6556419342269
749,542.6140504416688
750,542.5835956860756
751,542.5688186634325
752,542.5738863279912
753,542.6019093483569
754,542.6543668632148
755,542.7307308435719
756,542.8283565933832
757,542.9426824022836
758,543.0677366692067
759,543.1968762408405
760,543.3236077057425
761,543.4423199866618
762,543.5487956773522
763,543.6404424323634
764,543.7162525642088
765,543.7765385654797
766,543.8225169337609
767,543.855837801977
768,543.8781700685093
769,543.8909248180856
770,543.8951368518177
771,543.8914638446836
772,543.8802404584682
773,543.8615402201314
774,543.8352274208501
775,543.8010057305066
776,543.7584787563617
777,543.7072262055771
778,543.6468821385895
779,543.5772007624282
780,543.4981064779415
781,543.4097279107167
782,543.3124132981676
783,543.2067363847475
784,543.0935217666413
785,542.9739173833163
786,542.8495105794005
787,542.7224458289174
788,542.5954837744675
789,542.4719533041168
790,542.3555856686555
791,542.250262817967
792,542.1597356776577
793,542.0873616974211
794,542.0358873906832
795,542.0072769210441
796,542.0025694780282
797,542.0217451150196
798,542.063601737002
799,542.1256886520972
800,542.2043725842399
801,542.2950935055347
802,542.3927950622304
803,542.4924299420878
804,542.5894011348603
805,542.679829166243
806,542.7606119345297
807,542.8293246639062
808,542.8840542236286
809,542.9232595436498
810,542.9457100033916
811,542.9505041092416
812,542.9371404206473
813,542.9056156536981
814,542.856546504694
815,542.7913187872431
816,542.7122430163961
817,542.6226582121092
818,542.5269101211135
819,542.4301544397138
820,542.3379874155719
821,542.2559541890536
822,542.1890082014547
823,542.1409969105633
824,542.1142424811364
825,542.1092751488527
826,542.1247621245344
827,542.157656111893
828,542.2035589812541
829,542.2572557280375
830,542.3133362414785
831,542.3668091292446
832,542.4136301648679
833,542.4511058058032
834,542.4781667738058
835,542.4955160067914
836,542.5056341101525
837,542.5125936080473
838,542.5216256199886
839,542.5384257184978
840,542.5682707722553
841,542.6150958626066
842,542.6807041149018
843,542.7642562859936
844,542.8621423900961
845,542.968284297223
846,543.0748461538486
847,543.1732440945129
848,543.2552785030448
849,543.3141919724867
850,543.3454894258904
851,543.3474228626558
852,543.3211137627468
853,543.2703422535197
854,543.2010695699367
855,543.1207814988563
856,543.0377420596463
857,542.9602268654429
858,542.8957789430108
859,542.8505193520683
860,542.8285611884434
861,542.8316051423648
862,542.8588077787692
863,542.9069859230444
864,542.971151898181
865,543.04529047815
866,543.123228479069
867,543.19943851233
868,543.2696538957804
869,543.3312269979334
870,543.3832152199801
871,543.4262144032649
872,543.4619838985593
873,543.4929342963869
874,543.521572384671
875,543.5500023421725
876,543.5795674406742
877,543.6106867171972
878,543.6428927151956
879,543.6750209294776
880,543.7054697894645
881,543.7324598579917
882,543.7542582302541
883,543.7693685760696
884,543.7766995358218
885,543.7757152632773
886,543.7665533266014
887,543.7500826924577
888,543.7278839817718
889,543.7021613633385
890,543.6756110055026
891,543.6512574704715
892,543.6322449119857
893,543.6215619883353
894,543.6216981108097
895,543.634266054544
896,543.6596608887678
897,543.6968350372299
898,543.7432483585026
899,543.7950127186704
900,543.8472110226512
901,543.8943480431278
902,543.930888808192
903,543.9518416749189
904,543.9533263951582
905,543.9330398809193
906,543.8905245448867
907,543.8271742161535
908,543.745972385171
909,543.6510245543233
910,543.5469954508096
911,543.4385740382506
912,543.3300633615169
913,543.2251416375773
914,543.1267840804027
915,543.0372947752525
916,542.958392144429
917,542.8913103413637
