frame_number,force
0,867.9422000052425
1,868.0125191479071
2,868.082725460197
3,868.1527069499163
4,868.2223532860432
5,868.2915565922311
6,868.3602121981102
7,868.4282193369844
8,868.4954817793065
9,868.5619083921115
10,868.6274136161561
11,868.6919178549247
12,868.7553477724606
13,868.8176364996908
14,868.8787237512585
15,868.9385558568183
16,868.997085712635
17,869.0542726615548
18,869.1100823117563
19,869.1644863063755
20,869.2174620568954
21,869.2689924534519
22,869.3190655650576
23,869.3676743415657
24,869.4148163267881
25,869.4604933894257
26,869.5047114764468
27,869.5474803923421
28,869.588813606556
29,869.6287280898642
30,869.6672441788456
31,869.7043854665076
32,869.7401787167706
33,869.7746538005666
34,869.8078436512417
35,869.8397842364458
36,869.8705145426411
37,869.9000765671336
38,869.9285153118159
39,869.955878773173
40,869.9822179241482
41,870.0075866841354
42,870.0320418730897
43,870.0556431451201
44,870.0784528968385
45,870.1005361464189
46,870.1219603802859
47,870.1427953651815
48,870.1631129240516
49,870.1829866749028
50,870.2024917325309
51,870.2217043737311
52,870.2407016672234
53,870.2595610700649
54,870.278359992819
55,870.2971753363734
56,870.3160830042161
57,870.3351573951078
58,870.3544708818781
59,870.3740932821854
60,870.3940913269998
61,870.4145281332325
62,870.4354626883735
63,870.4569493563251
64,870.4790374143131
65,870.5017706311024
66,870.5251868969789
67,870.5493179158136
68,870.574188968505
69,870.5998187550721
70,870.6262193199381
71,870.6533960618647
72,870.6813478268515
73,870.7100670793338
74,870.7395401446018
75,870.7697475140624
76,870.8006642048115
77,870.8322601652366
78,870.8645007183322
79,870.8973470341608
80,870.9307566227637
81,870.9646838390314
82,870.9990803917781
83,871.0338958505773
84,871.0690781452693
85,871.1045740538567
86,871.1403296750472
87,871.176290882808
88,871.212403762217
89,871.2486150278155
90,871.2848724265765
91,871.3211251269748
92,871.3573240937974
93,871.3934224460083
94,871.4293757926557
95,871.465142539732
96,871.5006841595676
97,871.5359654144105
98,871.5709545276785
99,871.6056232996292
100,871.6399471679284
101,871.6739052167052
102,871.7074801394548
103,871.7406581615195
104,871.7734289273018
105,871.8057853565783
106,871.8377234737817
107,871.8692422137243
108,871.9003432063251
109,871.9310305412882
110,871.9613105122075
111,871.9911913393339
112,872.0206828716097
113,872.0497962707954
114,872.0785436824912
115,872.1069379000004
116,872.1349920272643
117,872.1627191467741
118,872.1901319977743
119,872.2172426694812
120,872.2440623135489
121,872.2706008796214
122,872.296866877305
123,872.322867167031
124,872.3486067811565
125,872.3740887758186
126,872.3993141139001
127,872.4242815799106
128,872.4489877283015
129,872.4734268673044
130,872.4975910802448
131,872.5214702851296
132,872.5450523315809
133,872.5683231329722
134,872.591266831578
135,872.6138659952904
136,872.6361018451232
137,872.6579545128776
138,872.6794033278732
139,872.7004271305076
140,872.7210046086475
141,872.7411146508219
142,872.7607367082719
143,872.7798511564112
144,872.798439645421
145,872.816485429739
146,872.8339736671667
147,872.850891679933
148,872.8672291716367
149,872.8829783952299
150,872.8981342682966
151,872.9126944331771
152,872.9266592611067
153,872.9400318013177
154,872.9528176775939
155,872.9650249358835
156,872.9766638474958
157,872.9877466735252
158,872.998287397445
159,873.0083014339197
160,873.017805322511
161,873.0268164149968
162,873.0353525644491
163,873.043431823161
164,873.0510721552881
165,873.0582911689571
166,873.0651058718661
167,873.0715324544462
168,873.077586105441
169,873.0832808653496
170,873.0886295225062
171,873.0936435547756
172,873.098333117986
173,873.1027070808603
174,873.1067731049885
175,873.1105377669637
176,873.1140067185331
177,873.1171848798823
178,873.1200766607351
179,873.1226862033453
180,873.1250176406134
181,873.127075361761
182,873.1288642775801
183,873.1303900775741
184,873.131659472689
185,873.1326804195318
186,873.1334623240989
187,873.1340162242013
188,873.1343549498957
189,873.1344932607622
190,873.1344479583775
191,873.1342379723352
192,873.1338844189399
193,873.1334106330603
194,873.1328421749246
195,873.1322068142114
196,873.1315344932779
197,873.1308572700873
198,873.1302092401079
199,873.1296264355844
200,873.1291467000027
201,873.1288095352727
202,873.1286559195825
203,873.128728095022
204,873.1290693253507
205,873.1297236253833
206,873.1307354646783
207,873.1321494495043
208,873.1340099877699
209,873.1363609411482
210,873.1392452672577
211,873.1427046534318
212,873.1467791434125
213,873.1515067596303
214,873.1569231259333
215,873.1630610976063
216,873.1699504066655
217,873.1776173308448
218,873.1860843947165
219,873.1953701108505
220,873.2054887673597
221,873.2164502657932
222,873.2282600109706
223,873.2409188527689
224,873.254423078923
225,873.2687644569559
226,873.2839303222321
227,873.2999037082247
228,873.3166635148586
229,873.3341847114061
230,873.3524385716129
231,873.3713929399086
232,873.3910125280223
233,873.4112592407907
234,873.4320925287662
235,873.4534697640631
236,873.4753466351764
237,873.4976775561709
238,873.5204160853648
239,873.5435153481388
240,873.5669284575066
241,873.5906089244979
242,873.6145110487822
243,873.6385902792483
244,873.6628035349567
245,873.6871094785929
246,873.7114687364103
247,873.7358440600763
248,873.7602004268343
249,873.7845050751304
250,873.8087274735274
251,873.8328392217238
252,873.8568138841486
253,873.8806267588687
254,873.9042545867018
255,873.9276752066604
256,873.9508671640073
257,873.9738092769285
258,873.9964801680661
259,874.0188577681345
260,874.0409188000724
261,874.0626382529734
262,874.083988855258
263,874.1049405566504
264,874.1254600292741
265,874.1455101999935
266,874.1650498284267
267,874.184033146392
268,874.2024095736579
269,874.2201235217022
270,874.2371142930463
271,874.2533160801217
272,874.2686580652587
273,874.2830646221686
274,874.2964556188052
275,874.3087468210065
276,874.3198503950907
277,874.3296755054092
278,874.3381290002184
279,874.3451161768085
280,874.3505416147918
281,874.3543100647272
282,874.3563273780275
283,874.3565014636998
284,874.354743257932
285,874.3509676937412
286,874.3450946596888
287,874.3370499385884
288,874.3267661183833
289,874.3141834675416
290,874.2992507667719
291,874.2819260881462
292,874.262177512062
293,874.2399837719337
294,874.2153348161819
295,874.1882322772692
296,874.1586898385091
297,874.126733491053
298,874.09240167528
299,874.0557453025065
300,874.0168276547003
301,873.975724161799
302,873.932522058161
303,873.8873199217095
304,873.8402271016085
305,873.7913630425755
306,873.7408565157167
307,873.6888447669227
308,873.6354725945413
309,873.5808913682839
310,873.5252580010604
311,873.468733884912
312,873.4114838017573
313,873.35367481907
314,873.2954751793739
315,873.2370531904618
316,873.1785761212575
317,873.1202091071708
318,873.0621140688778
319,873.0044486490883
320,872.9473651724644
321,872.8910096345219
322,872.8355207261662
323,872.7810289010677
324,872.7276554927791
325,872.675511887054
326,872.6246987524341
327,872.5753053298669
328,872.5274087810168
329,872.4810735953922
330,872.436351057806
331,872.3932787793609
332,872.3518802965352
333,872.3121647435885
334,872.2741266034797
335,872.2377455424958
336,872.2029863343615
337,872.1697988802212
338,872.1381183304968
339,872.1078653129016
340,872.0789462686814
341,872.0512538975692
342,872.0246677110459
343,871.9990546924749
344,871.9742700610775
345,871.9501581350895
346,871.9265532883595
347,871.9032809940468
348,871.8801589485664
349,871.8569982684564
350,871.8336047524833
351,871.8097802007912
352,871.7853237819179
353,871.7600334371507
354,871.7337073103992
355,871.7061451905776
356,871.6771499523396
357,871.6465289801656
358,871.6140955604038
359,871.579670225553
360,871.5430820346304
361,871.5041697733953
362,871.4627830591689
363,871.4187833370627
364,871.3720447569219
365,871.3224549225613
366,871.2699155068071
367,871.2143427278596
368,871.1556676848376
369,871.0938365530076
370,871.02881064189
371,870.9605663221835
372,870.8890948302887
373,870.8144019616537
374,870.736507665375
375,870.6554455522245
376,870.5712623272608
377,870.4840171571193
378,870.3937809807918
379,870.3006357708215
380,870.2046737499214
381,870.1059965672473
382,870.0047144394483
383,869.9009452634893
384,869.7948137100246
385,869.6864503072932
386,869.5759905260053
387,869.46357387524
388,869.3493430176898
389,869.2334429101907
390,869.1160199734555
391,868.9972212940963
392,868.8771938624948
393,868.7560838516491
394,868.6340359440137
395,868.5111927142996
396,868.3876940755175
397,868.2636767938789
398,868.1392740767138
399,868.0146152365488
400,867.8898254334716
401,867.765025496807
402,867.6403318262396
403,867.5158563718655
404,867.3917066919732
405,867.2679860866236
406,867.1447938044025
407,867.0222253192753
408,866.90037267427
409,866.7793248884136
410,866.6591684227197
411,866.5399877001819
412,866.4218656736962
413,866.3048844344637
414,866.1891258519332
415,866.0746722353484
416,865.9616070066253
417,865.8500153740534
418,865.7399849956541
419,865.6316066200012
420,865.5249746913677
421,865.4201879056473
422,865.3173497039584
423,865.2165686922444
424,865.1179589772149
425,865.0216404109112
426,864.9277387376791
427,864.8363856387605
428,864.7477186716844
429,864.661881104143
430,864.5790216445413
431,864.4992940735086
432,864.4228567824657
433,864.3498722267509
434,864.2805063013097
435,864.2149276463614
436,864.1533068894039
437,864.095815829155
438,864.0426265668178
439,863.9939105904494
440,863.9498378190895
441,863.9105756143673
442,863.8762877682834
443,863.8471334767295
444,863.8232663088374
445,863.8048331820358
446,863.7919733517385
447,863.7848174234056
448,863.7834863938127
449,863.7880907278852
450,863.7987294774599
451,863.8154894488013
452,863.838444426392
453,863.867654461052
454,863.9031652305582
455,863.945007480662
456,863.9931965540213
457,864.0477320144333
458,864.1085973737946
459,864.1757599286607
460,864.2491707114004
461,864.3287645580543
462,864.4144602920998
463,864.5061610209943
464,864.6037545406905
465,864.7071138423883
466,864.8160977156281
467,864.9305514420561
468,865.0503075744195
469,865.1751867953392
470,865.3049988497697
471,865.439543543462
472,865.5786117974244
473,865.7219867460203
474,865.8694448646942
475,866.0207571129943
476,866.1756900797874
477,866.3340071196651
478,866.4954694713459
479,866.6598373496313
480,866.8268710022822
481,866.99633172262
482,867.1679828082957
483,867.3415904570057
484,867.5169245910848
485,867.6937596046806
486,867.8718750292868
487,868.0510561157051
488,868.2310943329982
489,868.4117877874221
490,868.5929415662846
491,868.7743680128582
492,868.955886938903
493,869.1373257814679
494,869.3185197109693
495,869.4993116980424
496,869.6795525466416
497,869.8591008999427
498,870.0378232241615
499,870.2155937737745
500,870.3922945396401
501,870.5678151791344
502,870.7420529252694
503,870.9149124705817
504,871.0863058215353
505,871.2561521200369
506,871.4243774300186
507,871.5909144883442
508,871.7557024200536
509,871.9186864181386
510,872.0798173879514
511,872.2390515564614
512,872.3963500471413
513,872.5516784221207
514,872.7050061940698
515,872.8563063112312
516,873.0055546205697
517,873.1527293159364
518,873.2978103794943
519,873.4407790249265
520,873.5816171506222
521,873.7203068105758
522,873.8568297100032
523,873.9911667316508
524,874.1232974980585
525,874.2531999748171
526,874.380850119474
527,874.5062215796169
528,874.6292854420975
529,874.750010033993
530,874.8683607749107
531,874.9843000794343
532,875.097787307822
533,875.2087787625718
534,875.3172277279944
535,875.4230845490663
536,875.5262967446287
537,875.6268091493473
538,875.7245640796685
539,875.8195015209709
540,875.9115593349426
541,876.0006734872273
542,876.0867782960336
543,876.1698067029929
544,876.2496905675131
545,876.3263609846792
546,876.3997486248255
547,876.4697840909599
548,876.5363982887163
549,876.5995228027189
550,876.659090273507
551,876.715034770451
552,876.7672921578759
553,876.815800453331
554,876.86050017831
555,876.9013347025545
556,876.9382505833184
557,876.9711979009275
558,877.0001305919917
559,877.0250067814774
560,877.0457891141406
561,877.0624450848213
562,877.074947366301
563,877.0832741327123
564,877.087409375274
565,877.0873432054699
566,877.083072139498
567,877.074599357365
568,877.0619349300599
569,877.0450960083652
570,877.0241069673858
571,876.9989995024265
572,876.9698126743842
573,876.9365929055094
574,876.8993939285324
575,876.8582766938622
576,876.8133092410708
577,876.7645665417051
578,876.7121303201263
579,876.6560888578739
580,876.5965367859159
581,876.5335748686683
582,876.4673097836878
583,876.3978539007313
584,876.3253250629184
585,876.249846371302
586,876.1715459729555
587,876.0905568519934
588,876.0070166224465
589,875.9210673211271
590,875.8328551975766
591,875.7425304976165
592,875.6502472376259
593,875.5561629682733
594,875.4604385281026
595,875.3632377882219
596,875.2647273891364
597,875.1650764697933
598,875.064456387725
599,874.9630404283587
600,874.8610035015183
601,874.7585218240675
602,874.6557725894363
603,874.552933627022
604,874.450183056549
605,874.3476989440278
606,874.2456589667793
607,874.1442400948465
608,874.0436182948002
609,873.9439682596702
610,873.8454631658293
611,873.7482744545823
612,873.6525716338964
613,873.5585220950021
614,873.4662909392694
615,873.3760408117857
616,873.287931738843
617,873.2021209671674
618,873.1187628032454
619,873.0380084512267
620,872.9600058475341
621,872.8848994898727
622,872.8128302583525
623,872.743935227148
624,872.6783474661227
625,872.6161958326874
626,872.557604754812
627,872.5026940067628
628,872.4515784797356
629,872.404367949946
630,872.361166846937
631,872.3220740250023
632,872.2871825406339
633,872.2565794384889
634,872.2303455475974
635,872.2085552889105
636,872.1912764952295
637,872.1785702450052
638,872.1704907122129
639,872.1670850353784
640,872.1683932094983
641,872.1744480046644
642,872.1852749146142
643,872.2008921373401
644,872.2213105882294
645,872.2465339438444
646,872.276558711847
647,872.3113743205795
648,872.3509632211823
649,872.3953009960103
650,872.4443564689406
651,872.4980918149145
652,872.5564626670999
653,872.6194182205402
654,872.6869013316098
655,872.7588486133494
656,872.8351905278716
657,872.9158514784547
658,873.0007499052451
659,873.0897983889004
660,873.1829037655782
661,873.2799672548201
662,873.3808845999862
663,873.4855462196463
664,873.5938373678986
665,873.7056383019514
666,873.8208244563607
667,873.9392666245458
668,874.0608311489524
669,874.1853801215074
670,874.3127715962559
671,874.4428598165136
672,874.5754954593591
673,874.7105259007255
674,874.847795504623
675,874.9871459398785
676,875.1284165273336
677,875.271444619918
678,875.4160660171611
679,875.5621154139332
680,875.7094268805871
681,875.8578343693338
682,876.0071722407772
683,876.157275804948
684,876.3079818718433
685,876.4591293067525
686,876.6105595855631
687,876.7621173448897
688,876.9136509211604
689,877.0650128719502
690,877.2160604724695
691,877.3666561805156
692,877.5166680640393
693,877.6659701861972
694,877.814442943186
695,877.9619733505351
696,878.108455274025
697,878.2537896019421
698,878.3978843560874
699,878.5406547401424
700,878.6820231256288
701,878.8219189770583
702,878.9602787179805
703,879.0970455384398
704,879.2321691432056
705,879.3656054405311
706,879.4973161730863
707,879.6272684947626
708,879.755434498431
709,879.8817907006793
710,880.0063174904523
711,880.1289985492523
712,880.2498202509337
713,880.368771049331
714,880.4858408623234
715,880.6010204616057
716,880.7143008783077
717,880.8256728352911
718,880.9351262168994
719,881.0426495859057
720,881.1482297558899
721,881.2518514259166
722,881.3534968832237
723,881.453145778282
724,881.5507749748939
725,881.646358476285
726,881.7398674267886
727,881.8312701877518
728,881.9205324853696
729,882.0076176269637
730,882.0924867807938
731,882.1750993133236
732,882.2554131774504
733,882.3333853456683
734,882.4089722830743
735,882.4821304559952
736,882.5528168725612
737,882.6209896519429
738,882.686608619458
739,882.7496359252758
740,882.8100366847254
741,882.8677796378945
742,882.9228378251669
743,882.9751892739123
744,883.0248176905428
745,883.0717131523334
746,883.1158727947792
747,883.1573014919453
748,883.1960125280847
749,883.2320282579568
750,883.265380750697
751,883.2961124083973
752,883.3242765468344
753,883.3499379232034
754,883.3731731949474
755,883.3940712945861
756,883.4127337070203
757,883.4292746374736
758,883.4438210599761
759,883.4565126384574
760,883.4675015151294
761,883.4769519636063
762,883.4850399068179
763,883.4919523023227
764,883.4978863999189
765,883.5030488779254
766,883.5076548651864
767,883.5119268564891
768,883.5160935301967
769,883.5203884779374
770,883.5250488564989
771,883.5303139717882
772,883.5364238046707
773,883.5436174891881
774,883.5521317547312
775,883.5621993445211
776,883.5740474231345
777,883.5878959861368
778,883.6039562852956
779,883.6224292830824
780,883.6435041500608
781,883.6673568183901
782,883.6941486040529
783,883.7240249095437
784,883.7571140177993
785,883.7935259873186
786,883.8333516576328
787,883.8766617732198
788,883.9235062325996
789,883.9739134681466
790,884.0278899615033
791,884.0854198991483
792,884.1464649722059
793,884.2109643237505
794,884.2788346457479
795,884.3499704265918
796,884.4242443490309
797,884.5015078371523
798,884.5815917502117
799,884.6643072203135
800,884.7494466295204
801,884.8367847196029
802,884.9260798249747
803,885.0170752170056
804,885.1095005455853
805,885.2030733614165
806,885.2975007007806
807,885.3924807143013
808,885.4877043224701
809,885.5828568827504
810,885.6776198552786
811,885.7716724559252
812,885.8646932865748
813,885.9563619333833
814,886.0463605249736
815,886.1343752437778
816,886.2200977842557
817,886.3032267512056
818,886.3834689904664
819,886.4605408440267
820,886.5341693220222
821,886.6040931844719
822,886.6700639254285
823,886.7318466521976
824,886.7892208530848
825,886.8419810485289
826,886.8899373217574
827,886.9329157257885
828,886.970758563829
829,887.0033245404343
830,887.0304887817464
831,887.0521427249623
832,887.0681938798141
833,887.0785654679227
834,887.0831959487107
835,887.0820384424218
836,887.0750600616534
837,887.0622411631862
838,887.0435745321618
839,887.0190645107425
840,886.9887260829877
841,886.9525839265111
842,886.9106714393552
843,886.863029747613
844,886.8097066962822
845,886.7507558232335
846,886.6862353143222
847,886.6162069365209
848,886.5407349455751
849,886.4598849652617
850,886.3737228368014
851,886.2823134387852
852,886.1857194795732
853,886.08400026527
854,885.9772104472322
855,885.8653987541567
856,885.7486067155786
857,885.6268673860836
858,885.5002040824219
859,885.3686291487643
860,885.2321427680241
861,885.0907318385157
862,884.9443689346396
863,884.7930113681984
864,884.6366003644298
865,884.4750603646087
866,884.3082984651771
867,884.1362040016925
868,883.9586482846564
869,883.7754844938239
870,883.5865477376124
871,883.3916552839141
872,883.1906069672617
873,882.9831857748746
874,882.7691586112277
875,882.5482772381501
876,882.3202793855135
877,882.0848900261296
878,881.8418228072281
879,881.590781629724
880,881.3314623656556
881,881.0635547039652
882,880.7867441152276
883,880.5007139264648
884,880.2051474970149
885,879.899730485205
886,879.5841531937074
887,879.2581129794884
888,878.9213167124537
889,878.5734832653668
890,878.2143460165391
891,877.8436553462551
892,877.461181107896
893,877.0667150550152
894,876.6600732057194
895,876.2410981254527
896,875.809661109053
897,875.3656642432674
898,874.9090423318237
899,874.4397646664935
900,873.9578366294328
901,873.4633011145977
902,872.9562397589056
903,872.4367739764951
904,871.9050657917007
905,871.3613184684166
906,870.8057769353948
907,870.2387280082105
908,869.6605004088641
909,869.0714645835884
910,868.4720323188919
911,867.8626561556514
912,867.2438286016488
913,866.6160811444906
914,865.9799830690174
915,865.3361400853323
916,864.6851927747792
