frame_number,force
0,826.8095090043962
1,826.6976158023806
2,826.5860139174398
3,826.4749924610416
4,826.3648361782878
5,826.2558233732145
6,826.1482239552647
7,826.0422976351804
8,825.9382922922621
9,825.8364425297656
10,825.7369684305785
11,825.6400745202786
12,825.5459489392028
13,825.4547628201191
14,825.3666698640494
15,825.2818061034329
16,825.2002898386947
17,825.1222217315396
18,825.0476850366671
19,824.9767459538486
20,824.909454084369
21,824.8458429786291
22,824.7859307639743
23,824.7297208428835
24,824.6772026515076
25,824.6283524677474
26,824.5831342576795
27,824.5415005499642
28,824.503393329435
29,824.4687449423039
30,824.43747900588
31,824.4095113157738
32,824.3847507437382
33,824.3631001198365
34,824.3444570935741
35,824.3287149696474
36,824.3157635143631
37,824.3054897281797
38,824.2977785787118
39,824.2925136879458
40,824.2895779678806
41,824.2888541998614
42,824.2902255540483
43,824.2935760468794
44,824.298790936087
45,824.3057570543348
46,824.3143630835895
47,824.3244997735154
48,824.3360601088019
49,824.3489394318523
50,824.3630355280433
51,824.3782486808028
52,824.3944817034189
53,824.4116399541288
54,824.4296313410482
55,824.4483663241444
56,824.4677579224667
57,824.487721735496
58,824.5081759870255
59,824.5290415983014
60,824.5502422949517
61,824.5717047504685
62,824.5933587679443
63,824.6151375007314
64,824.636977710815
65,824.658820060864
66,824.6806094328817
67,824.702295264063
68,824.723831889351
69,824.745178880193
70,824.7663013694813
71,824.7871703529884
72,824.807762957628
73,824.8280626671298
74,824.8480594968117
75,824.8677501111033
76,824.887137879513
77,824.9062328678898
78,824.9250517618487
79,824.9436177189503
80,824.9619601467207
81,824.9801144050988
82,824.9981214336647
83,825.0160273054335
84,825.0338827101177
85,825.051742370798
86,825.0696643989945
87,825.087709594271
88,825.10594069577
89,825.1244215943616
90,825.1432165151124
91,825.1623891803187
92,825.1820019635115
93,825.2021150448497
94,825.2227855782174
95,825.2440668800494
96,825.2660076494475
97,825.2886512286366
98,825.3120349121476
99,825.336189312322
100,825.3611377879765
101,825.386895942346
102,825.413471195583
103,825.4408624361089
104,825.4690597538573
105,825.4980442568833
106,825.5277879712057
107,825.5582538226586
108,825.5893956989869
109,825.6211585900306
110,825.6534788032357
111,825.6862842509967
112,825.719494805921
113,825.753022720449
114,825.7867731082061
115,825.8206444850955
116,825.8545293676341
117,825.8883149244009
118,825.9218836744255
119,825.9551142246899
120,825.9878820380602
121,826.020060222849
122,826.0515203354789
123,826.0821331880551
124,826.1117696529531
125,826.1403014569966
126,826.1676019586728
127,826.1935469030772
128,826.2180151503644
129,826.2408893737997
130,826.2620567229209
131,826.2814094462294
132,826.298845466986
133,826.3142689057225
134,826.3275905438791
135,826.3387282238663
136,826.3476071816254
137,826.3541603087457
138,826.3583283425029
139,826.3600599835619
140,826.3593119424747
141,826.3560489177577
142,826.3502435100651
143,826.3418760781161
144,826.3309345423622
145,826.3174141426797
146,826.3013171574088
147,826.2826525926201
148,826.2614358516737
149,826.2376883952882
150,826.2114374014436
151,826.1827154328588
152,826.151560117886
153,826.1180138488235
154,826.0821235002694
155,826.0439401694792
156,826.0035189404343
157,825.9609186728629
158,825.916201816632
159,825.8694342512808
160,825.8206851501703
161,825.7700268681616
162,825.7175348504288
163,825.6632875584928
164,825.607366408967
165,825.5498557212658
166,825.4908426717564
167,825.4304172521067
168,825.3686722281789
169,825.3057030933937
170,825.241608008511
171,825.176487719272
172,825.1104454442844
173,825.0435867270994
174,824.9760192480787
175,824.9078525933013
176,824.839197979582
177,824.7701679367348
178,824.7008759501895
179,824.6314360684405
180,824.5619624803802
181,824.4925690678302
182,824.423368939228
183,824.354473951521
184,824.2859942281483
185,824.2180376809944
186,824.1507095437238
187,824.0841119235698
188,824.018343378355
189,823.9534985248679
190,823.8896676837351
191,823.8269365649276
192,823.7653859970003
193,823.7050917019372
194,823.6461241160617
195,823.5885482559459
196,823.5324236266814
197,823.4778041684841
198,823.424738236775
199,823.3732686109955
200,823.3234325284693
201,823.2752617410586
202,823.2287825933249
203,823.1840161207787
204,823.1409781655693
205,823.0996795055847
206,823.0601259928379
207,823.0223186988532
208,822.9862540676559
209,822.9519240796861
210,822.9193164320234
211,822.8884147416229
212,822.8591987784002
213,822.8316447336975
214,822.8057255274068
215,822.7814111544941
216,822.7586690692078
217,822.7374646029942
218,822.7177614103172
219,822.6995219352574
220,822.6827078907883
221,822.6672807419259
222,822.6532021836531
223,822.6404346046168
224,822.6289415279963
225,822.6186880216659
226,822.6096410709633
227,822.6017699089015
228,822.5950463000721
229,822.589444775303
230,822.5849428142308
231,822.5815209729408
232,822.5791629546014
233,822.5778556228024
234,822.5775889593477
235,822.5783559694501
236,822.5801525373013
237,822.5829772345793
238,822.58683108454
239,822.5917172851869
240,822.5976408962057
241,822.6046084953839
242,822.6126278108724
243,822.6217073360251
244,822.6318559339737
245,822.6430824396301
246,822.655395267153
247,822.6688020307382
248,822.6833091860426
249,822.6989216989232
250,822.7156427475221
251,822.7334734627946
252,822.7524127109133
253,822.7724569183162
254,822.793599936835
255,822.8158329434108
256,822.8391443672963
257,822.8635198376295
258,822.8889421454352
259,822.9153912157794
260,822.9428440874514
261,822.9712748989419
262,823.0006548805137
263,823.0309523526543
264,823.0621327310666
265,823.0941585378118
266,823.1269894178913
267,823.1605821608927
268,823.1948907282786
269,823.2298662880664
270,823.2654572594487
271,823.3016093698591
272,823.3382657263707
273,823.3753669031312
274,823.4128510475073
275,823.4506540091503
276,823.4887094970364
277,823.5269492687145
278,823.5653033535824
279,823.6037003091271
280,823.6420675071508
281,823.6803314467487
282,823.7184180915763
283,823.756253229491
284,823.7937628522067
285,823.8308735513893
286,823.867512926426
287,823.903609998327
288,823.9390956238221
289,823.9739029035542
290,824.007967578452
291,824.0412284090409
292,824.0736275336891
293,824.1051108032284
294,824.13562809026
295,824.1651335714582
296,824.1935859808434
297,824.2209488319755
298,824.2471906073569
299,824.2722849136936
300,824.2962106019896
301,824.3189518520265
302,824.3404982219466
303,824.3608446653201
304,824.3799915197598
305,824.3979444721226
306,824.4147145051028
307,824.4303178285833
308,824.4447757969231
309,824.4581148108183
310,824.4703661998379
311,824.4815660797957
312,824.4917551783552
313,824.5009786226411
314,824.5092856836354
315,824.5167294735165
316,824.5233665940248
317,824.5292567366455
318,824.5344622389124
319,824.5390476047527
320,824.5430789991434
321,824.5466237274109
322,824.5497497076855
323,824.55252494291
324,824.5550169977398
325,824.5572924859256
326,824.5594165745089
327,824.5614525112608
328,824.5634611807726
329,824.565500692918
330,824.5676260058656
331,824.5698885847701
332,824.5723360965723
333,824.5750121409286
334,824.5779560174211
335,824.5812025298993
336,824.5847818295201
337,824.588719298259
338,824.5930354743467
339,824.5977460203909
340,824.6028617338761
341,824.6083885984763
342,824.6143278736126
343,824.6206762194051
344,824.6274258548032
345,824.6345647480791
346,824.6420768402287
347,824.6499423021409
348,824.6581378253668
349,824.6666369446494
350,824.67541038913
351,824.6844264588983
352,824.6936514239258
353,824.7030499426418
354,824.7125854971918
355,824.722220841868
356,824.73191846035
357,824.7416410262364
358,824.7513518602867
359,824.761015377335
360,824.7705975161496
361,824.7800661465313
362,824.7893914494477
363,824.7985462676392
364,824.8075064255686
365,824.816251018656
366,824.82476267212
367,824.8330277691755
368,824.8410366472084
369,824.8487837597008
370,824.8562678014401
371,824.8634917946641
372,824.8704631339824
373,824.8771935878904
374,824.883699254385
375,824.8900004680443
376,824.8961216565158
377,824.9020911456317
378,824.9079409137906
379,824.9137062974434
380,824.919425650337
381,824.9251399594705
382,824.9308924206672
383,824.9367279769551
384,824.9426928240906
385,824.9488338892334
386,824.9551982900093
387,824.9618327814302
388,824.9687831978481
389,824.9760938972188
390,824.9838072155313
391,824.9919629396221
392,825.0005978061736
393,825.0097450336432
394,825.0194338925735
395,825.0296893185182
396,825.0405315707892
397,825.0519759392117
398,825.0640324998724
399,825.0767059197002
400,825.0899953090216
401,825.1038941209463
402,825.1183900963468
403,825.1334652533334
404,825.1490959206221
405,825.1652528146818
406,825.1819011604638
407,825.1990008550252
408,825.2165066731362
409,825.2343685141703
410,825.2525316895744
411,825.2709372494405
412,825.2895223454015
413,825.3082206260166
414,825.3269626607926
415,825.3456763902107
416,825.3642876009228
417,825.3827204264871
418,825.4008978738608
419,825.4187423742889
420,825.4361763546646
421,825.4531228227519
422,825.4695059577634
423,825.4852516970783
424,825.5002883102009
425,825.5145469522374
426,825.5279621910037
427,825.5404725037137
428,825.5520207401822
429,825.562554549371
430,825.5720267655881
431,825.5803957505938
432,825.5876256886219
433,825.5936868327028
434,825.598555702316
435,825.6022152337665
436,825.6046548851252
437,825.6058706969126
438,825.6058653084117
439,825.6046479281663
440,825.6022342560882
441,825.5986463539016
442,825.5939124607102
443,825.5880667514666
444,825.5811490379546
445,825.5732044142012
446,825.5642828503961
447,825.5544387408346
448,825.543730412047
449,825.5322195975496
450,825.5199708858972
451,825.507051148763
452,825.4935289552446
453,825.4794739778553
454,825.46495639571
455,825.4500463018428
456,825.434813123817
457,825.4193250687397
458,825.4036486045076
459,825.3878479880284
460,825.3719848484845
461,825.3561178304639
462,825.3403022988466
463,825.3245901047327
464,825.3090294093728
465,825.2936645615222
466,825.2785360232864
467,825.2636803400445
468,825.249130150675
469,825.2349142345963
470,825.2210575920996
471,825.2075815542947
472,825.1945039189717
473,825.1818391091723
474,825.1695983526472
475,825.1577898822015
476,825.1464191579902
477,825.1354891121929
478,825.1250004144624
479,825.1149517541216
480,825.1053401332434
481,825.096161164135
482,825.0874093654096
483,825.079078452119
484,825.071161616439
485,825.0636517956544
486,825.0565419239286
487,825.0498251643334
488,825.0434951182403
489,825.0375460098567
490,825.0319728436947
491,825.0267715322441
492,825.0219389908033
493,825.0174731968193
494,825.0133732121583
495,825.0096391681785
496,825.0062722148643
497,825.0032744361573
498,825.0006487340124
499,824.9983986841206
500,824.9965283667882
501,824.9950421767106
502,824.9939446151278
503,824.993240067608
504,824.992932570825
505,824.9930255716753
506,824.9935216812906
507,824.9944224251619
508,824.9957279895979
509,824.9974369647449
510,824.9995460852082
511,825.0020499702437
512,825.0049408660223
513,825.0082083926926
514,825.0118392993046
515,825.0158172301835
516,825.0201225068437
517,825.0247319298988
518,825.0296186057057
519,825.0347518025756
520,825.0400968412891
521,825.0456150247386
522,825.0512636122385
523,825.0569958451656
524,825.0627610314632
525,825.068504696691
526,825.0741688085495
527,825.0796920800776
528,825.0850103541125
529,825.0900570684241
530,825.0947637975867
531,825.0990608644296
532,825.1028780111534
533,825.1061451184144
534,825.1087929602022
535,825.110753982929
536,825.1119630982146
537,825.1123584796898
538,825.1118823543216
539,825.1104817784886
540,825.1081093889852
541,825.1047241196795
542,825.1002918754355
543,825.0947861556277
544,825.0881886199933
545,825.0804895898377
546,825.071688477821
547,825.0617941394647
548,825.0508251391782
549,825.038809923587
550,825.0257868960043
551,825.0118043881643
552,824.9969205281958
553,824.9812030064869
554,824.9647287432992
555,824.9475834637052
556,824.9298611864696
557,824.9116636337917
558,824.8930995685357
559,824.8742840650234
560,824.8553377188355
561,824.8363858005329
562,824.8175573580847
563,824.7989842733472
564,824.7808002789708
565,824.7631399430987
566,824.7461376298346
567,824.729926443781
568,824.7146371670793
569,824.7003971972838
570,824.6873294938978
571,824.6755515406949
572,824.6651743307162
573,824.6563013814281
574,824.6490277882936
575,824.6434393251567
576,824.6396115994996
577,824.6376092704023
578,824.6374853368895
579,824.6392805035662
580,824.6430226286642
581,824.6487262576406
582,824.6563922446859
583,824.6660074655889
584,824.6775446277406
585,824.6909621855025
586,824.706204370921
587,824.7232013504185
588,824.7418695174559
589,824.762111929175
590,824.7838188917408
591,824.8068686950003
592,824.831128493045
593,824.8564553239031
594,824.8826972587465
595,824.9096946680824
596,824.9372815892639
597,824.9652871767782
598,824.9935372145537
599,825.021855667782
600,825.0500662504705
601,825.0779939847773
602,825.1054667295408
603,825.1323166575875
604,825.1583816633439
605,825.1835066837752
606,825.2075449170417
607,825.230358924686
608,825.2518216046825
609,825.2718170244284
610,825.2902411047268
611,825.3070021477404
612,825.3220212037706
613,825.3352322740005
614,825.3465823495841
615,825.3560312915444
616,825.3635515597977
617,825.369127802232
618,825.3727563162071
619,825.3744443959845
620,825.3742095810467
621,825.3720788219937
622,825.3680875824604
623,825.36227889701
624,825.3547024059367
625,825.3454133879742
626,825.334471810866
627,825.3219414177589
628,825.3078888647407
629,825.292382921867
630,825.2754937471202
631,825.2572922403866
632,825.2378494828253
633,825.2172362654769
634,825.1955227090713
635,825.1727779745459
636,825.1490700609987
637,825.1244656851113
638,825.0990302340471
639,825.07282778288
640,825.0459211677639
641,825.0183721067962
642,824.9902413612167
643,824.9615889300437
644,824.9324742717819
645,824.9029565472778
646,824.8730948773992
647,824.8429486077357
648,824.8125775708089
649,824.7820423353984
650,824.7514044327678
651,824.7207265504989
652,824.690072686102
653,824.6595082545671
654,824.6291001463726
655,824.5989167347109
656,824.569027832298
657,824.5395045987897
658,824.5104193996017
659,824.4818456163297
660,824.4538574085456
661,824.4265294268711
662,824.3999364778407
663,824.3741531418285
664,824.3492533459091
665,824.3253098941368
666,824.3023939588705
667,824.2805745384129
668,824.2599178876964
669,824.24048692968
670,824.222340655801
671,824.2055335244668
672,824.1901148670095
673,824.1761283105952
674,824.1636112271483
675,824.1525942161762
676,824.1431006273775
677,824.135146126454
678,824.1287383055335
679,824.1238763389888
680,824.1205506865388
681,824.1187428477068
682,824.1184251739404
683,824.1195607461136
684,824.1221033253213
685,824.1259973838482
686,824.1311782213533
687,824.1375721691821
688,824.1450968838966
689,824.1536617298885
690,824.1631682502376
691,824.1735107243337
692,824.1845768098615
693,824.1962482654112
694,824.2084017484082
695,824.2209096815074
696,824.2336411792631
697,824.2464630256808
698,824.2592406919482
699,824.2718393821683
700,824.2841250935505
701,824.2959656766519
702,824.3072318811197
703,824.3177983730135
704,824.3275447111622
705,824.3363562721197
706,824.344125115878
707,824.3507507869423
708,824.3561410469538
709,824.3602125355002
710,824.3628913552923
711,824.3641135769892
712,824.3638256584301
713,824.3619847736142
714,824.3585590484261
715,824.353527701849
716,824.3468810922576
717,824.3386206684062
718,824.328758825022
719,824.317318664271
720,824.3043336664495
721,824.2898472753019
722,824.2739124051184
723,824.2565908782942
724,824.2379528032209
725,824.2180759029706
726,824.1970448053986
727,824.1749503051924
728,824.1518886077474
729,824.1279605633366
730,824.1032708984337
731,824.0779274502971
732,824.0520404112756
733,824.025721589844
734,823.9990836948817
735,823.9722396478023
736,823.9453019246414
737,823.9183819283313
738,823.8915893908054
739,823.8650318050667
740,823.8388138883437
741,823.8130370784672
742,823.7877990663466
743,823.7631933676375
744,823.7393089362085
745,823.7162298209789
746,823.6940348666022
747,823.6727974576221
748,823.6525853052595
749,823.6334602758308
750,823.6154782597131
751,823.5986890796567
752,823.5831364371937
753,823.5688578958351
754,823.5558848992767
755,823.5442428219367
756,823.5339510483594
757,823.5250230777433
758,823.5174666499047
759,823.5112838892793
760,823.506471464349
761,823.5030207613388
762,823.5009180727942
763,823.5001448029849
764,823.5006776924772
765,823.5024890637818
766,823.5055470892762
767,823.5098160821684
768,823.5152568112793
769,823.5218268405235
770,823.5294808935411
771,823.5381712426589
772,823.547848119493
773,823.5584601427718
774,823.569954758388
775,823.5822786877045
776,823.5953783817401
777,823.6092004792281
778,823.6236922649836
779,823.6388021226034
780,823.6544799735971
781,823.6706776938901
782,823.6873494979516
783,823.704452280594
784,823.7219459068997
785,823.7397934413915
786,823.7579613078876
787,823.7764193715391
788,823.7951409351826
789,823.814102644164
790,823.8332842971517
791,823.8526685643089
792,823.8722406176026
793,823.8919876808512
794,823.911898509731
795,823.9319628145558
796,823.9521706409213
797,823.9725117249915
798,823.9929748412347
799,824.0135471607689
800,824.0342136381282
801,824.0549564432656
802,824.075754454236
803,824.0965828246135
804,824.1174126382366
805,824.1382106618289
806,824.1589392031589
807,824.1795560791714
808,824.2000146956709
809,824.2202642376384
810,824.240249966653
811,824.2599136191509
812,824.2791938969157
813,824.2980270396315
814,824.3163474685257
815,824.3340884897733
816,824.3511830459038
817,824.3675645023867
818,824.3831674549376
819,824.397928541589
820,824.4117872429977
821,824.424686655161
822,824.4365742204931
823,824.447402405452
824,824.457129315051
825,824.465719236657
826,824.4731431078807
827,824.4793789061508
828,824.4844119600361
829,824.4882351836021
830,824.490849234927
831,824.4922625992156
832,824.4924915967039
833,824.4915603158403
834,824.4895004725926
835,824.4863511970194
836,824.4821587485503
837,824.4769761616682
838,824.4708628237559
839,824.463883986943
840,824.4561102161966
841,824.4476167770476
842,824.4384829685746
843,824.4287914100669
844,824.4186272917958
845,824.4080776007628
846,824.3972303318409
847,824.3861736944466
848,824.37499532483
849,824.3637815135463
850,824.3526164564096
851,824.341581535653
852,824.3307546366536
853,824.3202095047479
854,824.310015146599
855,824.3002352812898
856,824.290927847255
857,824.2821445716872
858,824.2739306090483
859,824.2663242551675
860,824.2593567432208
861,824.2530521269659
862,824.247427254294
863,824.2424918307406
864,824.238248569326
865,824.234693420946
866,824.2318158785919
867,824.2295993484073
868,824.2280215803696
869,824.2270551509246
870,824.2266679895473
871,824.2268239416212
872,824.2274833614817
873,824.2286037314684
874,824.2301403042777
875,824.2320467658128
876,824.2342759140511
877,824.2367803474039
878,824.2395131549919
879,824.2424286015397
880,824.2454828002259
881,824.2486343664336
882,824.2518450437091
883,824.2550802916113
884,824.2583098247017
885,824.2615080925292
886,824.264654691437
887,824.2677347002522
888,824.2707389337677
889,824.2736641103369
890,824.2765129322758
891,824.2792940795886
892,824.2820221187839
893,824.2847173294665
894,824.2874054520526
895,824.2901173605542
896,824.2928886653347
897,824.295759252257
898,824.29877276649
899,824.30197605086
900,824.3054185494204
901,824.3091516864703
902,824.3132282296675
903,824.3177016437062
904,824.3226254391492
905,824.3280525202629
906,824.334034536403
907,824.34062124303
908,824.3478598796526
909,824.3557945722546
910,824.3644657672899
911,824.3739097036581
912,824.3841579282465
913,824.3952368594092
914,824.4071674012073
915,824.4199646097808
916,824.4336374122703
917,824.4481883782108
918,824.4636135430449
