frame_number,force
0,826.809509009785
1,826.697615807637
2,826.5860139225692
3,826.4749924660506
4,826.3648361831843
5,826.2558233780071
6,826.1482239599625
7,826.0422976397933
8,825.9382922968011
9,825.8364425342421
10,825.7369684350032
11,825.6400745246618
12,825.5459489435545
13,825.4547628244482
14,825.3666698683634
15,825.2818061077385
16,825.2002898429977
17,825.1222217358444
18,825.0476850409768
19,824.9767459581655
20,824.9094540886939
21,824.8458429829619
22,824.7859307683135
23,824.7297208472261
24,824.677202655849
25,824.6283524720809
26,824.5831342619973
27,824.5415005542575
28,824.5033933336939
29,824.4687449465175
30,824.4374790100369
31,824.4095113198622
32,824.3847507477464
33,824.363100123753
34,824.344457097388
35,824.3287149733488
36,824.3157635179431
37,824.3054897316307
38,824.2977785820274
39,824.2925136911216
40,824.2895779709141
41,824.2888542027515
42,824.2902255567952
43,824.2935760494843
44,824.2987909385524
45,824.3057570566641
46,824.3143630857862
47,824.3244997755841
48,824.3360601107476
49,824.3489394336808
50,824.3630355297611
51,824.3782486824172
52,824.3944817049377
53,824.4116399555601
54,824.4296313424004
55,824.4483663254262
56,824.4677579236871
57,824.4877217366641
58,824.5081759881497
59,824.5290415993893
60,824.5502422960102
61,824.5717047515033
62,824.5933587689599
63,824.615137501731
64,824.6369777118015
65,824.6588200618397
66,824.6806094338492
67,824.702295265025
68,824.7238318903105
69,824.7451788811528
70,824.7663013704439
71,824.7871703539557
72,824.807762958602
73,824.8280626681121
74,824.848059497804
75,824.8677501121068
76,824.8871378805297
77,824.9062328689225
78,824.9250517629005
79,824.9436177200234
80,824.9619601478163
81,824.9801144062169
82,824.9981214348047
83,825.0160273065944
84,825.033882711299
85,825.0517423719994
86,825.0696644002156
87,825.0877095955125
88,825.105940697033
89,825.1244215956482
90,825.1432165164252
91,825.1623891816606
92,825.1820019648853
93,825.2021150462588
94,825.2227855796663
95,825.2440668815434
96,825.2660076509919
97,825.2886512302366
98,825.312034913808
99,825.3361893140471
100,825.3611377897705
101,825.3868959442121
102,825.4134711975247
103,825.4408624381292
104,825.4690597559592
105,825.4980442590679
106,825.5277879734725
107,825.5582538250055
108,825.589395701411
109,825.6211585925275
110,825.6534788058
111,825.6862842536226
112,825.7194948086019
113,825.753022723177
114,825.7867731109733
115,825.8206444878945
116,825.8545293704578
117,825.8883149272424
118,825.9218836772773
119,825.9551142275443
120,825.9878820409098
121,826.0200602256866
122,826.0515203382981
123,826.0821331908498
124,826.1117696557186
125,826.1403014597292
126,826.1676019613699
127,826.1935469057364
128,826.2180151529836
129,826.2408893763771
130,826.2620567254545
131,826.2814094487165
132,826.2988454694238
133,826.314268908108
134,826.3275905462084
135,826.3387282261349
136,826.3476071838288
137,826.3541603108797
138,826.358328344565
139,826.360059985552
140,826.3593119443943
141,826.3560489196097
142,826.3502435118548
143,826.3418760798502
144,826.3309345440482
145,826.3174141443257
146,826.3013171590228
147,826.2826525942097
148,826.2614358532458
149,826.237688396849
150,826.2114374029985
151,826.1827154344124
152,826.1515601194423
153,826.118013850386
154,826.0821235018419
155,826.0439401710652
156,826.0035189420365
157,825.960918674484
158,825.9162018182743
159,825.8694342529471
160,825.8206851518632
161,825.7700268698834
162,825.7175348521818
163,825.6632875602792
164,825.6073664107887
165,825.5498557231243
166,825.4908426736534
167,825.4304172540445
168,825.3686722301603
169,825.3057030954232
170,825.2416080105943
171,825.1764877214163
172,825.1104454464981
173,825.0435867293918
174,824.9760192504592
175,824.9078525957791
176,824.8391979821653
177,824.7701679394308
178,824.7008759530039
179,824.6314360713776
180,824.5619624834435
181,824.4925690710223
182,824.4233689425505
183,824.3544739549743
184,824.2859942317316
185,824.2180376847059
186,824.1507095475611
187,824.08411192753
188,824.018343382435
189,823.9534985290642
190,823.8896676880433
191,823.826936569343
192,823.7653860015173
193,823.705091706549
194,823.6461241207595
195,823.5885482607194
196,823.532423631519
197,823.4778041733728
198,823.4247382417007
199,823.3732686159423
200,823.3234325334207
201,823.2752617459983
202,823.2287825982366
203,823.1840161256468
204,823.1409781703786
205,823.0996795103201
206,823.0601259974853
207,823.0223187033996
208,822.9862540720903
209,822.951924083999
210,822.9193164362063
211,822.8884147456688
212,822.8591987823027
213,822.8316447374507
214,822.8057255310064
215,822.7814111579372
216,822.7586690724934
217,822.7374646061232
218,822.717761413293
219,822.6995219380848
220,822.6827078934731
221,822.6672807444753
222,822.6532021860747
223,822.6404346069186
224,822.6289415301873
225,822.6186880237558
226,822.6096410729626
227,822.601769910821
228,822.5950463019217
229,822.589444777092
230,822.5849428159676
231,822.581520974633
232,822.5791629562556
233,822.5778556244243
234,822.577588960943
235,822.5783559710239
236,822.5801525388581
237,822.582977236124
238,822.5868310860781
239,822.5917172867247
240,822.5976408977504
241,822.6046084969425
242,822.6126278124519
243,822.6217073376324
244,822.6318559356155
245,822.6430824413138
246,822.6553952688863
247,822.6688020325286
248,822.6833091878965
249,822.6989217008465
250,822.71564274952
251,822.733473464871
252,822.7524127130716
253,822.7724569205585
254,822.7935999391627
255,822.8158329458249
256,822.8391443697966
257,822.8635198402156
258,822.8889421481069
259,822.9153912185366
260,822.9428440902939
261,822.9712749018701
262,823.0006548835279
263,823.0309523557551
264,823.0621327342548
265,823.0941585410877
266,823.1269894212552
267,823.1605821643443
268,823.1948907318174
269,823.2298662916917
270,823.2654572631584
271,823.3016093736513
272,823.3382657302433
273,823.3753669070817
274,823.4128510515322
275,823.4506540132455
276,823.488709501197
277,823.5269492729351
278,823.5653033578576
279,823.6037003134513
280,823.6420675115188
281,823.680331451156
282,823.7184180960191
283,823.7562532339662
284,823.7937628567117
285,823.8308735559231
286,823.8675129309884
287,823.9036100029193
288,823.9390956284466
289,823.9739029082142
290,824.0079675831516
291,824.0412284137847
292,824.0736275384825
293,824.1051108080771
294,824.135628095171
295,824.1651335764393
296,824.1935859859024
297,824.2209488371196
298,824.2471906125921
299,824.2722849190244
300,824.296210607419
301,824.3189518575564
302,824.3404982275777
303,824.3608446710517
304,824.37999152559
305,824.3979444780481
306,824.414714511119
307,824.4303178346856
308,824.4447758031076
309,824.4581148170817
310,824.4703662061776
311,824.4815660862096
312,824.4917551848408
313,824.5009786291954
314,824.5092856902544
315,824.5167294801959
316,824.5233666007598
317,824.5292567434309
318,824.5344622457424
319,824.5390476116204
320,824.5430790060419
321,824.546623734332
322,824.5497497146204
323,824.5525249498496
324,824.5550170046755
325,824.5572924928492
326,824.559416581413
327,824.5614525181384
328,824.5634611876176
329,824.565500699725
330,824.5676260126302
331,824.5698885914877
332,824.5723361032384
333,824.5750121475382
334,824.5779560239686
335,824.581202536378
336,824.584781835923
337,824.5887193045791
338,824.5930354805781
339,824.5977460265292
340,824.602861739918
341,824.6083886044194
342,824.6143278794557
343,824.6206762251478
344,824.6274258604459
345,824.6345647536226
346,824.6420768456728
347,824.649942307484
348,824.6581378306075
349,824.6666369497862
350,824.6754103941618
351,824.6844264638249
352,824.6936514287471
353,824.7030499473582
354,824.7125855018038
355,824.7222208463764
356,824.7319184647563
357,824.7416410305423
358,824.751351864494
359,824.7610153814459
360,824.7705975201666
361,824.7800661504576
362,824.7893914532866
363,824.7985462713943
364,824.8075064292441
365,824.8162510222555
366,824.8247626756457
367,824.8330277726284
368,824.8410366505884
369,824.8487837630066
370,824.8562678046692
371,824.863491797814
372,824.8704631370512
373,824.8771935908762
374,824.8836992572876
375,824.8900004708642
376,824.8961216592542
377,824.9020911482909
378,824.9079409163738
379,824.9137062999553
380,824.9194256527834
381,824.9251399618579
382,824.9308924230028
383,824.9367279792459
384,824.942692826343
385,824.948833891453
386,824.9551982922019
387,824.961832783601
388,824.9687832000022
389,824.9760938993614
390,824.9838072176686
391,824.9919629417608
392,825.0005978083208
393,825.0097450358065
394,825.0194338947603
395,825.0296893207352
396,825.040531573043
397,825.0519759415084
398,825.0640325022173
399,825.0767059220984
400,825.089995311477
401,825.1038941234614
402,825.118390098923
403,825.1334652559694
404,825.1490959233151
405,825.1652528174269
406,825.1819011632551
407,825.1990008578564
408,825.2165066759999
409,825.2343685170591
410,825.2525316924803
411,825.2709372523555
412,825.2895223483175
413,825.3082206289254
414,825.326962663686
415,825.3456763930811
416,825.3642876037628
417,825.38272042929
418,825.4008978766202
419,825.4187423769986
420,825.4361763573189
421,825.4531228253459
422,825.4695059602932
423,825.4852516995418
424,825.500288312598
425,825.5145469545695
426,825.5279621932733
427,825.5404725059244
428,825.5520207423386
429,825.5625545514788
430,825.5720267676542
431,825.5803957526261
432,825.5876256906288
433,825.5936868346928
434,825.598555704298
435,825.6022152357489
436,825.6046548871167
437,825.6058706989227
438,825.6058653104512
439,825.6046479302469
440,825.6022342582211
441,825.5986463560976
442,825.59391246298
443,825.5880667538212
444,825.5811490404038
445,825.5732044167543
446,825.5642828530614
447,825.5544387436192
448,825.5437304149568
449,825.5322196005889
450,825.5199708890696
451,825.5070511520712
452,825.4935289586904
453,825.479473981439
454,825.4649563994307
455,825.4500463056977
456,825.4348131278024
457,825.4193250728509
458,825.4036486087394
459,825.3878479923748
460,825.3719848529387
461,825.3561178350193
462,825.3403023034977
463,825.324590109475
464,825.3090294142035
465,825.2936645664389
466,825.2785360282879
467,825.2636803451304
468,825.2491301558454
469,825.2349142398523
470,825.221057597443
471,825.2075815597276
472,825.1945039244957
473,825.1818391147889
474,825.1695983583573
475,825.1577898880058
476,825.146419163889
477,825.1354891181874
478,825.1250004205541
479,825.1149517603126
480,825.1053401395362
481,825.0961611705319
482,825.0874093719125
483,825.0790784587284
484,825.0711616231541
485,825.0636518024739
486,825.0565419308507
487,825.0498251713556
488,825.0434951253593
489,825.0375460170683
490,825.031972850994
491,825.0267715396255
492,825.0219389982605
493,825.0174732043453
494,825.0133732197452
495,825.0096391758179
496,825.0062722225475
497,825.003274443875
498,825.0006487417558
499,824.998398691881
500,824.9965283745568
501,824.9950421844784
502,824.9939446228851
503,824.9932400753448
504,824.9929325785309
505,824.993025579339
506,824.9935216888998
507,824.9944224327031
508,824.9957279970569
509,824.9974369721074
510,824.9995460924596
511,825.0020499773694
512,825.0049408730077
513,825.0082083995235
514,825.0118393059678
515,825.0158172366672
516,825.0201225131374
517,825.024731935994
518,825.029618611596
519,825.0347518082573
520,825.0400968467611
521,825.0456150300022
522,825.0512636172969
523,825.0569958500241
524,825.0627610361289
525,825.0685047011723
526,825.074168812855
527,825.0796920842156
528,825.0850103580918
529,825.0900570722545
530,825.0947638012781
531,825.0990608679924
532,825.1028780145983
533,825.1061451217522
534,825.108792963444
535,825.1107539860864
536,825.1119631012992
537,825.1123584827138
538,825.1118823572966
539,825.1104817814263
540,825.1081093918978
541,825.1047241225791
542,825.1002918783344
543,825.0947861585377
544,825.0881886229257
545,825.0804895928042
546,825.0716884808326
547,825.0617941425319
548,825.0508251423113
549,825.0388099267951
550,825.0257868992945
551,825.0118043915418
552,824.9969205316637
553,824.9812030100464
554,824.9647287469497
555,824.9475834674444
556,824.929861190294
557,824.9116636376972
558,824.8930995725171
559,824.8742840690749
560,824.8553377229506
561,824.8363858047057
562,824.81755736231
563,824.7989842776199
564,824.7808002832861
565,824.7631399474523
566,824.7461376342224
567,824.7299264481995
568,824.714637171526
569,824.7003972017562
570,824.6873294983933
571,824.6755515452111
572,824.6651743352506
573,824.6563013859786
574,824.6490277928592
575,824.6434393297372
576,824.6396116040956
577,824.6376092750146
578,824.637485341519
579,824.639280508214
580,824.6430226333318
581,824.6487262623293
582,824.6563922493962
583,824.6660074703204
584,824.6775446324922
585,824.6909621902718
586,824.7062043757059
587,824.7232013552173
588,824.7418695222669
589,824.762111933997
590,824.7838188965724
591,824.8068686998394
592,824.8311284978887
593,824.8564553287487
594,824.882697263591
595,824.9096946729238
596,824.9372815941011
597,824.9652871816102
598,824.9935372193784
599,825.0218556725963
600,825.0500662552699
601,825.077993989555
602,825.1054667342889
603,825.1323166622975
604,825.1583816680067
605,825.1835066883821
606,825.2075449215849
607,825.2303589291587
608,825.2518216090783
609,825.2718170287427
610,825.2902411089572
611,825.3070021518865
612,825.3220212078346
613,825.3352322779867
614,825.3465823534992
615,825.3560312953973
616,825.3635515635988
617,825.3691278059924
618,825.3727563199393
619,825.3744443997016
620,825.3742095847623
621,825.3720788257223
622,825.3680875862169
623,825.3622789008099
624,825.3547024097957
625,825.3454133919083
626,825.3344718148917
627,825.3219414218928
628,825.3078888689995
629,825.292382926267
630,825.2754937516764
631,825.2572922451124
632,825.2378494877319
633,825.2172362705742
634,825.1955227143674
635,825.172777980047
636,825.1490700667084
637,825.12446569103
638,825.0990302401725
639,825.0728277892076
640,825.0459211742867
641,825.0183721135053
642,824.9902413681017
643,824.9615889370925
644,824.9324742789809
645,824.9029565546118
646,824.8730948848513
647,824.8429486152868
648,824.8125775784398
649,824.7820423430902
650,824.7514044405017
651,824.7207265582564
652,824.6900726938654
653,824.6595082623195
654,824.6291001540986
655,824.598916742397
656,824.5690278399325
657,824.5395046063627
658,824.5104194071059
659,824.4818456237593
660,824.4538574158955
661,824.4265294341368
662,824.3999364850176
663,824.3741531489119
664,824.3492533528939
665,824.3253099010176
666,824.3023939656422
667,824.2805745450703
668,824.2599178942339
669,824.2404869360919
670,824.2223406620818
671,824.2055335306122
672,824.1901148730165
673,824.1761283164618
674,824.1636112328733
675,824.1525942217593
676,824.1431006328187
677,824.1351461317545
678,824.1287383106951
679,824.1238763440144
680,824.120550691432
681,824.1187428524709
682,824.1184251785778
683,824.1195607506266
684,824.122103329712
685,824.1259973881189
686,824.131178225506
687,824.1375721732195
688,824.1450968878212
689,824.1536617337028
690,824.1631682539439
691,824.1735107279338
692,824.1845768133564
693,824.1962482688017
694,824.2084017516943
695,824.2209096846888
696,824.2336411823388
697,824.2464630286488
698,824.2592406948054
699,824.2718393849116
700,824.2841250961769
701,824.2959656791583
702,824.3072318835025
703,824.3177983752694
704,824.3275447132894
705,824.3363562741185
706,824.3441251177505
707,824.3507507886923
708,824.3561410485866
709,824.360212537022
710,824.3628913567097
711,824.3641135783092
712,824.3638256596603
713,824.3619847747624
714,824.3585590495001
715,824.3535277028569
716,824.3468810932088
717,824.3386206693102
718,824.3287588258886
719,824.3173186651102
720,824.3043336672715
721,824.2898472761179
722,824.2739124059399
723,824.2565908791322
724,824.237952804085
725,824.2180759038689
726,824.1970448063378
727,824.1749503061772
728,824.1518886087815
729,824.1279605644236
730,824.1032708995766
731,824.0779274514985
732,824.0520404125377
733,824.0257215911694
734,823.9990836962725
735,823.9722396492597
736,823.9453019261655
737,823.918381929922
738,823.8915893924624
739,823.8650318067896
740,823.8388138901316
741,823.8130370803188
742,823.7877990682595
743,823.7631933696086
744,823.739308938234
745,823.7162298230542
746,823.6940348687216
747,823.6727974597784
748,823.6525853074448
749,823.6334602780371
750,823.6154782619324
751,823.598689081881
752,823.5831364394157
753,823.5688578980481
754,823.5558849014756
755,823.5442428241171
756,823.5339510505183
757,823.5250230798791
758,823.5174666520174
759,823.5112838913705
760,823.5064714664211
761,823.5030207633952
762,823.5009180748394
763,823.5001448050247
764,823.5006776945177
765,823.502489065829
766,823.505547091336
767,823.5098160842464
768,823.5152568133806
769,823.5218268426524
770,823.5294808957015
771,823.5381712448551
772,823.5478481217301
773,823.558460145055
774,823.5699547607227
775,823.5822786900961
776,823.595378384195
777,823.6092004817531
778,823.6236922675857
779,823.6388021252898
780,823.6544799763736
781,823.6706776967618
782,823.6873495009236
783,823.7044522836711
784,823.7219459100866
785,823.7397934446931
786,823.7579613113091
787,823.7764193750852
788,823.7951409388575
789,823.8141026479709
790,823.833284301094
791,823.8526685683886
792,823.8722406218204
793,823.8919876852067
794,823.9118985142225
795,823.9319628191804
796,823.9521706456748
797,823.9725117298678
798,823.9929748462257
799,824.0135471658648
800,824.0342136433183
801,824.0549564485389
802,824.0757544595822
803,824.0965828300237
804,824.1174126437029
805,824.1382106673434
806,824.1589392087142
807,824.1795560847596
808,824.2000147012837
809,824.2202642432675
810,824.2402499722896
811,824.2599136247862
812,824.2791939025406
813,824.298027045236
814,824.3163474740995
815,824.334088495306
816,824.3511830513849
817,824.3675645078064
818,824.3831674602866
819,824.3979285468589
820,824.4117872481808
821,824.4246866602497
822,824.43657422548
823,824.4474024103303
824,824.4571293198151
825,824.4657192413017
826,824.4731431124014
827,824.4793789105444
828,824.4844119643006
829,824.4882351877375
830,824.4908492389343
831,824.4922626030966
832,824.4924916004616
833,824.4915603194783
834,824.489500476115
835,824.4863512004312
836,824.482158751856
837,824.4769761648724
838,824.4708628268637
839,824.4638839899599
840,824.4561102191286
841,824.447616779901
842,824.4384829713557
843,824.4287914127833
844,824.4186272944555
845,824.408077603374
846,824.3972303344113
847,824.3861736969837
848,824.3749953273395
849,824.3637815160322
850,824.3526164588741
851,824.3415815380969
852,824.3307546390762
853,824.3202095071467
854,824.3100151489712
855,824.3002352836329
856,824.2909278495673
857,824.2821445739676
858,824.2739306112956
859,824.2663242573808
860,824.2593567453989
861,824.2530521291078
862,824.2474272563989
863,824.2424918328074
864,824.2382485713546
865,824.2346934229369
866,824.2318158805459
867,824.2295993503261
868,824.2280215822551
869,824.2270551527783
870,824.2266679913704
871,824.2268239434151
872,824.2274833632487
873,824.2286037332105
874,824.2301403059967
875,824.2320467675094
876,824.2342759157256
877,824.2367803490567
878,824.2395131566237
879,824.2424286031518
880,824.2454828018201
881,824.2486343680127
882,824.2518450452761
883,824.2550802931698
884,824.2583098262552
885,824.2615080940815
886,824.2646546929926
887,824.2677347018172
888,824.2707389353494
889,824.2736641119429
890,824.2765129339136
891,824.2792940812656
892,824.2820221205066
893,824.2847173312404
894,824.2874054538825
895,824.2901173624444
896,824.292888667289
897,824.2957592542788
898,824.2987727685822
899,824.301976053026
900,824.3054185516629
901,824.3091516887915
902,824.3132282320692
903,824.3177016461896
904,824.3226254417156
905,824.3280525229131
906,824.3340345391371
907,824.3406212458473
908,824.3478598825519
909,824.3557945752342
910,824.3644657703477
911,824.3739097067917
912,824.3841579314528
913,824.3952368626847
914,824.4071674045474
915,824.4199646131794
916,824.4336374157201
917,824.4481883817034
