frame_number,force
0,826.8095090000799
1,826.5776551440058
2,826.3487198974411
3,826.1255382982808
4,825.9107824311001
5,825.7068899017778
6,825.5160029767453
7,825.339920255689
8,825.1800619349793
9,825.037449117131
10,824.9126971351506
11,824.8060223369055
12,824.7172612034658
13,824.6459001881339
14,824.5911143390433
15,824.551812554421
16,824.5266871410598
17,824.5142652195699
18,824.5129595549633
19,824.5211167005592
20,824.5370609135068
21,824.5591329613793
22,824.5857234907897
23,824.6153009652963
24,824.6464342968887
25,824.6778102785105
26,824.7082459420967
27,824.7366961379345
28,824.7622568881442
29,824.7841652417226
30,824.8017963854388
31,824.814658705677
32,824.8223874289085
33,824.8247374364398
34,824.8215758620622
35,824.8128750894173
36,824.7987066667231
37,824.7792363920678
38,824.7547204726319
39,824.7255023911125
40,824.6920100044691
41,824.6547523893022
42,824.6143159611646
43,824.5713594538161
44,824.5266074607151
45,824.4808423379401
46,824.4348943115409
47,824.3896297105957
48,824.3459374145202
49,824.3047137746183
50,824.2668463454236
51,824.2331967430847
52,824.2045828917579
53,824.1817608784506
54,824.1654066734352
55,824.156098126249
56,824.1542978744212
57,824.1603379873533
58,824.1744071947649
59,824.196541395184
60,824.2266179133314
61,824.2643538217494
62,824.3093085995912
63,824.3608913630502
64,824.418372729835
65,824.4809010531555
66,824.547522393176
67,824.6172033268288
68,824.6888556051268
69,824.7613617327095
70,824.8336006698438
71,824.9044729378639
72,824.9729244258068
73,825.0379682291397
74,825.0987039977008
75,825.1543345320555
76,825.2041796239355
77,825.2476872380468
78,825.2844420438838
79,825.3141711558418
80,825.3367469004869
81,825.3521865364394
82,825.3606489943758
83,825.3624287898522
84,825.3579472968979
85,825.3477415938688
86,825.3324511227934
87,825.3128024518471
88,825.2895925077814
89,825.2636707355229
90,825.2359207030738
91,825.2072416708697
92,825.1785306016213
93,825.1506650363648
94,825.1244872128019
95,825.1007897390132
96,825.0803030663926
97,825.0636849436531
98,825.0515119677036
99,825.0442732771363
100,825.0423663851044
101,825.0460951194527
102,825.055669605168
103,825.0712081781537
104,825.0927410441523
105,825.1202153779694
106,825.1535014430626
107,825.192399278052
108,825.23664555308
109,825.2859202781513
110,825.3398530912316
111,825.3980288755904
112,825.4599925224246
113,825.5252528338046
114,825.5932858236564
115,825.6635378800216
116,825.7354292702206
117,825.8083583013199
118,825.8817062029743
119,825.9548426014093
120,826.0271313645571
121,826.097936609815
122,826.1666287237445
123,826.2325902946858
124,826.295221892092
125,826.3539476697796
126,826.4082208636612
127,826.4575293921312
128,826.5014018676278
129,826.5394142979601
130,826.5711975759782
131,826.5964455886872
132,826.6149235402278
133,826.6264759785104
134,826.6310340240544
135,826.6286213213576
136,826.6193582361725
137,826.6034638591892
138,826.5812554674709
139,826.5531452010482
140,826.5196338278148
141,826.4813016339469
142,826.4387966640012
143,826.3928206397939
144,826.344112879603
145,826.2934325387238
146,826.2415396201656
147,826.1891754279243
148,826.1370433141225
149,826.085790603347
150,826.0359924605048
151,825.9881382564001
152,825.9426207360857
153,825.8997280643146
154,825.8596386728573
155,825.8224188029217
156,825.7880226738847
157,825.7562952165223
158,825.7269772635192
159,825.6997130707299
160,825.6740600759188
161,825.6495007901742
162,825.6254565832724
163,825.6013029510636
164,825.576385814484
165,825.5500385621706
166,825.5215997744891
167,825.4904316313563
168,825.4559388001128
169,825.4175872234271
170,825.3749219073259
171,825.3275827111524
172,825.2753172535434
173,825.2179902521468
174,825.1555888218919
175,825.0882234579368
176,825.0161246525284
177,824.9396353503953
178,824.8591996892318
179,824.7753486181992
180,824.6886830109313
181,824.5998548681318
182,824.5095472464998
183,824.4184536672423
184,824.3272578398104
185,824.2366144969398
186,824.1471320312786
187,824.0593575476289
188,823.9737648839158
189,823.8907460441563
190,823.8106063358233
191,823.7335633564985
192,823.6597498293554
193,823.5892201195485
194,823.5219600730405
195,823.4578996161956
196,823.3969273498863
197,823.3389061982521
198,823.2836890896302
199,823.2311337135122
200,823.1811156120652
201,823.1335391392766
202,823.088346023847
203,823.0455213048912
204,823.0050962717863
205,822.9671478771868
206,822.93179413114
207,822.8991853210593
208,822.869491403002
209,822.8428863812522
210,822.8195308626025
211,822.7995542218039
212,822.7830378791324
213,822.7700010295264
214,822.7603898478158
215,822.7540708347248
216,822.7508286134688
217,822.7503681581464
218,822.752321167488
219,822.756256102134
220,822.76169125399
221,822.7681101021641
222,822.7749781502943
223,822.7817604348272
224,822.7879389252803
225,822.7930291131937
226,822.7965952258668
227,822.7982636851119
228,822.7977345923123
229,822.794791082066
230,822.7893063331625
231,822.7812479519138
232,822.7706794871735
233,822.7577590384197
234,822.7427351596142
235,822.7259403734112
236,822.7077825436943
237,822.688734223628
238,822.6693200487213
239,822.650102321117
240,822.6316650695738
241,822.614596990565
242,822.599473744538
243,822.5868401181712
244,822.5771926158571
245,822.5709631233533
246,822.5685043433978
247,822.570077689095
248,822.5758442545061
249,822.5858594105954
250,822.6000715052146
251,822.6183250363364
252,822.6403684494163
253,822.6658663353647
254,822.6944153317809
255,822.7255626161414
256,822.7588256714197
257,822.7937120419209
258,822.8297380156624
259,822.8664454629036
260,822.9034163469591
261,822.9402846663631
262,822.9767457691072
263,823.0125630760574
264,823.0475722440765
265,823.0816827279715
266,823.1148766591248
267,823.1472050184645
268,823.1787812359825
269,823.2097725361872
270,823.2403894783534
271,823.2708741396322
272,823.3014872987047
273,823.3324949582071
274,823.3641547033099
275,823.3967026458525
276,823.4303418473111
277,823.4652330028417
278,823.501487812011
279,823.539165032594
280,823.5782689387521
281,823.6187498874743
282,823.660506840719
283,823.7033917996919
284,823.747216061522
285,823.7917580437525
286,823.8367722563623
287,823.8819989014661
288,823.9271735354525
289,823.9720362183988
290,824.0163396142851
291,824.0598556191144
292,824.1023802912118
293,824.143737081511
294,824.1837784951424
295,824.2223863085009
296,824.2594704021707
297,824.2949662526445
298,824.3288311600966
299,824.3610393244774
300,824.3915759073213
301,824.4204302798506
302,824.4475888075144
303,824.4730277472474
304,824.4967070588136
305,824.5185660457192
306,824.5385216642143
307,824.5564700737679
308,824.5722916178362
309,824.5858589841781
310,824.5970478532577
311,824.6057489943407
312,824.6118806029515
313,824.6153996837173
314,824.6163113917206
315,824.6146754143463
316,824.6106087292758
317,824.604284453383
318,824.5959270032181
319,824.5858043139057
320,824.5742181961944
321,824.5614938928132
322,824.547969590576
323,824.5339862976657
324,824.5198783201636
325,824.5059646054954
326,824.4925413356833
327,824.4798761764428
328,824.4682044419881
329,824.457727192132
330,824.4486110634859
331,824.4409895039452
332,824.4349650061929
333,824.4306119125843
334,824.4279794287239
335,824.4270946392959
336,824.4279654825584
337,824.4305837258445
338,824.4349279906411
339,824.4409668253197
340,824.4486617168604
341,824.457969795784
342,824.4688458923767
343,824.481243616061
344,824.4951152871281
345,824.5104108232198
346,824.5270759489232
347,824.5450501983754
348,824.5642650701162
349,824.5846424797667
350,824.6060935061578
351,824.628517426768
352,824.6518011309937
353,824.6758190653785
354,824.7004338556508
355,824.7254976863708
356,824.7508544018477
357,824.7763421224258
358,824.8017960096167
359,824.8270507407688
360,824.8519422960569
361,824.8763088050846
362,824.8999904158802
363,824.9228283786506
364,824.9446637295925
365,824.9653360898664
366,824.9846831133078
367,825.0025409802548
368,825.0187461081898
369,825.0331380628517
370,825.0455635559697
371,825.0558813710123
372,825.0639680210124
373,825.0697238705343
374,825.0730793349938
375,825.074000675733
376,825.0724949283667
377,825.0686136277278
378,825.0624551431265
379,825.0541655554307
380,825.0439380688723
381,825.0320109348712
382,825.0186638004374
383,825.0042123856061
384,824.9890015264693
385,824.9733968401977
386,824.9577754268678
387,824.9425160338453
388,824.9279890466565
389,824.9145466749565
390,824.902513792806
391,824.8921799553008
392,824.883793063731
393,824.8775550102467
394,824.8736194621714
395,824.8720917938941
396,824.8730310578538
397,824.8764537766677
398,824.882339206218
399,824.8906356001205
400,824.9012669594017
401,824.9141397733116
402,824.929149309484
403,824.9461851029766
404,824.9651354419411
405,824.9858907934617
406,825.008346171802
407,825.0324024445092
408,825.057966606251
409,825.0849511503282
410,825.1132727316821
411,825.1428502577702
412,825.1736024005704
413,825.2054444150428
414,825.2382841979479
415,825.2720177594509
416,825.3065246019132
417,825.3416637260443
418,825.3772709942172
419,825.4131583625518
420,825.4491151166354
421,825.4849108431665
422,825.5202995841879
423,825.5550245116978
424,825.5888225048869
425,825.6214281832465
426,825.6525772146963
427,825.6820089774197
428,825.7094687736344
429,825.7347097373315
430,825.7574944506216
431,825.7775962217778
432,825.7948000362653
433,825.8089033421493
434,825.8197170170777
435,825.827067002663
436,825.8307970842686
437,825.83077311062
438,825.8268886650438
439,825.819071908766
440,825.8072930570767
441,825.7915717567938
442,825.7719835603319
443,825.7486647663777
444,825.7218151056879
445,825.6916980372132
446,825.6586386894642
447,825.6230196463355
448,825.5852748245987
449,825.5458816886534
450,825.5053520518956
451,825.464221694877
452,825.4230389339876
453,825.3823521536561
454,825.3426963292253
455,825.3045788046367
456,825.2684649617102
457,825.2347647563384
458,825.2038212539228
459,825.175902182049
460,825.1511951635243
461,825.1298068576971
462,825.1117658556254
463,825.0970288485512
464,825.0854893102135
465,825.076987777514
466,825.0713228445644
467,825.0682621502684
468,825.0675528217317
469,825.0689309615212
470,825.0721298381388
471,825.0768864882643
472,825.0829465032164
473,825.0900669118723
474,825.0980173412985
475,825.1065799701482
476,825.115548996002
477,825.1247302739331
478,825.1339414942535
479,825.1430129103758
480,825.1517883537142
481,825.1601261812175
482,825.1678999008999
483,825.1749984108606
484,825.1813259288898
485,825.1868017052575
486,825.1913595403754
487,825.1949470925156
488,825.1975250168176
489,825.1990660364188
490,825.1995539979132
491,825.1989828277124
492,825.1973552001259
493,825.1946807288099
494,825.1909735968264
495,825.1862497021596
496,825.1805235455212
497,825.1738051567893
498,825.1660973517817
499,825.1573936086004
500,825.147676873434
501,825.136919579996
502,825.125085066428
503,825.1121304767045
504,825.0980111951989
505,825.0826868074272
506,825.0661284084603
507,825.0483268276623
508,825.0293011456254
509,825.0091068458635
510,824.9878430438735
511,824.9656583612324
512,824.9427550824835
513,824.9193912641464
514,824.895880521775
515,824.8725893175066
516,824.8499316718837
517,824.8283613143905
518,824.8083613743725
519,824.7904317834827
520,824.7750746084423
521,824.7627776209144
522,824.7539966050253
523,824.7491371684501
524,824.7485370573751
525,824.7524501042562
526,824.7610329302108
527,824.7743353699542
528,824.7922952981111
529,824.8147381587288
530,824.8413810958892
531,824.8718411961135
532,824.9056470326842
533,824.9422525273418
534,824.981052164266
535,825.0213967678837
536,825.0626092944557
537,825.1040002786924
538,825.1448826518023
539,825.1845856380938
540,825.2224674472409
541,825.2579265676128
542,825.2904115910064
543,825.3194295838751
544,825.3445530411104
545,825.3654254449839
546,825.3817654126482
547,825.3933693192691
548,825.4001121351195
549,825.4019461063426
550,825.3988969581193
551,825.3910575299202
552,825.3785790662581
553,825.3616606664417
554,825.3405376014176
555,825.3154693302412
556,825.2867280697345
557,825.2545886739737
558,825.219320395488
559,825.1811808765087
560,825.1404124876783
561,825.0972409200338
562,825.0518757950192
563,825.0045130292043
564,824.955338744611
565,824.9045345707137
566,824.8522841934309
567,824.798780978981
568,824.7442364563901
569,824.6888893741112
570,824.6330149292043
571,824.5769336321168
572,824.5210192239465
573,824.4657051602439
574,824.4114893156338
575,824.3589366242462
576,824.308679372554
577,824.2614148977784
578,824.21790051157
579,824.1789454540299
580,824.1453995311301
581,824.1181379211843
582,824.0980416718589
583,824.0859737504196
584,824.082751058327
585,824.0891134000748
586,824.1056908765099
587,824.132971489489
588,824.1712708679004
589,824.2207059394605
590,824.2811740844533
591,824.3523388890366
592,824.4336232001226
593,824.5242098624927
594,824.6230502625675
595,824.7288805186295
596,824.8402448161578
597,824.9555250625655
598,825.0729757863327
599,825.1907630008827
600,825.3070055891984
601,825.4198177432373
602,825.5273511736112
603,825.6278360787203
604,825.7196200697289
605,825.8012043528645
606,825.8712765268915
607,825.9287393908261
608,825.9727351847718
609,826.0026647301977
610,826.0182009958057
611,826.0192966567367
612,826.0061852393271
613,825.9793755281087
614,825.939639146601
615,825.8879915934117
616,825.8256673616185
617,825.7540899365154
618,825.6748374704448
619,825.5896049140403
620,825.5001634369951
621,825.4083180978502
622,825.3158648821002
623,825.2245483832332
624,825.1360215058086
625,825.0518085655747
626,824.9732730183362
627,824.9015907894444
628,824.837729845686
629,824.7824362963202
630,824.7362269920776
631,824.6993883796329
632,824.671981275908
633,824.6538511779373
634,824.6446436294748
635,824.6438239915692
636,824.6507007398334
637,824.6644512022708
638,824.6841485396968
639,824.7087888192875
640,824.7373172405598
641,824.7686528599377
642,824.80171142035
643,824.8354261000902
644,824.8687661926346
645,824.9007538907564
646,824.9304793571017
647,824.9571140808246
648,824.97992227883
649,824.9982699639171
650,825.0116313099464
651,825.0195920457967
652,825.0218497753943
653,825.018211351735
654,825.0085877023665
655,824.9929867420366
656,824.9715051354349
657,824.9443196414735
658,824.9116785957051
659,824.8738938469033
660,824.8313332502223
661,824.7844136875012
662,824.733594531659
663,824.6793714449177
664,824.622270352686
665,824.5628413973379
666,824.5016527296824
667,824.4392841374461
668,824.3763206360992
669,824.3133462033969
670,824.250937870808
671,824.1896604254756
672,824.1300620008087
673,824.0726708174361
674,824.0179932585072
675,823.9665132867392
676,823.9186929210268
677,823.8749731472737
678,823.8357743783156
679,823.8014955510793
680,823.772511203527
681,823.7491663112461
682,823.7317691192447
683,823.7205825448337
684,823.7158148858044
685,823.7176105470072
686,823.726041355035
687,823.741098849479
688,823.7626878056885
689,823.7906212070775
690,823.8246169246614
691,823.8642964103755
692,823.9091857087175
693,823.9587190192815
694,824.0122449238704
695,824.0690352666943
696,824.128296570513
697,824.1891837728189
698,824.2508159354007
699,824.3122934075501
700,824.3727157504889
701,824.4311996169982
702,824.4868957615923
703,824.5390044393778
704,824.5867886327461
705,824.6295848224859
706,824.6668113571752
707,824.697974772332
708,824.7226745605659
709,824.7406068561564
710,824.7515673052962
711,824.7554531258045
712,824.7522641420004
713,824.7421025300571
714,824.7251711221572
715,824.7017702439796
716,824.6722930471868
717,824.6372191613766
718,824.5971063993495
719,824.55258033085
720,824.5043217431939
721,824.4530522143493
722,824.3995181955914
723,824.3444741520884
724,824.2886654183501
725,824.2328114569365
726,824.1775901866639
727,824.1236239982138
728,824.0714679553315
729,824.0216004526626
730,823.974416359122
731,823.9302225765612
732,823.8892360275433
733,823.8515842098021
734,823.8173084254212
735,823.7863695510327
736,823.7586558859839
737,823.7339923883878
738,823.7121505844342
739,823.6928585817724
740,823.6758108407981
741,823.6606775831261
742,823.6471138989064
743,823.6347687125389
744,823.6232937507582
745,823.6123525545786
746,823.6016294576349
747,823.5908383706209
748,823.5797311823476
749,823.5681056024771
750,823.5558122936948
751,823.5427611537986
752,823.5289266290158
753,823.5143519554557
754,823.4991521761923
755,823.4835156633549
756,823.4677037737576
757,823.4520482439029
758,823.4369459617285
759,823.4228508203975
760,823.4102625067661
761,823.3997123320115
762,823.391746516537
763,823.3869075820455
764,823.3857146013676
765,823.3886430275054
766,823.3961047538304
767,823.4084290317065
768,823.4258449158514
769,823.4484659654038
770,823.4762779021227
771,823.5091297658665
772,823.5467288490354
773,823.5886394494377
774,823.634285409937
775,823.6829565812634
776,823.7338195923104
777,823.7859333569048
778,823.8382694788529
779,823.8897373036743
780,823.9392130139121
781,823.9855719186525
782,824.027722900211
783,824.0646438556331
784,824.0954169285334
785,824.1192623120991
786,824.1355693286401
787,824.143923366615
788,824.1441272169146
789,824.136215524334
790,824.1204614540426
791,824.0973751351995
792,824.0676938467175
793,824.0323642295418
794,823.9925171119424
795,823.9494358477923
796,823.9045193502815
797,823.8592412145689
798,823.8151064536927
799,823.7736074210807
800,823.7361804568275
801,823.704164682491
802,823.6787642222708
803,823.6610150008211
804,823.6517571514111
805,823.6516138805325
806,823.6609773323491
807,823.6800016559928
808,823.7086032068268
809,823.7464676046282
810,823.7930631495036
811,823.8476598553398
812,823.909353178827
813,823.9770914545823
814,824.049706086492
815,824.1259436436021
816,824.2044990780759
817,824.2840492367452
818,824.3632856822666
819,824.4409456846126
820,824.5158402090998
821,824.5868778674209
822,824.6530840825884
823,824.7136150510232
824,824.7677663799935
825,824.8149765407312
826,824.8548255710721
827,824.8870297962086
828,824.9114336054038
829,824.9279993838697
830,824.9367965316347
831,824.9379902440625
832,824.9318305319633
833,824.9186418410044
834,824.8988135220136
835,824.8727912819437
836,824.8410696301529
837,824.8041852144777
838,824.7627107998157
839,824.7172495095571
840,824.6684288797036
841,824.6168943325094
842,824.5633019140985
843,824.5083104810566
844,824.4525737540556
845,824.3967326615355
846,824.3414082794138
847,824.2871955995198
848,824.2346583388132
849,824.1843249243107
850,824.1366856124135
851,824.0921904930884
852,824.0512479691951
853,824.0142232381577
854,823.9814363741269
855,823.9531598110359
856,823.9296152778219
857,823.9109704322822
858,823.8973355606432
859,823.8887608169424
860,823.8852345808579
861,823.8866835087064
862,823.892974631714
863,823.9039194662869
864,823.9192797308464
865,823.9387740662187
866,823.9620851424943
867,823.9888666194194
868,824.0187495116818
869,824.0513475494571
870,824.0862611702029
871,824.123079932443
872,824.1613834463633
873,824.200741291708
874,824.2407126720559
875,824.2808465772713
876,824.3206829907075
877,824.3597553700473
878,824.3975944631297
879,824.4337335458268
880,824.4677152351525
881,824.4990999239755
882,824.527475570457
883,824.5524682517349
884,824.5737527407216
885,824.5910623666357
886,824.6041974675768
887,824.6130318249941
888,824.6175166398232
889,824.6176818620847
890,824.6136349288822
891,824.6055571195772
892,824.5936978030504
893,824.5783668661862
894,824.559925590024
895,824.5387762118721
896,824.5153504438466
897,824.49009734519
898,824.4634711305841
899,824.4359196559454
900,824.4078743623006
901,824.37974231698
902,824.3519006830189
903,824.3246935598254
904,824.2984308069357
905,824.2733883211332
906,824.2498093314224
907,824.2279065109617
908,824.2078649042018
909,824.1898457270396
910,824.1739910564332
911,824.1604293631893
912,824.149281765314
913,824.1406687528606
914,824.1347169654425
915,824.1315654578178
916,824.1313708287479
917,824.1343106064021
