frame_number,force
0,826.809509034253
1,826.7225519070146
2,826.6357157780825
3,826.5491212354228
4,826.462888050761
5,826.3771347822681
6,826.2919783894944
7,826.2075338636538
8,826.1239138758478
9,826.04122844539
10,825.9595846299954
11,825.8790862391785
12,825.7998335717275
13,825.721923177698
14,825.6454476450001
15,825.5704954103451
16,825.4971505940292
17,825.4254928577578
18,825.3555972845371
19,825.2875342796228
20,825.2213694916231
21,825.157163753014
22,825.0949730394449
23,825.0348484472406
24,824.9768361884317
25,824.9209776025241
26,824.8673091841335
27,824.8158626256112
28,824.7666648738585
29,824.7197382005695
30,824.6751002851192
31,824.6327643092736
32,824.592739062859
33,824.5550290595227
34,824.5196346617488
35,824.4865522143274
36,824.4557741854694
37,824.4272893146765
38,824.4010827663508
39,824.3771362880559
40,824.3554283723507
41,824.3359344211755
42,824.3186269118418
43,824.3034755637773
44,824.2904475052934
45,824.2795074397553
46,824.2706178106113
47,824.2637389648291
48,824.2588293144142
49,824.2558454958107
50,824.2547425270561
51,824.2554739625735
52,824.2579920454751
53,824.2622478572395
54,824.2681914646458
55,824.2757720639224
56,824.2849381221714
57,824.2956375162144
58,824.307817668995
59,824.3214256835762
60,824.3364084746313
61,824.352712897226
62,824.3702858726421
63,824.3890745109519
64,824.409026229947
65,824.4300888698413
66,824.4522108029714
67,824.4753410375814
68,824.499429314729
69,824.5244261973995
70,824.5502831509932
71,824.5769526144196
72,824.6043880610786
73,824.6325440490677
74,824.6613762600853
75,824.6908415266914
76,824.7208978477909
77,824.7515043923253
78,824.782621491206
79,824.8142106175231
80,824.8462343551445
81,824.8786563559584
82,824.9114412861851
83,824.9445547623176
84,824.9779632773617
85,825.0116341181488
86,825.0455352745909
87,825.0796353418519
88,825.11390341652
89,825.1483089879747
90,825.182821826227
91,825.2174118675554
92,825.2520490992695
93,825.2867034449342
94,825.3213446513668
95,825.355942178688
96,825.3904650946607
97,825.4248819744888
98,825.4591608071804
99,825.4932689094979
100,825.5271728484315
101,825.5608383730504
102,825.5942303564937
103,825.6273127487543
104,825.6600485407794
105,825.6923997402537
106,825.7243273592735
107,825.7557914139944
108,825.7867509362609
109,825.8171639971557
110,825.8469877423223
111,825.8761784388194
112,825.9046915331952
113,825.9324817204614
114,825.9595030236799
115,825.9857088838932
116,826.0110522600532
117,826.0354857384392
118,826.0589616508631
119,826.0814322008006
120,826.1028495964852
121,826.1231661899695
122,826.1423346211503
123,826.160307965758
124,826.1770398863127
125,826.1924847850656
126,826.2065979579946
127,826.2193357490123
128,826.2306557036082
129,826.2405167211696
130,826.2488792051689
131,826.2557052103156
132,826.2609585856989
133,826.264605112956
134,826.2666126385601
135,826.2669511994012
136,826.2655931408988
137,826.262513226973
138,826.257688741317
139,826.251099579531
140,826.2427283318091
141,826.232560356011
142,826.2205838411139
143,826.206789861142
144,826.1911724197257
145,826.1737284854852
146,826.1544580185423
147,826.1333639886116
148,826.1104523852407
149,826.0857322208121
150,826.0592155268707
151,826.0309173442512
152,826.0008557073543
153,825.9690516228078
154,825.9355290426658
155,825.9003148322788
156,825.8634387329744
157,825.8249333196813
158,825.7848339535907
159,825.743178729926
160,825.7000084208973
161,825.6553664138962
162,825.6092986449063
163,825.5618535270169
164,825.5130818738959
165,825.4630368181615
166,825.4117737247129
167,825.3593500991165
168,825.3058254910544
169,825.2512613926672
170,825.1957211314804
171,825.1392697575815
172,825.0819739247964
173,825.0239017657505
174,824.9651227608373
175,824.9057076012552
176,824.8457280464197
177,824.7852567762269
178,824.7243672388018
179,824.6631334944706
180,824.6016300567434
181,824.5399317311097
182,824.4781134524939
183,824.4162501223008
184,824.3544164460385
185,824.2926867724951
186,824.2311349354006
187,824.1698340984664
188,824.1088566046565
189,824.0482738304821
190,823.9881560460165
191,823.9285722812323
192,823.8695901991649
193,823.8112759762907
194,823.7536941903782
195,823.6969077159325
196,823.6409776272097
197,823.5859631086437
198,823.5319213724518
199,823.4789075831644
200,823.4269747888902
201,823.376173859223
202,823.3265534297474
203,823.2781598530752
204,823.2310371562229
205,823.1852270040165
206,823.1407686681816
207,823.0976990019053
208,823.0560524198648
209,823.0158608839183
210,822.9771538947978
211,822.9399584902342
212,822.9042992499427
213,822.8701983077815
214,822.8376753712068
215,822.8067477479406
216,822.7774303795624
217,822.7497358815543
218,822.7236745891748
219,822.6992546084298
220,822.6764818713306
221,822.6553601945697
222,822.6358913407181
223,822.6180750810596
224,822.6019092592073
225,822.5873898547094
226,822.5745110459449
227,822.5632652717376
228,822.5536432912304
229,822.5456342416334
230,822.5392256934722
231,822.5344037029715
232,822.5311528612756
233,822.5294563403569
234,822.5292959356337
235,822.5306521054213
236,822.5335040073493
237,822.5378295318602
238,822.5436053329132
239,822.5508068560986
240,822.5594083644665
241,822.5693829624678
242,822.5807026184596
243,822.593338186268
244,822.6072594263399
245,822.622435027063
246,822.6388326268714
247,822.6564188377383
248,822.6751592706261
249,822.6950185634118
250,822.7159604117646
251,822.7379476033732
252,822.7609420557989
253,822.7849048580155
254,822.8097963154397
255,822.8355759980195
256,822.8622027908218
257,822.8896349465588
258,822.9178301395795
259,822.9467455209809
260,822.9763377746203
261,823.0065631739127
262,823.0373776393731
263,823.0687367968992
264,823.1005960367705
265,823.1329105732913
266,823.1656355049695
267,823.1987258751503
268,823.232136733083
269,823.2658231954882
270,823.2997405087486
271,823.3338441118357
272,823.3680897000261
273,823.4024332894454
274,823.4368312825422
275,823.4712405347125
276,823.5056184223546
277,823.5399229125661
278,823.5741126344988
279,823.6081469521563
280,823.6419860382671
281,823.6755909488395
282,823.7089236980682
283,823.7419473333028
284,823.7746260097526
285,823.806925064509
286,823.8388110893725
287,823.8702520019166
288,823.9012171141901
289,823.9316771984523
290,823.9616045493564
291,823.9909730420526
292,824.0197581857934
293,824.0479371727364
294,824.0754889217261
295,824.1023941168406
296,824.1286352404726
297,824.1541966007253
298,824.1790643529428
299,824.2032265152297
300,824.2266729778587
301,824.2493955065188
302,824.2713877394649
303,824.2926451787688
304,824.3131651760212
305,824.3329469129252
306,824.3519913772118
307,824.370301334212
308,824.3878812942569
309,824.4047374758936
310,824.4208777647127
311,824.4363116674449
312,824.4510502609337
313,824.4651061356313
314,824.4784933333515
315,824.4912272791327
316,824.5033247072233
317,824.5148035814209
318,824.5256830102786
319,824.5359831579842
320,824.5457251519018
321,824.5549309877787
322,824.5636234334742
323,824.5718259319043
324,824.5795625038095
325,824.5868576509738
326,824.5937362605777
327,824.6002235113698
328,824.6063447822627
329,824.6121255638125
330,824.6175913729196
331,824.6227676709955
332,824.6276797857778
333,824.6323528369344
334,824.6368116655999
335,824.6410807680307
336,824.6451842336103
337,824.6491456874455
338,824.6529882377549
339,824.6567344281854
340,824.6604061950974
341,824.6640248297496
342,824.6676109452219
343,824.6711844478849
344,824.6747645132602
345,824.6783695662177
346,824.6820172655508
347,824.6857244929885
348,824.6895073466108
349,824.6933811384969
350,824.6973603963264
351,824.7014588686318
352,824.7056895334193
353,824.7100646098902
354,824.7145955729717
355,824.7192931703231
356,824.7241674414095
357,824.7292277381453
358,824.7344827465257
359,824.7399405086265
360,824.7456084443827
361,824.7514933726352
362,824.7576015310598
363,824.7639385947209
364,824.7705096931161
365,824.7773194256622
366,824.7843718756128
367,824.7916706223572
368,824.799218751967
369,824.8070188658022
370,824.815073086972
371,824.8233830644674
372,824.8319499748013
373,824.8407745209994
374,824.8498569287688
375,824.8591969396692
376,824.8687938011618
377,824.8786462535163
378,824.8887525136817
379,824.8991102563201
380,824.9097165922766
381,824.9205680447815
382,824.9316605236855
383,824.9429892980509
384,824.9545489675154
385,824.9663334329781
386,824.97833586725
387,824.9905486863329
388,825.0029635219626
389,825.0155711960591
390,825.0283616977662
391,825.041324163783
392,825.0544468626586
393,825.0677171836206
394,825.0811216304073
395,825.0946458204601
396,825.1082744897462
397,825.1219915033901
398,825.135779872185
399,825.1496217749539
400,825.1634985866581
401,825.177390912124
402,825.1912786252278
403,825.2051409133833
404,825.218956327197
405,825.232702835184
406,825.2463578834133
407,825.2598984599038
408,825.273301163556
409,825.2865422774145
410,825.2995978460388
411,825.3124437566892
412,825.3250558239225
413,825.337409877098
414,825.3494818502828
415,825.3612478741367
416,825.3726843694891
417,825.3837681424134
418,825.3944764805807
419,825.4047872505561
420,825.4146789954913
421,825.4241310324597
422,825.4331235485291
423,825.4416376946143
424,825.4496556761848
425,825.4571608399933
426,825.4641377561511
427,825.4705722950221
428,825.4764516984986
429,825.4817646452226
430,825.4865013092865
431,825.4906534119607
432,825.4942142660647
433,825.4971788127235
434,825.4995436503974
435,825.5013070561957
436,825.5024689995412
437,825.5030311482154
438,825.5029968667328
439,825.5023712069054
440,825.5011608903926
441,825.4993742829929
442,825.4970213604581
443,825.4941136657112
444,825.4906642575081
445,825.4866876507874
446,825.4821997491397
447,825.4772177699587
448,825.4717601629042
449,825.4658465223465
450,825.4594974944952
451,825.4527346799323
452,825.4455805322469
453,825.4380582534161
454,825.4301916865984
455,825.4220052071238
456,825.4135236126523
457,825.4047720136327
458,825.395775725257
459,825.3865601620236
460,825.3771507358206
461,825.3675727581813
462,825.357851347141
463,825.3480113389171
464,825.3380772044469
465,825.3280729707004
466,825.3180221466496
467,825.3079476538139
468,825.297871761346
469,825.2878160256383
470,825.2778012344215
471,825.2678473553029
472,825.2579734886834
473,825.2481978250211
474,825.2385376065068
475,825.2290090933507
476,825.2196275349445
477,825.210407146112
478,825.201361088478
479,825.1925014567856
480,825.183839269831
481,825.1753844656265
482,825.1671459004364
483,825.1591313514168
484,825.1513475226595
485,825.1438000544401
486,825.1364935354392
487,825.1294315176865
488,825.1226165340132
489,825.1160501178362
490,825.1097328250821
491,825.1036642580041
492,825.0978430906031
493,825.0922670953838
494,825.0869331712431
495,825.081837372389
496,825.0769749382822
497,825.0723403246483
498,825.0679272356248
499,825.0637286571248
500,825.0597368915319
501,825.0559435938444
502,825.0523398093559
503,825.0489160129273
504,825.0456621499033
505,825.0425676787117
506,825.0396216151132
507,825.0368125779498
508,825.0341288361554
509,825.0315583567805
510,825.0290888538389
511,825.0267078378507
512,825.0244026659879
513,825.0221605927417
514,825.0199688210529
515,825.0178145538807
516,825.0156850462243
517,825.0135676576334
518,825.0114499052681
519,825.0093195175765
520,825.0071644886463
521,825.0049731333027
522,825.002734143081
523,825.0004366432944
524,824.9980702514939
525,824.9956251376394
526,824.9930920862461
527,824.9904625606479
528,824.9877287693276
529,824.9848837340226
530,824.9819213590705
531,824.9788365012251
532,824.9756250389656
533,824.9722839402117
534,824.9688113273343
535,824.9652065384245
536,824.9614701838906
537,824.9576041975441
538,824.9536118813759
539,824.9494979432324
540,824.9452685266226
541,824.9409312319635
542,824.9364951286663
543,824.9319707575572
544,824.9273701231874
545,824.922706675641
546,824.9179952814975
547,824.9132521836259
548,824.9084949494973
549,824.9037424077255
550,824.8990145726618
551,824.8943325570746
552,824.8897184732002
553,824.8851953226828
554,824.8807868761209
555,824.8765175430999
556,824.8724122336836
557,824.868496212386
558,824.8647949456371
559,824.8613339437226
560,824.8581385981439
561,824.8552340153059
562,824.8526448474385
563,824.8503951217043
564,824.8485080685253
565,824.8470059502321
566,824.845909891186
567,824.8452397105372
568,824.845013758778
569,824.8452487592318
570,824.8459596555529
571,824.8471594662412
572,824.8488591471283
573,824.8510674628114
574,824.8537908680447
575,824.8570334000741
576,824.8607965828394
577,824.8650793439147
578,824.8698779450077
579,824.8751859267327
580,824.8809940681946
581,824.8872903617206
582,824.8940600029687
583,824.9012853966854
584,824.9089461785233
585,824.9170192534755
586,824.9254788515767
587,824.9342966015288
588,824.9434416228129
589,824.9528806366548
590,824.9625780959036
591,824.9724963335261
592,824.9825957290601
593,824.9928348920718
594,825.0031708614023
595,825.0135593187317
596,825.0239548147077
597,825.0343110056373
598,825.044580898542
599,825.0547171022198
600,825.0646720818389
601,825.0743984145635
602,825.0838490438093
603,825.0929775298907
604,825.1017382949706
605,825.1100868603438
606,825.1179800741975
607,825.1253763281088
608,825.1322357606724
609,825.138520446802
610,825.1441945714199
611,825.1492245864231
612,825.1535793499828
613,825.1572302474411
614,825.16015129335
615,825.1623192145493
616,825.1637135145157
617,825.164316519457
618,825.1641134067679
619,825.1630922165979
620,825.1612438474276
621,825.1585620367297
622,825.1550433279644
623,825.1506870253237
624,825.1454951377486
625,825.1394723137962
626,825.1326257688875
627,825.1249652063526
628,825.1165027335213
629,825.1072527739105
630,825.0972319763716
631,825.0864591219109
632,825.0749550288
633,825.0627424565065
634,825.0498460088613
635,825.0362920367187
636,825.0221085401761
637,825.007325070239
638,824.9919726296836
639,824.9760835728227
640,824.9596915039141
641,824.9428311740335
642,824.9255383763082
643,824.9078498394608
644,824.889803119675
645,824.8714364908378
646,824.8527888332002
647,824.8338995203876
648,824.8148083045674
649,824.7955551995159
650,824.7761803613458
651,824.7567239667293
652,824.7372260885669
653,824.7177265692077
654,824.6982648915027
655,824.6788800481484
656,824.6596104098913
657,824.6404935932096
658,824.6215663280483
659,824.6028643261309
660,824.5844221503157
661,824.5662730854564
662,824.5484490112532
663,824.5309802776188
664,824.5138955831027
665,824.4972218569427
666,824.4809841453737
667,824.4652055029189
668,824.4499068894794
669,824.4351070740729
670,824.4208225460952
671,824.4070674349919
672,824.3938534392265
673,824.3811897654006
674,824.369083078306
675,824.3575374625667
676,824.3465543963213
677,824.3361327371709
678,824.326268720419
679,824.3169559695385
680,824.3081855188548
681,824.2999458485602
682,824.2922229323224
683,824.2850002978154
684,824.2782591004875
685,824.271978210762
686,824.2661343146887
687,824.2607020278673
688,824.2556540222884
689,824.2509611656143
690,824.2465926723416
691,824.2425162662125
692,824.2386983531492
693,824.2351042038619
694,824.2316981451412
695,824.2284437587115
696,824.2253040864051
697,824.2222418403173
698,824.2192196164928
699,824.2162001105761
700,824.2131463337549
701,824.2100218272587
702,824.2067908736759
703,824.203418703408
704,824.1998716947045
705,824.196117565902
706,824.1921255587183
707,824.1878666116614
708,824.1833135227652
709,824.1784411009261
710,824.1732263051066
711,824.1676483706314
712,824.1616889217944
713,824.1553320700756
714,824.1485644974313
715,824.1413755242977
716,824.1337571620528
717,824.125704149721
718,824.1172139747707
719,824.1082868780014
720,824.0989258427177
721,824.0891365685948
722,824.0789274308148
723,824.0683094252155
724,824.057296100323
725,824.0459034772263
726,824.0341499583
727,824.0220562258128
728,824.0096451314404
729,823.9969415776214
730,823.9839723916025
731,823.9707661929859
732,823.9573532556507
733,823.9437653649828
734,823.9300356713377
735,823.9161985405242
736,823.9022894019246
737,823.8883445947298
738,823.8744012127379
739,823.8604969482122
740,823.8466699353828
741,823.8329585942581
742,823.819401475477
743,823.80603710695
744,823.7929038429983
745,823.7800397166113
746,823.7674822953563
747,823.7552685413935
748,823.7434346760073
749,823.7320160490357
750,823.7210470135657
751,823.7105608062291
752,823.7005894334186
753,823.6911635637197
754,823.6823124267936
755,823.6740637188594
756,823.6664435148351
757,823.6594761871538
758,823.6531843312525
759,823.6475886977278
760,823.6427081311883
761,823.6385595159281
762,823.6351577286508
763,823.6325155985617
764,823.6306438751428
765,823.6295512038718
766,823.6292441100597
767,823.6297269909279
768,823.6310021160155
769,823.6330696359988
770,823.6359275999403
771,823.639571980866
772,823.6439967094026
773,823.649193715041
774,823.6551529745356
775,823.661862567005
776,823.6693087354073
777,823.6774759540781
778,823.6863470018768
779,823.6959030402845
780,823.7061236956287
781,823.7169871445082
782,823.7284702014242
783,823.7405484075953
784,823.7531961199579
785,823.7663865993985
786,823.7800920972771
787,823.7942839393032
788,823.8089326058675
789,823.8240078080875
790,823.8394785590846
791,823.8553132403108
792,823.8714796630098
793,823.8879451251145
794,823.9046764640917
795,823.9216401064475
796,823.9388021147826
797,823.956128233425
798,823.9735839337488
799,823.9911344603157
800,824.0087448789523
801,824.0263801278014
802,824.0440050722813
803,824.0615845647777
804,824.0790835097915
805,824.0964669351005
806,824.1137000692792
807,824.13074842567
808,824.1475778926825
809,824.1641548301072
810,824.1804461709364
811,824.1964195279761
812,824.2120433043591
813,824.2272868069585
814,824.2421203616473
815,824.2565154293345
816,824.270444721689
817,824.2838823153869
818,824.2968037636097
819,824.3091862034133
820,824.3210084575597
821,824.3322511294737
822,824.3428966901449
823,824.3529295559871
824,824.3623361568514
825,824.3711049935749
826,824.3792266846496
827,824.3866940018332
828,824.3935018947401
829,824.3996475045598
830,824.4051301670593
831,824.4099514049891
832,824.414114910006
833,824.4176265142719
834,824.42049415193
835,824.4227278106955
836,824.4243394738418
837,824.4253430528933
838,824.4257543113553
839,824.4255907798301
840,824.4248716629105
841,824.4236177383416
842,824.4218512491293
843,824.4195957894974
844,824.4168761857602
845,824.4137183732188
846,824.4101492701548
847,824.4061966499751
848,824.4018890125587
849,824.3972554558143
850,824.3923255483529
851,824.3871292040571
852,824.3816965592094
853,824.3760578527762
854,824.370243310428
855,824.3642830329252
856,824.3582068895596
857,824.3520444173802
858,824.3458247269111
859,824.3395764150529
860,824.3333274858254
861,824.3271052795296
862,824.320936410705
863,824.3148467149812
864,824.3088612046473
865,824.3030040325815
866,824.2972984640915
867,824.2917668561869
868,824.2864306437704
869,824.2813103321856
870,824.2764254955215
871,824.2717947800901
872,824.2674359126032
873,824.2633657127147
874,824.2596001097057
875,824.2561541630687
876,824.2530420866103
877,824.2502772755244
878,824.247872335796
879,824.2458391153191
880,824.2441887361517
881,824.2429316273029
882,824.2420775573139
883,824.2416356657669
884,824.2416144928216
885,824.2420220059267
886,824.2428656229366
887,824.2441522309555
888,824.2458882003865
889,824.2480793938538
890,824.2507311698569
891,824.2538483811651
892,824.2574353680628
893,824.2614959466325
894,824.2660333923197
895,824.271050419078
896,824.2765491544682
897,824.2825311112132
898,824.2889971558571
899,824.2959474753094
900,824.3033815421198
901,824.3112980792989
902,824.319695025371
903,824.3285695001812
904,824.3379177718303
905,824.3477352250491
906,824.3580163313791
907,824.3687546216479
908,824.3799426613165
909,824.3915720292931
910,824.4036333007688
911,824.416116034569
912,824.4290087654476
913,824.4422990016445
914,824.4559732278975
915,824.4700169139809
916,824.4844145287575
