frame_number,force
0,826.8095090305331
1,826.7225519032606
2,826.6357157742999
3,826.5491212316181
4,826.4628880469417
5,826.3771347784427
6,826.2919783856717
7,826.2075338598428
8,826.1239138720579
9,826.0412284416304
10,825.9595846262766
11,825.8790862355111
12,825.7998335681232
13,825.7219231741695
14,825.64544764156
15,825.5704954070064
16,825.4971505908051
17,825.4254928546618
18,825.3555972815827
19,825.2875342768242
20,825.2213694889942
21,825.157163750568
22,825.0949730371943
23,825.0348484451972
24,824.9768361866059
25,824.9209776009254
26,824.8673091827711
27,824.8158626244937
28,824.7666648729936
29,824.7197381999642
30,824.67510028478
31,824.6327643092058
32,824.5927390630657
33,824.5550290600056
34,824.5196346625079
35,824.4865522153609
36,824.4557741867739
37,824.4272893162466
38,824.4010827681802
39,824.3771362901371
40,824.3554283746753
41,824.335934423734
42,824.3186269146237
43,824.3034755667704
44,824.290447508484
45,824.2795074431282
46,824.27061781415
47,824.2637389685166
48,824.2588293182326
49,824.2558454997417
50,824.2547425310804
51,824.2554739666709
52,824.2579920496246
53,824.2622478614197
54,824.268191468835
55,824.2757720680975
56,824.2849381263089
57,824.2956375202907
58,824.3078176729865
59,824.3214256874597
60,824.3364084783844
61,824.3527129008269
62,824.3702858760691
63,824.3890745141847
64,824.409026232966
65,824.4300888726275
66,824.4522108055068
67,824.4753410398483
68,824.4994293167109
69,824.5244261990804
70,824.5502831523578
71,824.576952615454
72,824.6043880617701
73,824.6325440494047
74,824.6613762600564
75,824.6908415262862
76,824.7208978469996
77,824.7515043911387
78,824.7826214896157
79,824.8142106155216
80,824.8462343527249
81,824.8786563531149
82,824.9114412829131
83,824.9445547586133
84,824.9779632732227
85,825.011634113574
86,825.0455352695802
87,825.0796353364066
88,825.1139034106424
89,825.1483089816692
90,825.1828218194994
91,825.2174118604127
92,825.2520490917202
93,825.2867034369878
94,825.3213446430335
95,825.3559421699797
96,825.3904650855907
97,825.4248819650716
98,825.4591607974322
99,825.4932688994369
100,825.5271728380769
101,825.5608383624227
102,825.5942303456144
103,825.6273127376463
104,825.660048529466
105,825.6923997287582
106,825.724327347619
107,825.755791402204
108,825.7867509243574
109,825.8171639851622
110,825.8469877302617
111,825.8761784267147
112,825.9046915210693
113,825.9324817083374
114,825.9595030115812
115,825.9857088718431
116,826.0110522480753
117,826.0354857265572
118,826.0589616391007
119,826.0814321891805
120,826.102849585029
121,826.1231661786969
122,826.1423346100792
123,826.1603079549042
124,826.1770398756901
125,826.1924847746857
126,826.2065979478671
127,826.2193357391442
128,826.2306556940042
129,826.2405167118319
130,826.2488791960985
131,826.2557052015118
132,826.26095857716
133,826.2646051046797
134,826.2666126305439
135,826.2669511916419
136,826.2655931333916
137,826.2625132197126
138,826.2576887342972
139,826.2510995727451
140,826.2427283252504
141,826.2325603496731
142,826.2205838349913
143,826.2067898552294
144,826.1911724140169
145,826.1737284799735
146,826.154458013221
147,826.1333639834737
148,826.1104523802796
149,826.0857322160208
150,826.0592155222419
151,826.0309173397777
152,826.0008557030291
153,825.9690516186228
154,825.9355290386122
155,825.900314828347
156,825.8634387291539
157,825.8249333159612
158,825.7848339499591
159,825.7431787263711
160,825.7000084174078
161,825.6553664104613
162,825.6092986415165
163,825.5618535236644
164,825.5130818705733
165,825.4630368148619
166,825.4117737214293
167,825.3593500958419
168,825.305825487782
169,825.2512613893905
170,825.1957211281937
171,825.1392697542799
172,825.0819739214762
173,825.0239017624086
174,824.9651227574716
175,824.905707597864
176,824.8457280430017
177,824.7852567727816
178,824.7243672353288
179,824.66313349097
180,824.6016300532164
181,824.5399317275583
182,824.4781134489211
183,824.4162501187111
184,824.3544164424371
185,824.2926867688889
186,824.2311349317981
187,824.1698340948774
188,824.1088566010916
189,824.0482738269529
190,823.9881560425356
191,823.9285722778136
192,823.8695901958239
193,823.8112759730448
194,823.7536941872472
195,823.6969077129386
196,823.6409776243762
197,823.5859631059957
198,823.5319213700158
199,823.4789075809673
200,823.4269747869588
201,823.3761738575835
202,823.3265534284258
203,823.2781598520974
204,823.2310371556136
205,823.1852270037989
206,823.1407686683767
207,823.0976990025316
208,823.0560524209387
209,823.0158608854546
210,822.9771538968096
211,822.9399584927324
212,822.9042992529363
213,822.8701983112777
214,822.837675375211
215,822.8067477524564
216,822.7774303845925
217,822.7497358871001
218,822.7236745952358
219,822.6992546150046
220,822.6764818784167
221,822.655360202163
222,822.6358913488135
223,822.6180750896499
224,822.6019092682827
225,822.5873898642573
226,822.5745110559502
227,822.5632652821838
228,822.5536433020994
229,822.5456342529062
230,822.5392257051296
231,822.5344037149937
232,822.5311528736411
233,822.5294563530427
234,822.5292959486155
235,822.5306521186737
236,822.5335040208464
237,822.5378295455752
238,822.5436053468192
239,822.5508068701689
240,822.5594083786749
241,822.569382976788
242,822.5807026328656
243,822.5933382007344
244,822.6072594408412
245,822.622435041575
246,822.6388326413711
247,822.6564188522044
248,822.675159285039
249,822.6950185777537
250,822.7159604260197
251,822.7379476175278
252,822.7609420698406
253,822.7849048719329
254,822.809796329223
255,822.8355760116596
256,822.8622028043111
257,822.8896349598909
258,822.9178301527495
259,822.9467455339854
260,822.9763377874569
261,823.0065631865798
262,823.0373776518707
263,823.0687368092289
264,823.1005960489354
265,823.1329105852949
266,823.1656355168161
267,823.1987258868445
268,823.2321367446295
269,823.265823206892
270,823.2997405200146
271,823.3338441229677
272,823.3680897110276
273,823.4024333003191
274,823.4368312932901
275,823.471240545336
276,823.505618432854
277,823.539922922941
278,823.5741126447475
279,823.6081469622767
280,823.6419860482561
281,823.6755909586932
282,823.7089237077826
283,823.7419473428737
284,823.7746260191759
285,823.8069250737807
286,823.8388110984889
287,823.8702520108749
288,823.901217122988
289,823.9316772070882
290,823.9616045578297
291,823.9909730503633
292,824.0197581939417
293,824.0479371807236
294,824.0754889295554
295,824.1023941245163
296,824.1286352480005
297,824.1541966081132
298,824.1790643602
299,824.2032265223673
300,824.2266729848899
301,824.2493955134578
302,824.2713877463268
303,824.2926451855697
304,824.3131651827774
305,824.332946919653
306,824.3519913839265
307,824.370301340928
308,824.3878813009873
309,824.4047374826497
310,824.4208777715036
311,824.4363116742771
312,824.4510502678114
313,824.4651061425554
314,824.4784933403196
315,824.4912272861387
316,824.5033247142584
317,824.5148035884732
318,824.5256830173341
319,824.5359831650268
320,824.5457251589141
321,824.5549309947429
322,824.5636234403718
323,824.5718259387161
324,824.5795625105153
325,824.5868576575531
326,824.5937362670095
327,824.6002235176335
328,824.6063447883381
329,824.6121255696805
330,824.6175913785626
331,824.6227676763959
332,824.6276797909183
333,824.6323528417975
334,824.6368116701682
335,824.6410807722863
336,824.6451842375349
337,824.6491456910206
338,824.6529882409625
339,824.6567344310071
340,824.6604061975156
341,824.6640248317477
342,824.6676109467844
343,824.6711844489973
344,824.6747645139103
345,824.678369566395
346,824.682017265246
347,824.6857244921944
348,824.6895073453218
349,824.6933811367091
350,824.6973603940373
351,824.70145886584
352,824.7056895301245
353,824.7100646060934
354,824.7145955686752
355,824.7192931655303
356,824.7241674361239
357,824.7292277323712
358,824.7344827402676
359,824.7399405018897
360,824.7456084371737
361,824.7514933649626
362,824.7576015229337
363,824.7639385861529
364,824.7705096841194
365,824.7773194162514
366,824.7843718658044
367,824.7916706121687
368,824.7992187414178
369,824.8070188549128
370,824.8150730757649
371,824.823383052967
372,824.8319499630335
373,824.8407745089912
374,824.8498569165488
375,824.8591969272675
376,824.8687937886092
377,824.8786462408444
378,824.8887525009224
379,824.8991102435062
380,824.9097165794418
381,824.9205680319593
382,824.931660510909
383,824.9429892853523
384,824.9545489549263
385,824.9663334205293
386,824.978335854972
387,824.9905486742556
388,825.0029635101155
389,825.0155711844712
390,825.0283616864662
391,825.0413241527991
392,825.0544468520185
393,825.067717173351
394,825.0811216205334
395,825.0946458110055
396,825.1082744807336
397,825.1219914948412
398,825.1357798641197
399,825.1496217673902
400,825.1634985796126
401,825.1773909056116
402,825.1912786192618
403,825.2051409079755
404,825.2189563223584
405,825.232702830924
406,825.2463578797405
407,825.2598984568245
408,825.2733011610751
409,825.286542275535
410,825.2995978447617
411,825.3124437560137
412,825.3250558238459
413,825.3374098776153
414,825.3494818513865
415,825.3612478758172
416,825.3726843717355
417,825.3837681452136
418,825.3944764839213
419,825.4047872544223
420,825.414678999867
421,825.424131037327
422,825.4331235538682
423,825.4416377004046
424,825.4496556824048
425,825.457160846621
426,825.4641377631632
427,825.470572302394
428,825.4764517062051
429,825.4817646532375
430,825.486501317583
431,825.4906534205112
432,825.4942142748408
433,825.4971788216967
434,825.499543659539
435,825.5013070654772
436,825.5024690089351
437,825.5030311576947
438,825.5029968762711
439,825.5023712164774
440,825.5011608999741
441,825.4993742925602
442,825.4970213699881
443,825.4941136751819
444,825.4906642668984
445,825.486687660077
446,825.4821997583093
447,825.4772177789899
448,825.4717601717798
449,825.4658465310503
450,825.4594975030119
451,825.4527346882483
452,825.4455805403496
453,825.4380582612949
454,825.4301916942447
455,825.4220052145301
456,825.4135236198126
457,825.4047720205423
458,825.3957757319127
459,825.3865601684241
460,825.3771507419652
461,825.3675727640708
462,825.357851352778
463,825.3480113443055
464,825.3380772095919
465,825.3280729756085
466,825.3180221513281
467,825.3079476582709
468,825.2978717655903
469,825.2878160296807
470,825.2778012382743
471,825.2678473589802
472,825.2579734922009
473,825.2481978283961
474,825.2385376097582
475,825.229009096498
476,825.2196275380086
477,825.2104071491152
478,825.2013610914441
479,825.1925014597392
480,825.1838392727975
481,825.1753844686322
482,825.1671459035074
483,825.1591313545792
484,825.1513475259394
485,825.1438000578639
486,825.136493539033
487,825.1294315214766
488,825.1226165380266
489,825.1160501221002
490,825.1097328296242
491,825.1036642628518
492,825.097843095784
493,825.0922671009255
494,825.0869331771729
495,825.0818373787342
496,825.0769749450698
497,825.0723403319039
498,825.067927243372
499,825.063728665385
500,825.0597369003236
501,825.0559436031829
502,825.052339819253
503,825.0489160233918
504,825.045662160941
505,825.0425676903257
506,825.0396216273033
507,825.036812590713
508,825.0341288494861
509,825.0315583706706
510,825.0290888682777
511,825.0267078528236
512,825.0244026814761
513,825.0221606087224
514,825.019968837499
515,825.0178145707614
516,825.0156850635052
517,825.0135676752774
518,825.0114499232353
519,825.0093195358244
520,825.00716450713
521,825.0049731519762
522,825.0027341618962
523,825.0004366622019
524,824.9980702704441
525,824.9956251565826
526,824.9930921051325
527,824.9904625794287
528,824.9877287879555
529,824.9848837524514
530,824.9819213772563
531,824.9788365191253
532,824.9756250565392
533,824.9722839574199
534,824.9688113441404
535,824.965206554794
536,824.9614701997916
537,824.9576042129471
538,824.9536118962538
539,824.9494979575608
540,824.945268540379
541,824.9409312451271
542,824.9364951412184
543,824.9319707694808
544,824.9273701344677
545,824.9227066862658
546,824.9179952914567
547,824.9132521929123
548,824.9084949581068
549,824.9037424156563
550,824.8990145799147
551,824.8943325636529
552,824.8897184791099
553,824.8851953279318
554,824.8807868807206
555,824.8765175470645
556,824.8724122370302
557,824.8684962151337
558,824.8647949478068
559,824.8613339453366
560,824.858138599225
561,824.8552340158769
562,824.8526448475229
563,824.8503951213263
564,824.8485080677095
565,824.8470059490037
566,824.8459098895709
567,824.8452397085613
568,824.8450137564677
569,824.845248756613
570,824.8459596526518
571,824.8471594630842
572,824.8488591437413
573,824.8510674592196
574,824.8537908642726
575,824.8570333961457
576,824.8607965787778
577,824.8650793397429
578,824.8698779407479
579,824.8751859224055
580,824.8809940638191
581,824.8872903573138
582,824.8940599985452
583,824.9012853922584
584,824.9089461741045
585,824.9170192490744
586,824.9254788472015
587,824.9342965971866
588,824.9434416185105
589,824.9528806323983
590,824.9625780916988
591,824.9724963293778
592,824.9825957249726
593,824.9928348880485
594,825.0031708574465
595,825.0135593148466
596,825.0239548108958
597,825.0343110019005
598,825.0445808948807
599,825.054717098633
600,825.0646720783251
601,825.0743984111205
602,825.0838490404343
603,825.0929775265806
604,825.1017382917219
605,825.1100868571527
606,825.1179800710597
607,825.1253763250188
608,825.132235757624
609,825.1385204437881
610,825.1441945684322
611,825.1492245834527
612,825.15357934702
613,825.1572302444757
614,825.1601512903711
615,825.1623192115447
616,825.163713511473
617,825.1643165163625
618,825.1641134036074
619,825.1630922133569
620,825.1612438440922
621,825.1585620332869
622,825.1550433244032
623,825.1506870216341
624,825.145495133921
625,825.1394723098211
626,825.1326257647562
627,825.124965202057
628,825.1165027290543
629,825.1072527692663
630,825.0972319715459
631,825.0864591169011
632,825.0749550236053
633,825.0627424511281
634,825.0498460033023
635,825.036292030984
636,825.0221085342728
637,825.0073250641758
638,824.9919726234707
639,824.9760835664714
640,824.9596914974367
641,824.942831167443
642,824.9255383696186
643,824.9078498326869
644,824.8898031128325
645,824.871436483943
646,824.8527888262695
647,824.8338995134384
648,824.8148082976173
649,824.7955551925824
650,824.7761803544463
651,824.7567239598817
652,824.7372260817899
653,824.7177265625206
654,824.6982648849247
655,824.6788800416979
656,824.6596104035863
657,824.6404935870671
658,824.6215663220842
659,824.6028643203595
660,824.58442214475
661,824.5662730801077
662,824.5484490061314
663,824.5309802727318
664,824.5138955784568
665,824.4972218525425
666,824.4809841412217
667,824.4652054990162
668,824.4499068858252
669,824.4351070706651
670,824.4208225429302
671,824.4070674320639
672,824.3938534365278
673,824.3811897629215
674,824.3690830760354
675,824.3575374604924
676,824.3465543944301
677,824.3361327354496
678,824.3262687188537
679,824.3169559681152
680,824.308185517559
681,824.2999458473773
682,824.2922229312373
683,824.2850002968129
684,824.2782590995517
685,824.2719782098774
686,824.2661343138398
687,824.2607020270387
688,824.2556540214654
689,824.2509611647829
690,824.2465926714887
691,824.2425162653255
692,824.2386983522161
693,824.2351042028716
694,824.2316981440828
695,824.2284437575737
696,824.2253040851774
697,824.2222418389898
698,824.2192196150564
699,824.2162001090225
700,824.2131463320758
701,824.2100218254458
702,824.2067908717214
703,824.2034187013045
704,824.1998716924448
705,824.1961175634802
706,824.1921255561299
707,824.1878666089034
708,824.1833135198365
709,824.1784410978273
710,824.17322630184
711,824.1676483672011
712,824.161688918206
713,824.1553320663354
714,824.1485644935465
715,824.1413755202763
716,824.1337571579038
717,824.1257041454544
718,824.1172139703975
719,824.1082868735326
720,824.0989258381636
721,824.0891365639652
722,824.0789274261191
723,824.0683094204624
724,824.0572960955201
725,824.0459034723801
726,824.0341499534167
727,824.0220562208984
728,824.0096451265007
729,823.9969415726622
730,823.9839723866291
731,823.9707661880032
732,823.9573532506629
733,823.9437653599941
734,823.9300356663516
735,823.9161985355441
736,823.9022893969536
737,823.8883445897708
738,823.8744012077932
739,823.8604969432839
740,823.8466699304721
741,823.8329585893655
742,823.8194014706019
743,823.806037102091
744,823.792903838153
745,823.7800397117771
746,823.7674822905298
747,823.7552685365702
748,823.7434346711817
749,823.732016044202
750,823.7210470087174
751,823.7105608013591
752,823.7005894285194
753,823.6911635587836
754,823.6823124218133
755,823.6740637138273
756,823.6664435097431
757,823.6594761819938
758,823.6531843260167
759,823.6475886924084
760,823.6427081257777
761,823.6385595104183
762,823.6351577230339
763,823.6325155928297
764,823.6306438692883
765,823.6295511978878
766,823.6292441039398
767,823.629726984665
768,823.631002109603
769,823.6330696294301
770,823.635927593209
771,823.6395719739664
772,823.6439967023291
773,823.6491937077883
774,823.6551529670994
775,823.6618625593817
776,823.6693087275943
777,823.6774759460741
778,823.6863469936817
779,823.6959030318994
780,823.7061236870559
781,823.7169871357513
782,823.7284701924882
783,823.7405483984858
784,823.7531961106819
785,823.7663865899642
786,823.7800920876937
787,823.7942839295805
788,823.8089325960163
789,823.8240077981192
790,823.8394785490116
791,823.8553132301464
792,823.8714796527678
793,823.8879451148091
794,823.9046764537378
795,823.9216400960607
796,823.9388021043795
797,823.9561282230233
798,823.9735839233666
799,823.9911344499718
800,824.008744868666
801,824.0263801175917
802,824.0440050621658
803,824.0615845547732
804,824.0790834999133
805,824.0964669253631
806,824.1137000596967
807,824.1307484162571
808,824.1475778834538
809,824.1641548210769
810,824.1804461621183
811,824.1964195193831
812,824.2120432960029
813,824.2272867988494
814,824.2421203537945
815,824.2565154217467
816,824.2704447143736
817,824.2838823083504
818,824.2968037568576
819,824.3091861969505
820,824.3210084513894
821,824.3322511235982
822,824.3428966845659
823,824.3529295507046
824,824.3623361518646
825,824.3711049888814
826,824.3792266802452
827,824.3866939977121
828,824.3935018908946
829,824.3996475009816
830,824.4051301637389
831,824.4099514019152
832,824.4141149071654
833,824.41762651165
834,824.4204941495104
835,824.4227278084608
836,824.4243394717736
837,824.4253430509725
838,824.4257543095628
839,824.4255907781462
840,824.4248716613157
841,824.4236177368166
842,824.4218512476544
843,824.4195957880529
844,824.4168761843264
845,824.4137183717763
846,824.4101492686848
847,824.406196648459
848,824.4018890109783
849,824.3972554541518
850,824.3923255465918
851,824.3871292021818
852,824.3816965572063
853,824.3760578506336
854,824.3702433081368
855,824.3642830304784
856,824.3582068869537
857,824.3520444146144
858,824.3458247239877
859,824.3395764119763
860,824.3333274826024
861,824.3271052761687
862,824.3209364072168
863,824.3148467113782
864,824.3088612009441
865,824.3030040287937
866,824.2972984602362
867,824.2917668522829
868,824.2864306398375
869,824.2813103282452
870,824.2764254915959
871,824.2717947762026
872,824.2674359087772
873,824.2633657089738
874,824.2596001060728
875,824.2561541595661
876,824.2530420832603
877,824.250277272349
878,824.2478723328162
879,824.2458391125542
880,824.2441887336194
881,824.2429316250192
882,824.2420775552933
883,824.241635664022
884,824.2416144913633
885,824.2420220047652
886,824.2428656220811
887,824.2441522304142
888,824.2458882001664
889,824.2480793939613
890,824.2507311702982
891,824.2538483819454
892,824.2574353691859
893,824.2614959481016
894,824.2660333941367
895,824.2710504212438
896,824.2765491569827
897,824.2825311140749
898,824.2889971590636
899,824.2959474788568
900,824.3033815460032
901,824.3112980835117
902,824.319695029905
903,824.3285695050271
904,824.3379177769773
905,824.3477352304852
906,824.3580163370922
907,824.3687546276257
908,824.3799426675465
909,824.3915720357622
910,824.4036333074627
911,824.4161160414731
912,824.4290087725476
913,824.4422990089259
914,824.4559732353457
915,824.4700169215811
916,824.4844145364946
