frame_number,force
0,826.809508958647
1,826.7293447373489
2,826.6492710045957
3,826.5693780358331
4,826.4897556820408
5,826.4104931616129
6,826.3316788569208
7,826.2534001167814
8,826.1757430658652
9,826.0987924219344
10,826.0226313216576
11,825.9473411555974
12,825.873001412804
13,825.7996895352886
14,825.7274807825246
15,825.6564481060087
16,825.5866620338115
17,825.5181905649466
18,825.4510990733194
19,825.3854502209985
20,825.3213038805837
21,825.2587170664965
22,825.19774387505
23,825.1384354331649
24,825.0808398555599
25,825.0250022101993
26,824.9709644917405
27,824.918765602723
28,824.8684413422553
29,824.820024401963
30,824.7735443689493
31,824.7290277354946
32,824.6864979152053
33,824.6459752653113
34,824.6074771148175
35,824.5710177982195
36,824.5366086944839
37,824.5042582709626
38,824.4739721318563
39,824.4457530708161
40,824.4196011272676
41,824.3955136460577
42,824.3734853400446
43,824.3535083552816
44,824.3355723384808
45,824.3196645064785
46,824.3057697174485
47,824.2938705436336
48,824.2839473454123
49,824.2759783465539
50,824.2699397105409
51,824.2658056178383
52,824.2635483439833
53,824.2631383383685
54,824.2645443035892
55,824.2677332752586
56,824.2726707022273
57,824.2793205271727
58,824.2876452675192
59,824.2976060966203
60,824.3091629250832
61,824.3222744820835
62,824.3368983965007
63,824.352991277697
64,824.3705087957221
65,824.3894057606681
66,824.409636200829
67,824.4311534392791
68,824.4539101684659
69,824.4778585224332
70,824.5029501463238
71,824.5291362628336
72,824.5563677353113
73,824.5845951272187
74,824.6137687577184
75,824.6438387532204
76,824.674755094799
77,824.7064676614322
78,824.7389262690373
79,824.7720807052809
80,824.8058807601675
81,824.8402762524671
82,824.8752170521051
83,824.9106530986842
84,824.9465344163517
85,824.9828111252598
86,825.0194334499063
87,825.0563517246827
88,825.0935163969931
89,825.1308780283479
90,825.1683872938704
91,825.2059949806692
92,825.2436519855328
93,825.281309312408
94,825.3189180701138
95,825.3564294707336
96,825.3937948291126
97,825.4309655638668
98,825.4678932002871
99,825.5045293754919
100,825.5408258461506
101,825.5767344990762
102,825.6122073649461
103,825.6471966353771
104,825.6816546835329
105,825.7155340883857
106,825.7487876626979
107,825.7813684847449
108,825.8132299337736
109,825.8443257291648
110,825.8746099732343
111,825.9040371975796
112,825.9325624128429
113,825.9601411617664
114,825.9867295754163
115,826.0122844324668
116,826.0367632213981
117,826.0601242054075
118,826.0823264897626
119,826.1033300912698
120,826.1230960094935
121,826.1415862993498
122,826.1587641446929
123,826.1745939325099
124,826.1890413273442
125,826.2020733455689
126,826.2136584291487
127,826.2237665185575
128,826.2323691245435
129,826.2394393984393
130,826.2449522006922
131,826.2488841672591
132,826.2512137734902
133,826.2519213951216
134,826.250989366024
135,826.2484020323768
136,826.244145802966
137,826.2382091953305
138,826.2305828775267
139,826.221259705324
140,826.2102347546834
141,826.1975053494317
142,826.1830710840965
143,826.1669338419043
144,826.149097807972
145,826.1295694777261
146,826.1083576606399
147,826.0854734794182
148,826.0609303648178
149,826.034744046294
150,826.0069325386636
151,825.9775161249371
152,825.9465173354382
153,825.9139609232907
154,825.8798738363269
155,825.8442851854694
156,825.8072262096439
157,825.7687302372806
158,825.7288326444535
159,825.687570809704
160,825.6449840655952
161,825.6011136470474
162,825.5560026364748
163,825.5096959057189
164,825.4622400547687
165,825.4136833472863
166,825.3640756430062
167,825.3134683270888
168,825.2619142364845
169,825.209467583305
170,825.156183875152
171,825.1021198323475
172,825.0473333020464
173,824.9918831692568
174,824.9358292648473
175,824.8792322706674
176,824.8221536219655
177,824.7646554073436
178,824.7068002665486
179,824.6486512864377
180,824.5902718954733
181,824.5317257571091
182,824.4730766624479
183,824.4143884225778
184,824.355724761018
185,824.2971492066971
186,824.2387249878784
187,824.1805149274287
188,824.1225813398132
189,824.0649859301792
190,824.0077896958577
191,823.9510528305759
192,823.8948346316432
193,823.8391934103269
194,823.7841864055921
195,823.7298697013267
196,823.6762981471235
197,823.6235252826417
198,823.5716032655408
199,823.5205828029731
200,823.4705130866414
201,823.4214417314555
202,823.3734147178372
203,823.3264763377175
204,823.2806691442155
205,823.2360339049508
206,823.1926095589206
207,823.1504331769233
208,823.1095399255695
209,823.0699630349947
210,823.0317337704329
211,822.9948814078383
212,822.9594332137364
213,822.9254144294426
214,822.89284825972
215,822.8617558658675
216,822.8321563631599
217,822.8040668224897
218,822.7775022760069
219,822.7524757265109
220,822.7289981603175
221,822.7070785632991
222,822.6867239397859
223,822.6679393340136
224,822.6507278538119
225,822.6350906962438
226,822.621027174938
227,822.6085347488967
228,822.5976090525944
229,822.5882439272106
230,822.5804314528333
231,822.5741619814802
232,822.5694241707932
233,822.5662050183221
234,822.5644898963591
235,822.5642625873289
236,822.5655053197328
237,822.568198804635
238,822.572322272692
239,822.5778535117355
240,822.5847689049655
241,822.5930434698314
242,822.6026508977021
243,822.6135635944348
244,822.6257527219639
245,822.6391882410501
246,822.6538389553363
247,822.6696725568547
248,822.6866556731144
249,822.7047539158816
250,822.7239319317479
251,822.7441534545532
252,822.7653813596891
253,822.787577720231
254,822.8107038647581
255,822.8347204366374
256,822.8595874545051
257,822.8852643736776
258,822.9117101482525
259,822.938883293706
260,822.966741949839
261,822.9952439439561
262,823.0243468541923
263,823.0540080729152
264,823.0841848701194
265,823.1148344567207
266,823.1459140476386
267,823.1773809245732
268,823.2091924983995
269,823.241306371138
270,823.2736803974758
271,823.306272745816
272,823.3390419588104
273,823.3719470133277
274,823.4049473798359
275,823.4380030812144
276,823.4710747510409
277,823.5041236913709
278,823.5371119299672
279,823.5700022768535
280,823.6027583800186
281,823.635344780089
282,823.6677269638144
283,823.6998714162248
284,823.7317456713103
285,823.7633183610443
286,823.7945592625415
287,823.825439343121
288,823.8559308030457
289,823.8860071157004
290,823.9156430649884
291,823.9448147797445
292,823.9734997650061
293,824.0016769300246
294,824.0293266129354
295,824.0564306020042
296,824.0829721533701
297,824.1089360052101
298,824.1343083882655
299,824.1590770326889
300,824.1832311711852
301,824.2067615384448
302,824.229660366905
303,824.2519213789313
304,824.2735397755588
305,824.2945122219728
306,824.3148368299077
307,824.3345131371091
308,824.3535420839526
309,824.3719259872494
310,824.3896685112071
311,824.4067746354672
312,824.4232506201236
313,824.4391039676467
314,824.4543433816646
315,824.4689787226014
316,824.4830209602293
317,824.496482123263
318,824.5093752462326
319,824.5217143139683
320,824.5335142040979
321,824.5447906279629
322,824.5555600703138
323,824.5658397280813
324,824.5756474484974
325,824.5850016668461
326,824.5939213441414
327,824.602425905037
328,824.6105351762359
329,824.6182693256267
330,824.6256488023238
331,824.6326942777623
332,824.6394265879691
333,824.6458666771248
334,824.6520355425257
335,824.6579541810725
336,824.6636435374262
337,824.6691244539749
338,824.6744176227375
339,824.6795435393102
340,824.6845224589254
341,824.6893743546514
342,824.6941188777351
343,824.6987753200675
344,824.7033625787702
345,824.7078991229331
346,824.7124029625627
347,824.7168916198073
348,824.7213821024887
349,824.7258908799246
350,824.7304338609811
351,824.735026374289
352,824.7396831505579
353,824.7444183069316
354,824.7492453333105
355,824.7541770805534
356,824.7592257504454
357,824.7644028872795
358,824.7697193708739
359,824.7751854108267
360,824.7808105418216
361,824.7866036198197
362,824.792572819017
363,824.7987256294862
364,824.805068855465
365,824.8116086142786
366,824.8183503358946
367,824.825298763095
368,824.8324579522156
369,824.8398312743848
370,824.8474214171841
371,824.855230386656
372,824.863259509592
373,824.8715094360371
374,824.8799801419301
375,824.8886709318058
376,824.8975804414936
377,824.9067066407862
378,824.9160468360913
379,824.9255976731101
380,824.9353551396107
381,824.9453145683689
382,824.9554706403522
383,824.9658173882248
384,824.9763482002841
385,824.9870558249869
386,824.9979323762458
387,825.0089693396917
388,825.0201575800821
389,825.0314873500348
390,825.0429483002816
391,825.0545294916437
392,825.0662194089149
393,825.0780059768059
394,825.089876578061
395,825.1018180738283
396,825.1138168263265
397,825.1258587238184
398,825.1379292078676
399,825.1500133028142
400,825.162095647387
401,825.1741605283532
402,825.1861919160979
403,825.1981735020281
404,825.2100887377054
405,825.2219208756139
406,825.2336530114715
407,825.2452681279678
408,825.2567491398087
409,825.2680789399418
410,825.2792404468418
411,825.290216652702
412,825.3009906723494
413,825.311545792661
414,825.3218655222638
415,825.3319336413256
416,825.3417342512996
417,825.3512518245143
418,825.3604712534966
419,825.3693778998763
420,825.377957642649
421,825.3861969255024
422,825.3940828028659
423,825.4016029843226
424,825.408745877037
425,825.4155006258892
426,825.4218571510638
427,825.42780618289
428,825.4333392937697
429,825.43844892703
430,825.4431284225316
431,825.4473720388697
432,825.4511749720331
433,825.4545333704297
434,825.4574443462458
435,825.4599059831478
436,825.4619173403589
437,825.4634784531324
438,825.4645903296188
439,825.4652549440968
440,825.4654752265174
441,825.4652550482953
442,825.4645992043021
443,825.4635133910442
444,825.4620041810705
445,825.4600789937278
446,825.4577460624469
447,825.4550143987907
448,825.451893753525
449,825.4483945749815
450,825.4445279650013
451,825.4403056327492
452,825.4357398466889
453,825.4308433849874
454,825.425629484626
455,825.4201117895406
456,825.4143042981734
457,825.4082213108825
458,825.401877377668
459,825.3952872466555
460,825.3884658136994
461,825.3814280733848
462,825.3741890716199
463,825.3667638599502
464,825.3591674516505
465,825.3514147796096
466,825.3435206560171
467,825.3354997338631
468,825.3273664702847
469,825.3191350917895
470,825.3108195613895
471,825.3024335476613
472,825.2939903957484
473,825.2855031003286
474,825.2769842805977
475,825.2684461573706
476,825.2599005324167
477,825.2513587701268
478,825.2428317815447
479,825.2343300107241
480,825.2258634233095
481,825.2174414972224
482,825.2090732153375
483,825.2007670600656
484,825.1925310097761
485,825.1843725369959
486,825.1762986083015
487,825.1683156858164
488,825.1604297302305
489,825.1526462052742
490,825.1449700835692
491,825.1374058537552
492,825.1299575287786
493,825.1226286552279
494,825.1154223236268
495,825.1083411796251
496,825.1013874360607
497,825.0945628858806
498,825.087868915915
499,825.081306521505
500,825.0748763219858
501,825.068578577036
502,825.0624132038859
503,825.0563797953706
504,825.0504776388046
505,825.0447057356579
506,825.039062821979
507,825.0335473894748
508,825.0281577071262
509,825.0228918432114
510,825.0177476876329
511,825.0127229744617
512,825.0078153046286
513,825.0030221686984
514,824.9983409696634
515,824.9937690457136
516,824.9893036929531
517,824.9849421880406
518,824.9806818107407
519,824.9765198663787
520,824.9724537081892
521,824.968480759555
522,824.9645985361553
523,824.9608046680764
524,824.9570969219643
525,824.9534732233145
526,824.9499316789728
527,824.9464705998798
528,824.943088524035
529,824.9397842395684
530,824.9365568077291
531,824.933405585518
532,824.9303302476296
533,824.9273308073247
534,824.9244076358557
535,824.9215614800953
536,824.9187934780532
537,824.9161051720076
538,824.9134985189922
539,824.9109758983839
540,824.9085401163487
541,824.9061944069329
542,824.9039424296168
543,824.9017882631917
544,824.8997363958372
545,824.8977917112986
546,824.8959594710863
547,824.8942452926218
548,824.8926551232697
549,824.8911952101935
550,824.889872066021
551,824.88869243038
552,824.8876632274477
553,824.8867915197449
554,824.8860844584751
555,824.8855492307581
556,824.8851930041504
557,824.8850228688578
558,824.885045778038
559,824.8852684865848
560,824.8856974887698
561,824.8863389551044
562,824.8871986687819
563,824.8882819620726
564,824.8895936530758
565,824.8911379832515
566,824.8929185561669
567,824.8949382779
568,824.8971992995342
569,824.8997029621684
570,824.9024497448436
571,824.90543921576
572,824.9086699871337
573,824.9121396740513
574,824.915844857682
575,824.9197810532015
576,824.9239426827519
577,824.9283230537407
578,824.9329143427603
579,824.9377075853704
580,824.9426926719152
581,824.9478583494788
582,824.9531922300375
583,824.9586808048809
584,824.9643094654114
585,824.970062530487
586,824.9759232804973
587,824.9818739983588
588,824.9878960175837
589,824.9939697775001
590,825.0000748855955
591,825.0061901868249
592,825.0122938396001
593,825.0183633980685
594,825.0243759001977
595,825.0303079610901
596,825.0361358708527
597,825.0418356962595
598,825.0473833853698
599,825.0527548742195
600,825.0579261946477
601,825.0628735823224
602,825.0675735840592
603,825.0720031635839
604,825.0761398049373
605,825.0799616127746
606,825.0834474088402
607,825.0865768239473
608,825.089330384837
609,825.0916895953469
610,825.0936370113831
611,825.0951563092448
612,825.0962323469214
613,825.0968512180527
614,825.0970002983403
615,825.0966682843315
616,825.0958452246145
617,825.0945225435478
618,825.0926930577034
619,825.090350985258
620,825.0874919486149
621,825.0841129706098
622,825.0802124647191
623,825.0757902197491
624,825.0708473795304
625,825.065386418164
626,825.0594111113528
627,825.0529265043185
628,825.0459388767538
629,825.038455705189
630,825.0304856230983
631,825.02203837902
632,825.013124792937
633,825.0037567111389
634,824.9939469597521
635,824.983709297072
636,824.9730583647681
637,824.9620096379787
638,824.9505793742613
639,824.9387845613642
640,824.9266428637849
641,824.9141725681267
642,824.9013925272807
643,824.8883221034941
644,824.8749811103968
645,824.8613897540853
646,824.8475685733536
647,824.8335383791286
648,824.8193201931215
649,824.8049351856849
650,824.7904046128768
651,824.7757497527517
652,824.7609918409436
653,824.7461520056577
654,824.7312512022485
655,824.7163101476184
656,824.701349254714
657,824.6863885674048
658,824.6714476960213
659,824.6565457538021
660,824.6417012944781
661,824.6269322512202
662,824.6122558771765
663,824.5976886878411
664,824.5832464054948
665,824.5689439059671
666,824.5547951679802
667,824.54081322537
668,824.5270101225028
669,824.5133968732148
670,824.4999834236047
671,824.4867786190076
672,824.4737901754769
673,824.4610246560804
674,824.4484874522896
675,824.4361827706897
676,824.424113625164
677,824.4122818346189
678,824.4006880262452
679,824.3893316442732
680,824.3782109641904
681,824.3673231124329
682,824.3566640916058
683,824.3462288113077
684,824.3360111246211
685,824.3260038702908
686,824.316198920541
687,824.3065872344126
688,824.2971589164356
689,824.2879032804038
690,824.2788089179949
691,824.2698637719377
692,824.2610552134065
693,824.2523701232681
694,824.2437949767602
695,824.2353159311291
696,824.2269189157145
697,824.2185897239344
698,824.21031410658
699,824.2020778657937
700,824.1938669490636
701,824.1856675425488
702,824.1774661630478
703,824.1692497479415
704,824.1610057424897
705,824.1527221839241
706,824.1443877818591
707,824.1359919946201
708,824.1275251011405
709,824.1189782681072
710,824.1103436120306
711,824.1016142559073
712,824.0927843801439
713,824.0838492674445
714,824.0748053414196
715,824.0656501987489
716,824.0563826347624
717,824.0470026623295
718,824.0375115239696
719,824.0279116971528
720,824.0182068928412
721,824.0084020473895
722,823.9985033079946
723,823.9885180119439
724,823.9784546599653
725,823.968322884012
726,823.9581334098434
727,823.9478980147751
728,823.9376294809698
729,823.9273415446225
730,823.9170488413602
731,823.9067668481744
732,823.8965118222284
733,823.8863007369075
734,823.8761512154798
735,823.8660814626965
736,823.8561101945983
737,823.8462565667572
738,823.8365401011717
739,823.8269806120535
740,823.8175981307808
741,823.8084128303201
742,823.7994449494487
743,823.7907147171119
744,823.782242277243
745,823.7740476143423
746,823.7661504800815
747,823.7585703211744
748,823.7513262087433
749,823.7444367693956
750,823.737920118223
751,823.7317937939249
752,823.7260746962513
753,823.7207790259478
754,823.7159222273697
755,823.711518933896
756,823.7075829162409
757,823.7041270337486
758,823.7011631887425
759,823.6987022840003
760,823.6967541834335
761,823.695327676082
762,823.694430443567
763,823.6940690311703
764,823.694248822709
765,823.6949740193445
766,823.6962476224403
767,823.6980714205508
768,823.7004459806162
769,823.7033706434247
770,823.7068435233832
771,823.7108615125866
772,823.7154202891139
773,823.7205143294207
774,823.7261369246694
775,823.7322802008553
776,823.7389351426165
777,823.7460916206225
778,823.7537384223745
779,823.7618632861801
780,823.7704529380005
781,823.7794931308289
782,823.788968686231
783,823.7988635376645
784,823.8091607751975
785,823.8198426912572
786,823.8308908270436
787,823.8422860192353
788,823.8540084466281
789,823.8660376763978
790,823.8783527097635
791,823.890932026929
792,823.9037536312734
793,823.9167950928293
794,823.9300335911607
795,823.9434459578188
796,823.9570087186125
797,823.9706981359826
798,823.9844902517835
799,823.9983609307955
800,824.0122859052766
801,824.0262408208355
802,824.0402012838709
803,824.0541429107855
804,824.0680413791441
805,824.0818724808934
806,824.0956121776796
807,824.1092366582212
808,824.1227223976125
809,824.1360462183732
810,824.1491853529915
811,824.1621175076366
812,824.1748209266606
813,824.187274457467
814,824.1994576153157
815,824.211350647621
816,824.2229345973
817,824.2341913647087
818,824.2451037676637
819,824.2556555990109
820,824.2658316812019
821,824.2756179173641
822,824.2850013384057
823,824.2939701457732
824,824.3025137495409
825,824.3106228015835
826,824.3182892236554
827,824.3255062302898
828,824.3322683465021
829,824.3385714203346
830,824.3444126302786
831,824.3497904876048
832,824.3547048336328
833,824.3591568319948
834,824.3631489559598
835,824.3666849709089
836,824.3697699120663
837,824.3724100576076
838,824.3746128972741
839,824.3763870966379
840,824.3777424571747
841,824.3786898723423
842,824.379241279932
843,824.3794096110381
844,824.3792087360549
845,824.3786534081249
846,824.3777592044539
847,824.3765424659053
848,824.3750202352862
849,824.3732101947246
850,824.3711306025059
851,824.3688002296938
852,824.3662382968222
853,824.363464410921
854,824.3604985031392
855,824.3573607672406
856,824.3540715992776
857,824.3506515387542
858,824.3471212115898
859,824.3435012751862
860,824.339812365888
861,824.3360750491023
862,824.332309772274
863,824.3285368208094
864,824.3247762769545
865,824.3210479815618
866,824.3173714986532
867,824.3137660826713
868,824.3102506483028
869,824.3068437427352
870,824.3035635201952
871,824.3004277186225
872,824.2974536383664
873,824.2946581228446
874,824.2920575411334
875,824.2896677724563
876,824.2875041924835
877,824.2855816612977
878,824.2839145128444
879,824.2825165456943
880,824.2814010149548
881,824.2805806251549
882,824.2800675238819
883,824.2798732958976
884,824.2800089574516
885,824.28048495052
886,824.2813111367232
887,824.2824967907115
888,824.284050592854
889,824.2859806211305
890,824.2882943421912
891,824.2909986015959
892,824.2940996132825
893,824.2976029483311
894,824.3015135231166
895,824.3058355869473
896,824.3105727093248
897,824.3157277669898
898,824.3213029309753
899,824.3272996539283
900,824.3337186579842
901,824.340559923462
902,824.3478226786045
903,824.355505390527
904,824.3636057574839
905,824.3721207025424
906,824.3810463687648
907,824.390378116046
908,824.4001105197776
909,824.4102373715195
910,824.4207516818394
911,824.4316456854623
912,824.4429108488439
913,824.4545378802467
914,824.4665167423498
915,824.4788366673813
916,824.4914861747304
917,824.5044530909822
