frame_number,force
0,826.8095089098266
1,826.7293446882477
2,826.6492709552072
3,826.5693779861517
4,826.4897556320617
5,826.4104931113316
6,826.3316788063339
7,826.2534000658858
8,826.1757430146585
9,826.0987923704147
10,826.022631269823
11,825.9473411034472
12,825.8730013603388
13,825.7996894825102
14,825.7274807294355
15,825.6564480526117
16,825.5866619801103
17,825.5181905109459
18,825.4510990190249
19,825.3854501664171
20,825.321303825724
21,825.2587170113691
22,825.1977438196684
23,825.1384353775459
24,825.080839799723
25,825.0250021541661
26,824.9709644355347
27,824.91876554637
28,824.8684412857822
29,824.8200243453982
30,824.7735443123219
31,824.7290276788336
32,824.6864978585401
33,824.6459752086713
34,824.6074770582327
35,824.57101774172
36,824.5366086380997
37,824.5042582147225
38,824.473972075788
39,824.4457530149455
40,824.4196010716184
41,824.3955135906513
42,824.3734852848999
43,824.3535083004152
44,824.335572283907
45,824.3196644522096
46,824.305769663495
47,824.2938704900043
48,824.2839472921145
49,824.2759782935931
50,824.2699396579211
51,824.2658055655615
52,824.2635482920501
53,824.2631382867769
54,824.2645442523345
55,824.2677332243336
56,824.2726706516222
57,824.2793204768756
58,824.2876452175163
59,824.297606046896
60,824.3091628756201
61,824.3222744328624
62,824.336898347501
63,824.3529912288973
64,824.370508747101
65,824.3894057122045
66,824.4096361525028
67,824.4311533910707
68,824.4539101203552
69,824.4778584744004
70,824.5029500983491
71,824.5291362148987
72,824.5563676874003
73,824.5845950793185
74,824.613768709818
75,824.6438387053113
76,824.6747550468746
77,824.706467613488
78,824.7389262210712
79,824.7720806572916
80,824.8058807121541
81,824.84027620443
82,824.8752170040461
83,824.9106530506074
84,824.946534368262
85,824.9828110771625
86,825.0194334018082
87,825.056351676591
88,825.0935163489146
89,825.1308779802888
90,825.1683872458361
91,825.2059949326639
92,825.2436519375598
93,825.2813092644701
94,825.3189180222138
95,825.3564294228743
96,825.393794781297
97,825.4309655160984
98,825.4678931525704
99,825.5045293278317
100,825.540825798552
101,825.576734451543
102,825.6122073174813
103,825.6471965879832
104,825.6816546362118
105,825.7155340411393
106,825.7487876155287
107,825.7813684376556
108,825.8132298867674
109,825.8443256822458
110,825.8746099264082
111,825.9040371508535
112,825.9325623662247
113,825.960141115264
114,825.9867295290385
115,826.0122843862231
116,826.0367631752985
117,826.0601241594621
118,826.0823264439821
119,826.1033300456659
120,826.1230959640802
121,826.1415862541435
122,826.158764099711
123,826.1745938877707
124,826.189041282866
125,826.2020733013695
126,826.2136583852448
127,826.2237664749645
128,826.2323690812758
129,826.2394393555103
130,826.244952158113
131,826.248884125039
132,826.2512137316363
133,826.2519213536392
134,826.2509893249164
135,826.2484019916456
136,826.2441457626102
137,826.2382091553472
138,826.2305828379122
139,826.2212596660723
140,826.2102347157869
141,826.1975053108812
142,826.1830710458812
143,826.166933804013
144,826.1490977703914
145,826.1295694404421
146,826.1083576236363
147,826.0854734426784
148,826.0609303283242
149,826.0347440100278
150,826.006932502605
151,825.9775160890657
152,825.9465172997335
153,825.9139608877316
154,825.8798738008919
155,825.8442851501368
156,825.8072261743914
157,825.7687302020854
158,825.7288326092928
159,825.6875707745554
160,825.6449840304382
161,825.6011136118628
162,825.5560026012455
163,825.5096958704303
164,825.4622400194085
165,825.4136833118448
166,825.3640756074761
167,825.313468291465
168,825.2619142007642
169,825.2094675474872
170,825.1561838392367
171,825.1021197963357
172,825.0473332659399
173,824.9918831330588
174,824.9358292285629
175,824.8792322343037
176,824.8221535855314
177,824.7646553708496
178,824.7068002300059
179,824.6486512498581
180,824.5902718588692
181,824.5317257204938
182,824.4730766258349
183,824.4143883859807
184,824.3557247244497
185,824.2971491701701
186,824.2387249514047
187,824.1805148910199
188,824.1225813034805
189,824.0649858939336
190,824.0077896597091
191,823.951052794534
192,823.8948345957165
193,823.8391933745232
194,823.7841863699186
195,823.7298696657905
196,823.6762981117312
197,823.6235252473996
198,823.5716032304553
199,823.5205827680512
200,823.4705130518911
201,823.4214416968846
202,823.3734146834536
203,823.3264763035286
204,823.2806691102281
205,823.2360338711698
206,823.192609525349
207,823.1504331435615
208,823.109539892415
209,823.0699630020425
210,823.0317337376761
211,822.994881375268
212,822.9594331813423
213,822.9254143972125
214,822.8928482276398
215,822.8617558339217
216,822.8321563313319
217,822.8040667907617
218,822.7775022443603
219,822.7524756949274
220,822.7289981287792
221,822.7070785317887
222,822.6867239082874
223,822.6679393025121
224,822.6507278222934
225,822.6350906646952
226,822.6210271433475
227,822.6085347172532
228,822.597609020887
229,822.5882438954278
230,822.5804314209635
231,822.5741619495109
232,822.5694241387118
233,822.5662049861161
234,822.5644898640163
235,822.5642625548373
236,822.5655052870794
237,822.5681987718067
238,822.5723222396754
239,822.5778534785175
240,822.5847688715335
241,822.5930434361734
242,822.602650863807
243,822.6135635602924
244,822.625752687565
245,822.6391882063857
246,822.6538389203982
247,822.669672521636
248,822.6866556376101
249,822.7047538800888
250,822.7239318956653
251,822.7441534181808
252,822.7653813230279
253,822.787577683283
254,822.8107038275259
255,822.8347203991248
256,822.859587416717
257,822.8852643356198
258,822.911710109931
259,822.938883255127
260,822.9667419110087
261,822.9952439048809
262,823.0243468148793
263,823.0540080333712
264,823.084184830351
265,823.1148344167331
266,823.1459140074356
267,823.1773808841572
268,823.2091924577713
269,823.2413063302973
270,823.2736803564216
271,823.3062727045466
272,823.3390419173237
273,823.3719469716215
274,823.4049473379071
275,823.4380030390588
276,823.4710747086527
277,823.5041236487433
278,823.5371118870926
279,823.5700022337234
280,823.6027583366231
281,823.6353447364169
282,823.6677269198527
283,823.6998713719591
284,823.7317456267252
285,823.7633183161244
286,823.7945592172716
287,823.825439297488
288,823.8559307570383
289,823.8860070693104
290,823.9156430182102
291,823.9448147325758
292,823.9734997174475
293,824.00167688208
294,824.0293265646112
295,824.0564305533088
296,824.0829721043142
297,824.1089359558068
298,824.1343083385304
299,824.1590769826396
300,824.1832311208404
301,824.2067614878238
302,824.2296603160272
303,824.2519213278155
304,824.2735397242224
305,824.2945121704322
306,824.3148367781783
307,824.3345130852052
308,824.3535420318867
309,824.3719259350328
310,824.38966845885
311,824.4067745829789
312,824.4232505675129
313,824.4391039149216
314,824.4543433288325
315,824.4689786696703
316,824.4830209072076
317,824.4964820701604
318,824.50937519306
319,824.5217142607373
320,824.5335141508207
321,824.5447905746531
322,824.5555600169868
323,824.5658396747536
324,824.5756473951869
325,824.5850016135709
326,824.5939212909201
327,824.6024258518892
328,824.6105351231822
329,824.6182692726888
330,824.6256487495252
331,824.6326942251269
332,824.6394265355204
333,824.6458666248858
334,824.6520354905188
335,824.6579541293196
336,824.663643485949
337,824.6691244027948
338,824.6744175718756
339,824.6795434887869
340,824.68452240876
341,824.6893743048631
342,824.6941188283428
343,824.6987752710893
344,824.7033625302244
345,824.7078990748374
346,824.7124029149344
347,824.7168915726627
348,824.7213820558437
349,824.7258908337949
350,824.7304338153821
351,824.7350263292357
352,824.7396831060655
353,824.7444182630145
354,824.7492452899817
355,824.7541770378245
356,824.7592257083264
357,824.7644028457793
358,824.7697193300005
359,824.7751853705882
360,824.7808105022261
361,824.7866035808754
362,824.7925727807315
363,824.7987255918663
364,824.8050688185162
365,824.8116085780047
366,824.8183503002974
367,824.8252987281747
368,824.832457917971
369,824.8398312408132
370,824.8474213842804
371,824.8552303544128
372,824.863259478
373,824.8715094050849
374,824.8799801116045
375,824.8886709020913
376,824.8975804123721
377,824.9067066122371
378,824.9160468080917
379,824.9255976456345
380,824.9353551126312
381,824.9453145418556
382,824.9554706142729
383,824.9658173625448
384,824.976348174967
385,824.9870557999942
386,824.9979323515378
387,825.0089693152274
388,825.0201575558198
389,825.0314873259317
390,825.0429482762949
391,825.054529467731
392,825.0662193850347
393,825.0780059529171
394,825.0898765541235
395,825.1018180498036
396,825.1138168021771
397,825.1258586995082
398,825.137929183361
399,825.1500132780768
400,825.1620956223853
401,825.1741605030544
402,825.1861918904701
403,825.1981734760413
404,825.2100887113307
405,825.2219208488241
406,825.2336529842406
407,825.2452681002715
408,825.2567491116234
409,825.2680789112449
410,825.2792404176109
411,825.2902166229162
412,825.3009906419891
413,825.3115457617084
414,825.3218654907025
415,825.3319336091404
416,825.341734218476
417,825.3512517910384
418,825.3604712193564
419,825.3693778650618
420,825.377957607152
421,825.3861968893175
422,825.3940827659904
423,825.4016029467564
424,825.4087458387825
425,825.4155005869525
426,825.4218571114538
427,825.4278061426185
428,825.4333392528503
429,825.4384488854776
430,825.4431283803619
431,825.4473719960997
432,825.4511749286801
433,825.4545333265115
434,825.4574443017808
435,825.4599059381546
436,825.4619172948562
437,825.4634784071387
438,825.4645902831523
439,825.4652548971759
440,825.4654751791593
441,825.4652550005167
442,825.4645991561193
443,825.463513342473
444,825.4620041321263
445,825.4600789444253
446,825.4577460128002
447,825.4550143488134
448,825.45189370323
449,825.4483945243812
450,825.4445279141072
451,825.4403055815723
452,825.4357397952398
453,825.4308433332765
454,825.4256294326641
455,825.4201117373387
456,825.4143042457437
457,825.4082212582371
458,825.4018773248191
459,825.3952871936151
460,825.3884657604794
461,825.381428019996
462,825.3741890180726
463,825.3667638062547
464,825.3591673978161
465,825.3514147256456
466,825.343520601932
467,825.3354996796658
468,825.3273664159834
469,825.3191350373928
470,825.3108195069055
471,825.3024334930981
472,825.2939903411142
473,825.2855030456319
474,825.276984225848
475,825.268446102578
476,825.2599004775923
477,825.2513587152827
478,825.2428317266938
479,825.2343299558797
480,825.2258633684859
481,825.217441442434
482,825.2090731605989
483,825.2007670053904
484,825.1925309551779
485,825.1843724824884
486,825.1762985538988
487,825.1683156315328
488,825.1604296760797
489,825.1526461512703
490,825.1449700297266
491,825.1374058000886
492,825.1299574753026
493,825.1226286019577
494,825.1154222705776
495,825.1083411268119
496,825.1013873834972
497,825.0945628335803
498,825.0878688638921
499,825.0813064697733
500,825.0748762705582
501,825.0685785259241
502,825.0624131530997
503,825.056379744918
504,825.0504775886917
505,825.0447056858878
506,825.0390627725519
507,825.0335473403884
508,825.028157658376
509,825.0228917947916
510,825.0177476395355
511,825.0127229266772
512,825.0078152571464
513,825.0030221215064
514,824.9983409227481
515,824.9937689990605
516,824.9893036465472
517,824.9849421418666
518,824.9806817647834
519,824.9765198206237
520,824.972453662623
521,824.968480714165
522,824.9645984909297
523,824.9608046230029
524,824.9570968770313
525,824.9534731785108
526,824.9499316342869
527,824.946470555301
528,824.943088479553
529,824.9397841951745
530,824.9365567634158
531,824.933405541279
532,824.9303302034597
533,824.9273307632199
534,824.924407591814
535,824.9215614361159
536,824.9187934341365
537,824.9161051281553
538,824.9134984752069
539,824.9109758546696
540,824.9085400727109
541,824.9061943633778
542,824.9039423861514
543,824.9017882198231
544,824.8997363525726
545,824.8977916681457
546,824.8959594280523
547,824.8942452497145
548,824.8926550804962
549,824.8911951675597
550,824.8898720235314
551,824.8886923880382
552,824.8876631852565
553,824.8867914777072
554,824.8860844165924
555,824.8855491890308
556,824.8851929625787
557,824.8850228274414
558,824.8850457367763
559,824.8852684454771
560,824.8856974478159
561,824.8863389143041
562,824.8871986281343
563,824.8882819215767
564,824.88959361273
565,824.8911379430538
566,824.8929185161154
567,824.8949382379925
568,824.8971992597674
569,824.8997029225375
570,824.9024497053434
571,824.9054391763848
572,824.9086699478775
573,824.9121396349075
574,824.9158448186442
575,824.9197810142637
576,824.9239426439079
577,824.9283230149845
578,824.9329143040858
579,824.9377075467713
580,824.9426926333853
581,824.9478583110117
582,824.9531921916275
583,824.9586807665214
584,824.9643094270948
585,824.9700624922051
586,824.9759232422417
587,824.9818739601213
588,824.9878959793562
589,824.9939697392742
590,825.0000748473625
591,825.0061901485755
592,825.0122938013242
593,825.0183633597551
594,825.0243758618348
595,825.0303079226644
596,825.0361358323503
597,825.0418356576645
598,825.0473833466654
599,825.0527548353873
600,825.0579261556677
601,825.0628735431734
602,825.0675735447194
603,825.0720031240297
604,825.0761397651446
605,825.079961572719
606,825.0834473684969
607,825.0865767832913
608,825.0893303438439
609,825.0916895539937
610,825.0936369696473
611,825.0951562671046
612,825.0962323043564
613,825.0968511750425
614,825.0970002548648
615,825.0966682403715
616,825.095845180152
617,825.0945224985653
618,825.0926930121854
619,825.0903509391903
620,825.0874919019855
621,825.0841129234082
622,825.0802124169363
623,825.0757901713773
624,825.0708473305631
625,825.0653863685958
626,825.0594110611792
627,825.0529264535369
628,825.0459388253631
629,825.0384556531902
630,825.0304855704942
631,825.0220383258153
632,825.0131247391386
633,825.0037566567557
634,824.9939469047955
635,824.9837092415551
636,824.9730583087056
637,824.9620095813857
638,824.9505793171544
639,824.9387845037609
640,824.9266428057047
641,824.9141725095903
642,824.9013924683113
643,824.888322044116
644,824.8749810506351
645,824.8613896939662
646,824.847568512904
647,824.8335383183767
648,824.8193201320962
649,824.8049351244166
650,824.790404551397
651,824.7757496910937
652,824.7609917791424
653,824.74615194375
654,824.7312511402718
655,824.7163100856104
656,824.701349192712
657,824.6863885054449
658,824.6714476341392
659,824.6565456920329
660,824.6417012328561
661,824.6269321897779
662,824.612255815944
663,824.597688626846
664,824.5832463447628
665,824.568943845522
666,824.554795107844
667,824.540813165563
668,824.5270100630437
669,824.5133968141205
670,824.49998336489
671,824.4867785606856
672,824.4737901175586
673,824.4610245985748
674,824.4484873952036
675,824.4361827140282
676,824.4241135689296
677,824.4122817788125
678,824.400687970866
679,824.3893315893183
680,824.3782109096544
681,824.3673230583079
682,824.3566640378815
683,824.3462287579715
684,824.3360110716591
685,824.3260038176877
686,824.3161988682809
687,824.3065871824791
688,824.297158864811
689,824.2879032290707
690,824.2788088669356
691,824.2698637211349
692,824.2610551628442
693,824.2523700729315
694,824.243794926636
695,824.2353158812057
696,824.226918865982
697,824.2185896743845
698,824.2103140572053
699,824.2020778165875
700,824.1938669000195
701,824.1856674936616
702,824.1774661143121
703,824.1692496993512
704,824.1610056940383
705,824.1527221356047
706,824.1443877336652
707,824.1359919465456
708,824.1275250531792
709,824.1189782202521
710,824.110343564274
711,824.101614208241
712,824.0927843325597
713,824.083849219934
714,824.0748052939751
715,824.0656501513629
716,824.0563825874275
717,824.0470026150385
718,824.037511476715
719,824.0279116499269
720,824.018206845636
721,824.0084020001966
722,823.998503260805
723,823.9885179647484
724,823.9784546127543
725,823.9683228367759
726,823.9581333625728
727,823.9478979674606
728,823.9376294336026
729,823.9273414971947
730,823.9170487938646
731,823.9067668006057
732,823.8965117745832
733,823.8863006891846
734,823.8761511676804
735,823.8660814148243
736,823.8561101466595
737,823.8462565187606
738,823.8365400531286
739,823.8269805639776
740,823.8175980826871
741,823.8084127822249
742,823.7994449013687
743,823.7907146690648
744,823.7822422292469
745,823.774047566415
746,823.76615043224
747,823.7585702734356
748,823.751326161124
749,823.7444367219127
750,823.7379200708937
751,823.731793746766
752,823.7260746492791
753,823.720778979178
754,823.7159221808172
755,823.711518887574
756,823.707582870162
757,823.7041269879246
758,823.7011631431839
759,823.698702238716
760,823.6967541384314
761,823.6953276313692
762,823.6944303991497
763,823.6940689870538
764,823.6942487788973
765,823.6949739758409
766,823.6962475792468
767,823.6980713776686
768,823.7004459380454
769,823.7033706011646
770,823.7068434814321
771,823.7108614709416
772,823.715420247771
773,823.720514288375
774,823.7261368839153
775,823.7322801603856
776,823.7389351024235
777,823.7460915806981
778,823.7537383827101
779,823.7618632467663
780,823.7704528988271
781,823.7794930918845
782,823.7889686475036
783,823.7988634991408
784,823.8091607368633
785,823.8198426530977
786,823.8308907890429
787,823.8422859813766
788,823.854008408894
789,823.8660376387702
790,823.8783526722232
791,823.8909319894559
792,823.9037535938464
793,823.9167950554269
794,823.9300335537606
795,823.9434459203986
796,823.9570086811508
797,823.970698098458
798,823.9844902141749
799,823.9983608930826
800,824.01228586744
801,824.0262407828566
802,824.040201245731
803,824.0541428724661
804,824.0680413406268
805,824.0818724421599
806,824.0956121387125
807,824.1092366190032
808,824.122722358127
809,824.1360461786044
810,824.1491853129243
811,824.1621174672575
812,824.1748208859578
813,824.1872744164317
814,824.199457573941
815,824.2113506059019
816,824.2229345552338
817,824.2341913222949
818,824.2451037249028
819,824.2556555559042
820,824.2658316377522
821,824.275617873575
822,824.2850012942824
823,824.2939701013223
824,824.3025137047707
825,824.310622756504
826,824.3182891782791
827,824.3255061846309
828,824.3322683005764
829,824.3385713741594
830,824.3444125838719
831,824.3497904409841
832,824.3547047868158
833,824.3591567849986
834,824.3631489088016
835,824.3666849236057
836,824.3697698646356
837,824.3724100100669
838,824.3746128496412
839,824.3763870489304
840,824.3777424094102
841,824.3786898245379
842,824.3792412321042
843,824.3794095632022
844,824.3792086882247
845,824.3786533603127
846,824.3777591566708
847,824.3765424181612
848,824.3750201875895
849,824.3732101470822
850,824.3711305549241
851,824.3688001821788
852,824.3662382493795
853,824.3634643635559
854,824.3604984558558
855,824.3573607200424
856,824.354071552167
857,824.3506514917335
858,824.3471211646611
859,824.3435012283505
860,824.3398123191456
861,824.336075002453
862,824.332309725717
863,824.3285367743442
864,824.3247762305799
865,824.3210479352754
866,824.3173714524506
867,824.3137660365475
868,824.3102506022518
869,824.3068436967509
870,824.3035634742715
871,824.3004276727539
872,824.2974535925484
873,824.2946580770733
874,824.2920574954056
875,824.2896677267694
876,824.2875041468353
877,824.2855816156864
878,824.2839144672687
879,824.2825165001534
880,824.2814009694482
881,824.2805805796829
882,824.2800674784456
883,824.2798732504989
884,824.2800089120923
885,824.2804849052009
886,824.2813110914442
887,824.2824967454718
888,824.2840505476521
889,824.2859805759645
890,824.2882942970581
891,824.2909985564929
892,824.2940995682063
893,824.2976029032786
894,824.3015134780841
895,824.305835541931
896,824.3105726643199
897,824.3157277219909
898,824.3213028859765
899,824.3272996089236
900,824.3337186129675
901,824.3405598784275
902,824.3478226335465
903,824.3555053454397
904,824.3636057123622
905,824.3721206573817
906,824.3810463235619
907,824.3903780707981
908,824.4001104744827
909,824.4102373261765
910,824.4207516364477
911,824.4316456400219
912,824.442910803355
913,824.4545378347093
914,824.4665166967643
915,824.4788366217484
916,824.4914861290514
917,824.504453045259
918,824.5177245265394
