frame_number,force
0,859.5436250227624
1,859.538601258994
2,859.5319350951089
3,859.5236112837163
4,859.5136193280554
5,859.501953351347
6,859.4886119420785
7,859.4735979812141
8,859.4569184573255
9,859.4385842754797
10,859.4186100657143
11,859.3970139969167
12,859.3738176017729
13,859.3490456182981
14,859.3227258533657
15,859.2948890734158
16,859.2655689267145
17,859.2348018998016
18,859.2026273082865
19,859.1690873195155
20,859.1342270021473
21,859.0980943954119
22,859.06074058922
23,859.022219806051
24,858.9825894767536
25,858.9419103042848
26,858.9002463110123
27,858.8576648662593
28,858.8142366916479
29,858.7700358427687
30,858.7251396667205
31,858.6796287361241
32,858.6335867613121
33,858.5871004831707
34,858.5402595489527
35,858.4931563721921
36,858.4458859764034
37,858.398545821627
38,858.3512356134067
39,858.3040570948505
40,858.257113823146
41,858.2105109318351
42,858.16435487943
43,858.118753184125
44,858.0738141437981
45,858.0296465402645
46,857.9863593267855
47,857.9440612981896
48,857.9028607437023
49,857.8628650837369
50,857.8241804932981
51,857.7869115158667
52,857.7511606721737
53,857.717028067972
54,857.6846110039457
55,857.65400358948
56,857.62529636027
57,857.5985758978431
58,857.5739244476323
59,857.5514195321796
60,857.5311335576063
61,857.5131334136302
62,857.497480068704
63,857.4842281619618
64,857.473425593587
65,857.4651131159906
66,857.4593239300956
67,857.4560832936202
68,857.4554081506905
69,857.4573067934399
70,857.4617785661394
71,857.4688136212721
72,857.4783927353598
73,857.4904871905164
74,857.5050587257069
75,857.5220595595977
76,857.5414324850412
77,857.5631110338974
78,857.5870197100115
79,857.6130742873668
80,857.6411821693478
81,857.6712428037242
82,857.7031481468175
83,857.7367831697735
84,857.7720263998273
85,857.8087504895522
86,857.8468228073222
87,857.886106042785
88,857.926458821985
89,857.9677363275831
90,858.0097909203023
91,858.0524727583062
92,858.0956304117144
93,858.1391114701306
94,858.1827631420996
95,858.226432846376
96,858.2699687950901
97,858.3132205683277
98,858.3560396790825
99,858.3982801275073
100,858.4397989436446
101,858.4804567178194
102,858.5201181175019
103,858.5586523890311
104,858.5959338424428
105,858.6318423178807
106,858.6662636326525
107,858.6990900086555
108,858.7302204801283
109,858.7595612812191
110,858.7870262118507
111,858.8125369792149
112,858.8360235111297
113,858.857424236727
114,858.8766863297797
115,858.8937659103667
116,858.9086282012679
117,858.9212476366566
118,858.9316079224109
119,858.9397020492928
120,858.9455322618711
121,858.9491099873197
122,858.9504557290785
123,858.9495989306608
124,858.946577814604
125,858.9414392005565
126,858.9342383046572
127,858.9250385201871
128,858.9139111779571
129,858.900935284202
130,858.8861972329754
131,858.8697904887507
132,858.8518152338662
133,858.8323779755511
134,858.8115911086754
135,858.789572432593
136,858.7664446226314
137,858.7423346580966
138,858.7173732090122
139,858.6916939837719
140,858.6654330399734
141,858.6387280612774
142,858.6117176046367
143,858.5845403246185
144,858.5573341837865
145,858.5302356592492
146,858.5033789557087
147,858.4768952352789
148,858.4509118738533
149,858.4255517524184
150,858.4009325897163
151,858.3771663208133
152,858.3543585248298
153,858.3326079042132
154,858.312005817414
155,858.2926358665757
156,858.2745735416784
157,858.2578859222689
158,858.2426314376062
159,858.228859685984
160,858.2166113142213
161,858.2059179588501
162,858.1968022511288
163,858.1892778878348
164,858.1833497681694
165,858.1790141944145
166,858.1762591312688
167,858.1750645167659
168,858.175402616661
169,858.1772384141581
170,858.1805300274185
171,858.1852291476791
172,858.1912814907283
173,858.198627254598
174,858.207201577439
175,858.2169349918246
176,858.2277538747422
177,858.2395808956086
178,858.252335466876
179,858.265934202308
180,858.2802913867522
181,858.2953194592253
182,858.3109295093896
183,858.3270317861966
184,858.3435362161526
185,858.3603529271297
186,858.3773927722059
187,858.3945678470963
188,858.4117919945857
189,858.4289812898629
190,858.4460545014458
191,858.4629335230901
192,858.4795437725754
193,858.4958145538243
194,858.5116793797224
195,858.5270762540571
196,858.5419479116013
197,858.5562420151971
198,858.5699113079576
199,858.582913717907
200,858.5952124119334
201,858.606775795963
202,858.6175774588573
203,858.6275960587011
204,858.6368151517927
205,858.6452229664743
206,858.652812125543
207,858.6595793220689
208,858.6655249540454
209,858.6706527236605
210,858.6749692071164
211,858.6784834006152
212,858.6812062474671
213,858.683150150985
214,858.6843284785145
215,858.6847550633721
216,858.684443712629
217,858.6834077288423
218,858.6816594531693
219,858.6792098364272
220,858.6760680438249
221,858.6722410981041
222,858.6677335646635
223,858.662547281232
224,858.6566811339919
225,858.6501308816897
226,858.6428890291942
227,858.6349447523316
228,858.6262838766061
229,858.6168889130703
230,858.6067391546084
231,858.595810835233
232,858.5840773540617
233,858.5715095643639
234,858.5580761260995
235,858.543743917745
236,858.5284785005978
237,858.5122446267924
238,858.4950067810066
239,858.4767297451027
240,858.4573791746293
241,858.4369221761083
242,858.4153278742081
243,858.3925679582934
244,858.3686171986415
245,858.3434539239382
246,858.3170604532883
247,858.2894234774384
248,858.2605343849483
249,858.2303895296808
250,858.19899043628
251,858.1663439402143
252,858.1324622586982
253,858.0973629890156
254,858.0610690320525
255,858.0236084411573
256,857.9850141990783
257,857.9453239278694
258,857.9045795380368
259,857.862826824135
260,857.8201150148352
261,857.7764962861336
262,857.7320252464868
263,857.6867584020099
264,857.640753608675
265,857.5940695173015
266,857.5467650164597
267,857.4988986783906
268,857.4505282137379
269,857.4017099419907
270,857.3524982850942
271,857.3029452909417
272,857.2531001915291
273,857.2030089982993
274,857.1527141354004
275,857.1022541106549
276,857.051663224163
277,857.0009713154896
278,856.9502035516355
279,856.899380258717
280,856.8485168003127
281,856.7976235051896
282,856.7467056470426
283,856.6957634791504
284,856.6447923271623
285,856.5937827432072
286,856.5427207240862
287,856.4915879955686
288,856.4403623636002
289,856.3890181314755
290,856.3375265797686
291,856.2858565031719
292,856.2339747957224
293,856.1818470739572
294,856.129438326661
295,856.0767135794981
296,856.023638562472
297,855.970180368175
298,855.9163080896183
299,855.8619934277457
300,855.8072112599456
301,855.7519401619288
302,855.6961628764963
303,855.6398667241677
304,855.5830439525621
305,855.5256920237533
306,855.4678138409714
307,855.4094179172174
308,855.3505184883992
309,855.29113557301
310,855.2312949801293
311,855.1710282681638
312,855.1103726577297
313,855.0493709025503
314,854.988071122359
315,854.9265266024706
316,854.8647955661321
317,854.8029409270431
318,854.7410300295993
319,854.6791343833861
320,854.6173293968549
321,854.5556941136232
322,854.4943109538308
323,854.4332654623416
324,854.3726460648005
325,854.3125438312497
326,854.2530522452857
327,854.1942669749283
328,854.1362856399071
329,854.0792075695587
330,854.0231335464036
331,853.9681655325307
332,853.9144063783532
333,853.861959515356
334,853.8109286356648
335,853.7614173614478
336,853.7135289063527
337,853.6673657299431
338,853.623029185381
339,853.5806191609935
340,853.5402337176156
341,853.5019687248792
342,853.4659175001223
343,853.4321704530626
344,853.4008147380104
345,853.3719339136638
346,853.3456076091214
347,853.3219111943437
348,853.3009154542215
349,853.2826862673454
350,853.267284292707
351,853.2547646689857
352,853.245176731374
353,853.23856375043
354,853.2349626969507
355,853.2344040366548
356,853.2369115581996
357,853.2425022373934
358,853.2511861393402
359,853.2629663586662
360,853.2778389962625
361,853.2957931700421
362,853.3168110577094
363,853.3408679709474
364,853.3679324616303
365,853.397966461503
366,853.4309254579704
367,853.4667587103078
368,853.5054095116839
369,853.5468155020379
370,853.590909035334
371,853.637617602487
372,853.6868643082815
373,853.7385683970786
374,853.7926458188716
375,853.8490098249945
376,853.9075715814928
377,853.9682407876554
378,854.0309262874341
379,854.0955366624111
380,854.161980796599
381,854.230168405804
382,854.3000105271864
383,854.371419966813
384,854.4443117035293
385,854.5186032468223
386,854.5942149456015
387,854.671070244672
388,854.7490958861935
389,854.8282220544379
390,854.9083824632945
391,854.9895143865796
392,855.071558631087
393,855.1544594519988
394,855.2381644104299
395,855.322624173538
396,855.4077922583278
397,855.4936247207706
398,855.58007979264
399,855.6671174702111
400,855.7546990613852
401,855.8427866998906
402,855.9313428365731
403,856.0203297190494
404,856.1097088725346
405,856.1994405957344
406,856.2894834853129
407,856.3797940005948
408,856.4703260777177
409,856.5610308002829
410,856.65185613197
411,856.7427467153905
412,856.8336437401027
413,856.9244848809093
414,857.0152043056061
415,857.1057327497001
416,857.1959976542677
417,857.2859233619388
418,857.375431364982
419,857.4644405986928
420,857.5528677728324
421,857.6406277338285
422,857.7276338507457
423,857.8137984185464
424,857.8990330730138
425,857.9832492129017
426,858.0663584259466
427,858.1482729158371
428,858.2289059272969
429,858.3081721668148
430,858.3859882174384
431,858.4622729467999
432,858.5369479073536
433,858.6099377267203
434,858.6811704847
435,858.7505780723307
436,858.8180965275329
437,858.8836663418973
438,858.9472327344022
439,859.0087458897813
440,859.0681611611105
441,859.1254392377298
442,859.1805462808138
443,859.2334540295104
444,859.2841398804719
445,859.3325869430882
446,859.3787840721784
447,859.422725879647
448,859.4644127268148
449,859.5038506994727
450,859.5410515677405
451,859.5760327325992
452,859.6088171610353
453,859.639433312251
454,859.6679150577684
455,859.6943015978759
456,859.7186373757638
457,859.7409719894034
458,859.7613601001142
459,859.779861335797
460,859.7965401858635
461,859.8114658841304
462,859.8247122756794
463,859.8363576638509
464,859.846484633788
465,859.8551798490676
466,859.8625338179032
467,859.8686406251051
468,859.8735976254587
469,859.8775050939781
470,859.8804658293681
471,859.8825847091309
472,859.883968197159
473,859.8847238063341
474,859.8849595195709
475,859.8847831736437
476,859.8843018115074
477,859.883621010365
478,859.8828441938908
479,859.8820719375119
480,859.881401275453
481,859.8809250173994
482,859.880731081364
483,859.8809018480497
484,859.8815135410017
485,859.8826356362968
486,859.8843303054811
487,859.8866518958779
488,859.8896464530698
489,859.8933512912606
490,859.897794618179
491,859.9029952217569
492,859.9089622257567
493,859.915694920927
494,859.9231826773064
495,859.9314049418027
496,859.9403313230379
497,859.9499217627855
498,859.9601267906556
499,859.970887856738
500,859.9821377361275
501,859.993800999278
502,860.0057945421653
503,860.0180281698198
504,860.0304052262908
505,860.0428232642413
506,860.0551747485455
507,860.0673477900276
508,860.0792269070315
509,860.0906938134639
510,860.1016282323927
511,860.1119087343312
512,860.12141359905
513,860.1300216992165
514,860.137613403389
515,860.1440714947227
516,860.149282099978
517,860.1531356211163
518,860.1555276594446
519,860.1563599208237
520,860.1555410904554
521,860.15298766662
522,860.1486247432036
523,860.1423867306939
524,860.1342180055304
525,860.1240734790711
526,860.1119190796983
527,860.0977321439707
528,860.0815017147227
529,860.0632287453844
530,860.0429262104154
531,860.0206191218164
532,859.9963444515968
533,859.9701509602173
534,859.9420989317412
535,859.9122598176697
536,859.8807157926988
537,859.8475592266774
538,859.8128920781389
539,859.7768252158129
540,859.7394776749059
541,859.7009758546117
542,859.6614526630269
543,859.6210466160708
544,859.5799008980075
545,859.538162392178
546,859.4959806911601
547,859.4535070958095
548,859.4108936129054
549,859.3682919617238
550,859.3258526003162
551,859.2837237815243
552,859.2420506465247
553,859.200974360941
554,859.1606312965029
555,859.1211522602499
556,859.0826617729738
557,859.0452773987463
558,859.0091091282253
559,858.9742588199415
560,858.9408197052533
561,858.9088759632085
562,858.8785023709256
563,858.8497640336533
564,858.8227161968988
565,858.7974041412762
566,858.7738631594656
567,858.7521186142667
568,858.732186076904
569,858.7140715445979
570,858.6977717352883
571,858.6832744553377
572,858.6705590335223
573,858.6595968123777
574,858.6503516867737
575,858.6427806795065
576,858.6368345441164
577,858.6324583857447
578,858.6295922917643
579,858.6281719650889
580,858.6281293543525
581,858.6293932768127
582,858.6318900319891
583,858.6355440060511
584,858.640278267957
585,858.6460151581518
586,858.6526768697022
587,858.6601860204745
588,858.6684662136848
589,858.6774425833429
590,858.687042320986
591,858.6971951801238
592,858.707833954212
593,858.7188949227623
594,858.7303182593714
595,858.7420483959415
596,858.7540343390214
597,858.7662299362238
598,858.7785940923989
599,858.7910909363295
600,858.80368993907
601,858.816365984868
602,858.8290993953191
603,858.841875907136
604,858.8546866036651
605,858.8675278001735
606,858.8804008832715
607,858.8933121056289
608,858.9062723380423
609,858.9192967815058
610,858.9324046421184
611,858.945618771527
612,858.958965275387
613,858.9724730922707
614,858.986173545704
615,859.0000998724958
616,859.0142867309155
617,859.0287696922684
618,859.0435847191941
619,859.0587676339719
620,859.0743535801568
621,859.0903764807463
622,859.1068684959706
623,859.1238594840928
624,859.1413764693388
625,859.1594431219632
626,859.1780792562474
627,859.1973003526753
628,859.2171171105969
629,859.237535037564
630,859.2585540812878
631,859.2801683094309
632,859.3023656410431
633,859.3251276319468
634,859.3484293154814
635,859.3722390997319
636,859.3965187222332
637,859.4212232629828
638,859.4463012165663
639,859.4716946242221
640,859.4973392663572
641,859.5231649153297
642,859.5490956478677
643,859.5750502168112
644,859.6009424824583
645,859.6266819035694
646,859.6521740865953
647,859.6773213895772
648,859.7020235751731
649,859.7261785057456
650,859.7496828725214
651,859.77243295055
652,859.7943253712978
653,859.8152579047816
654,859.835130242848
655,859.853844774697
656,859.8713073455958
657,859.8874279903375
658,859.9021216341957
659,859.9153087552469
660,859.9269160024471
661,859.9368767639489
662,859.9451316804979
663,859.9516290996867
664,859.9563254680954
665,859.9591856593844
666,859.9601832368779
667,859.9593006491555
668,859.956529356969
669,859.9518698897492
670,859.9453318302545
671,859.9369337266322
672,859.9267029320755
673,859.9146753729732
674,859.9008952468332
675,859.8854146515707
676,859.8682931482056
677,859.8495972595623
678,859.8293999080519
679,859.8077797959801
680,859.7848207321947
681,859.7606109094553
682,859.7352421377867
683,859.7088090400753
684,859.6814082171717
685,859.6531373911331
686,859.624094537287
687,859.5943770179827
688,859.5640807319792
689,859.5332992927024
690,859.5021232467072
691,859.4706393417669
692,859.438929852559
693,859.4070719704735
694,859.3751372622085
695,859.3431911999405
696,859.3112927646939
697,859.2794941243038
698,859.2478403875597
699,859.2163694361983
700,859.185111836044
701,859.1540908275732
702,859.1233223947341
703,859.092815409543
704,859.0625718489973
705,859.0325870799746
706,859.0028502069594
707,858.9733444767812
708,858.9440477340394
709,858.9149329204537
710,858.885968610969
711,858.8571195789216
712,858.8283473820833
713,858.799610961372
714,858.7708672445839
715,858.7420717482452
716,858.7131791711938
717,858.6841439739355
718,858.6549209383845
719,858.6254657029989
720,858.595735268137
721,858.5656884658639
722,858.5352863879773
723,858.5044927660983
724,858.4732742985225
725,858.4416009202298
726,858.4094460148667
727,858.3767865702248
728,858.3436032812301
729,858.3098806061045
730,858.2756067817228
731,858.2407738036491
732,858.2053773760675
733,858.1694168375053
734,858.1328950693608
735,858.095818395054
736,858.0581964778121
737,858.0200422245509
738,857.9813717019111
739,857.9422040685641
740,857.902561526039
741,857.8624692887979
742,857.8219555730155
743,857.7810516023486
744,857.7397916278643
745,857.6982129583099
746,857.6563559962593
747,857.6142642756051
748,857.5719844963385
749,857.5295665532551
750,857.4870635558707
751,857.4445318372311
752,857.4020309492319
753,857.3596236414288
754,857.3173758194267
755,857.2753564783613
756,857.2336376069622
757,857.1922940577347
758,857.1514033785368
759,857.1110456005844
760,857.07130297828
761,857.0322596772802
762,856.9940014084544
763,856.956615006645
764,856.9201879547155
765,856.8848078554446
766,856.8505618559859
767,856.817536031339
768,856.785814734555
769,856.7554799225203
770,856.7266104673052
771,856.6992814643638
772,856.6735635504549
773,856.6495222455629
774,856.6272173334569
775,856.6067022941851
776,856.588023798985
777,856.5712212747006
778,856.5563265416661
779,856.5433635263599
780,856.5323480479037
781,856.5232876756813
782,856.5161816541358
783,856.5110208902906
784,856.5077879997086
785,856.5064574071102
786,856.5069954984431
787,856.5093608218551
788,856.513504335882
789,856.5193697039591
790,856.5268936345113
791,856.5360062649518
792,856.5466315861842
793,856.5586879023992
794,856.572088319944
795,856.5867412591443
796,856.6025509837799
797,856.6194181437598
798,856.6372403271821
799,856.6559126183405
800,856.6753281581971
801,856.6953787034132
802,856.7159551797727
803,856.7369482260606
804,856.7582487248736
805,856.7797483170486
806,856.8013398964387
807,856.8229180818968
808,856.8443796638755
809,856.8656240241507
810,856.8865535283384
811,856.907073891152
812,856.9270945134862
813,856.9465287893524
814,856.965294380647
815,856.9833134588882
816,857.0005129145435
817,857.0168245354631
818,857.0321851562114
819,857.0465367802757
820,857.0598266776066
821,857.072007460568
822,857.0830371417914
823,857.0928791773185
824,857.1015024977867
825,857.1088815297203
826,857.1149962085783
827,857.1198319847621
828,857.1233798230335
829,857.1256361950602
830,857.1266030645626
831,857.1262878646372
832,857.1247034667587
833,857.1218681404628
834,857.1178055019411
835,857.1125444488646
836,857.1061190776768
837,857.0985685784545
838,857.0899371017318
839,857.0802735921197
840,857.0696315852055
841,857.0580689661697
842,857.0456476897303
843,857.0324334612177
844,857.0184953786222
845,857.0039055360342
846,856.988738589908
847,856.9730712905891
848,856.9569819824206
849,856.940550076684
850,856.9238555026541
851,856.906978142939
852,856.8899972596752
853,856.8729909176342
854,856.8560354087351
855,856.8392046806267
856,856.8225697712081
857,856.8061982517082
858,856.790153682292
859,856.7744950848297
860,856.7592764372192
861,856.7445461934026
862,856.7303468338358
863,856.716714452434
864,856.7036783867976
865,856.691260898255
866,856.679476907586
867,856.6683337920083
868,856.6578312488348
869,856.6479612302765
870,856.6387079519212
871,856.6300479754021
872,856.621950364864
873,856.6143769170385
874,856.6072824647429
875,856.6006152523865
876,856.5943173800574
877,856.5883253115168
878,856.5825704419743
879,856.5769797232165
880,856.5714763447717
881,856.5659804691189
882,856.5604100166823
883,856.5546814936976
884,856.5487108540801
885,856.5424143854516
886,856.5357096091517
887,856.5285161839145
888,856.5207568026749
889,856.5123580718515
890,856.503251362808
891,856.4933736264226
892,856.4826681636897
893,856.4710853469667
894,856.458583286565
895,856.4451284359278
896,856.430696126888
897,856.4152710251973
898,856.3988474955015
899,856.3814298644921
900,856.3630325719389
901,856.3436802020669
902,856.3234073914748
903,856.3022586133585
904,856.2802878408477
905,856.2575580952318
906,856.2341408880593
907,856.2101155690256
908,856.185568593418
909,856.1605927233045
910,856.1352861760164
911,856.1097517325137
912,856.0840958174572
913,856.0584275622157
914,856.0328578613064
915,856.0074984319587
916,855.9824608859584
917,855.9578558226913
918,855.9337919519583
