frame_number,force
0,859.5773250532166
1,859.5590938352789
2,859.5384440485433
3,859.5155862651253
4,859.4907775538012
5,859.4643144885034
6,859.4365235855337
7,859.4077497616978
8,859.3783434147156
9,859.3486467166357
10,859.3189797294141
11,859.2896269739184
12,859.260825089547
13,859.2327522307413
14,859.2055198689127
15,859.1791676711443
16,859.1536620430572
17,859.1288986966042
18,859.1047092616328
19,859.0808715927934
20,859.0571230787126
21,859.033175947425
22,859.0087333488875
23,858.9835049900735
24,858.9572213156006
25,858.929645543833
26,858.9005831369166
27,858.8698884619264
28,858.8374685458833
29,858.8032839830296
30,858.767347211508
31,858.7297185365751
32,858.690500439879
33,858.6498308225172
34,858.6078757899548
35,858.564822383084
36,858.5208714142444
37,858.4762304466159
38,858.4311070122562
39,858.3857023024073
40,858.34020564816
41,858.294790069342
42,858.2496090281887
43,858.2047943641635
44,858.1604552687339
45,858.1166780907853
46,858.0735267375622
47,858.0310434590324
48,857.989249885938
49,857.9481483382306
50,857.9077236062279
51,857.867945562629
52,857.82877301526
53,857.7901591322029
54,857.7520585887768
55,857.7144363359575
56,857.6772775893133
57,857.6405983146093
58,857.6044552382316
59,857.5689543787969
60,857.5342573196584
61,857.5005847601462
62,857.4682170730565
63,857.4374916079029
64,857.408796466779
65,857.3825606059811
66,857.3592404233656
67,857.3393034138229
68,857.3232098780003
69,857.3113939064166
70,857.3042448814745
71,857.3020906072938
72,857.3051829765894
73,857.3136868540894
74,857.3276726027242
75,857.3471124168955
76,857.3718804034787
77,857.4017562092157
78,857.4364319214733
79,857.4755219089789
80,857.5185751648366
81,857.5650895668289
82,857.6145273481077
83,857.6663310386465
84,857.7199391773923
85,857.7748011515217
86,857.8303905887321
87,857.8862168438293
88,857.9418342709102
89,857.9968491114556
90,858.0509239410309
91,858.1037797074348
92,858.1551954655354
93,858.205006007772
94,858.2530977362071
95,858.2994032542011
96,858.3438951646275
97,858.3865794500048
98,858.4274886964541
99,858.4666753920388
100,858.5042055423365
101,858.5401528187306
102,858.5745933708581
103,858.6076013440984
104,858.639245095775
105,858.669584118437
106,858.6986667488421
107,858.7265288251857
108,858.7531934762035
109,858.77867213722
110,858.8029667205445
111,858.8260726774975
112,858.8479825103606
113,858.8686891655512
114,858.888188708886
115,858.9064817379694
116,858.9235730910291
117,858.939469588557
118,858.954175812681
119,858.9676882233356
120,858.9799881571082
121,858.9910344429795
122,859.0007564926715
123,859.0090487591988
124,859.015767398534
125,859.0207297977203
126,859.0237173273762
127,859.0244813162507
128,859.022751983515
129,859.0182499261512
130,859.010699605511
131,858.9998440386892
132,858.9854596944294
133,858.9673705643286
134,858.9454605527744
135,858.9196836268239
136,858.8900714569243
137,858.8567384341276
138,858.8198839545067
139,858.7797918071196
140,858.7368264700192
141,858.6914261664307
142,858.6440927289167
143,858.5953786563674
144,858.5458720712498
145,858.4961804428209
146,858.446913965409
147,858.3986694672326
148,858.3520156530325
149,858.3074802819873
150,858.2655395933558
151,858.2266100348819
152,858.1910421823936
153,858.1591166482277
154,858.1310417440257
155,858.1069526815392
156,858.0869121285207
157,858.0709119536208
158,858.0588760141079
159,858.0506638985416
160,858.0460756420083
161,858.0448575848595
162,858.0467097072113
163,858.0512948109499
164,858.0582497319136
165,858.0671984073759
166,858.0777662576202
167,858.0895950782005
168,858.1023575274635
169,858.1157703347668
170,858.1296054801791
171,858.143698688514
172,858.1579545969284
173,858.1723479951577
174,858.1869207297356
175,858.2017742338277
176,858.2170581255748
177,858.2329558065512
178,858.2496683468216
179,858.2673980282964
180,858.2863327278658
181,858.3066320114277
182,858.3284155414584
183,858.3517541969964
184,858.3766640969569
185,858.403103475684
186,858.4309721281255
187,858.460112989605
188,858.4903153781999
189,858.5213194878226
190,858.5528218216224
191,858.5844813398394
192,858.6159261441918
193,858.6467605733122
194,858.6765726851016
195,858.7049422192745
196,858.7314491765918
197,858.755683068115
198,858.77725271125
199,858.7957962594368
200,858.8109910113943
201,858.8225624776493
202,858.8302921963078
203,858.8340238924549
204,858.8336677508169
205,858.8292027747792
206,858.8206773753616
207,858.8082084258388
208,858.7919790379341
209,858.7722353036778
210,858.749282206874
211,858.7234788045291
212,858.6952326298019
213,858.6649931845502
214,858.6332444694153
215,858.6004967039586
216,858.5672775655212
217,858.5341233084505
218,858.5015700409427
219,858.4701453327609
220,858.4403602409787
221,858.4127017425152
222,858.3876254493381
223,858.3655484026715
224,858.3468417274233
225,858.3318229678757
226,858.3207480178124
227,858.3138027263393
228,858.3110944964344
229,858.3126444139575
230,858.3183805632856
231,858.3281332034592
232,858.3416324487483
233,858.3585090130457
234,858.3782983779053
235,858.400448435036
236,858.4243303393971
237,858.4492520828853
238,858.4744741704887
239,858.4992267198196
240,858.5227272936406
241,858.5441987979164
242,858.5628868134718
243,858.5780757808724
244,858.58910355822
245,858.5953740376893
246,858.5963677037366
247,858.5916501748862
248,858.5808788500003
249,858.56380778584
250,858.5402908750942
251,858.510283267744
252,858.473840819072
253,858.431117256507
254,858.3823588300252
255,858.3278964428921
256,858.2681355417398
257,858.2035442535638
258,858.134640352973
259,858.0619776751877
260,857.9861326117752
261,857.9076913299798
262,857.8272382897069
263,857.7453464566829
264,857.6625693622259
265,857.5794349324442
266,857.4964408705241
267,857.414051350429
268,857.3326948803755
269,857.2527633698517
270,857.1746125407658
271,857.0985637379872
272,857.0249069384456
273,856.9539044625545
274,856.8857946780098
275,856.8207949174757
276,856.7591029363088
277,856.7008964889615
278,856.6463308962007
279,856.5955346924591
280,856.5486035574208
281,856.5055928084738
282,856.4665088323709
283,856.4312999886453
284,856.399847677898
285,856.371958372274
286,856.3473574435619
287,856.3256856064593
288,856.3064986982058
289,856.2892713240157
290,856.2734046200836
291,856.2582380360102
292,856.2430646733814
293,856.2271494527762
294,856.2097492685957
295,856.1901342443242
296,856.1676091431199
297,856.1415339747966
298,856.1113429396078
299,856.0765610113915
300,856.0368175980543
301,855.991856817912
302,855.9415440378422
303,855.8858684652622
304,855.82494179956
305,855.7589932227634
306,855.6883612517976
307,855.6134830704311
308,855.5348818755399
309,855.4531525947207
310,855.3689462130683
311,855.2829529706441
312,855.1958847762022
313,855.1084571961801
314,855.0213713444557
315,854.9352960612846
316,854.8508509623996
317,854.7685911161094
318,854.6889941179228
319,854.6124501691338
320,854.5392555223875
321,854.469609437212
322,854.4036146499677
323,854.3412812870307
324,854.2825340565529
325,854.2272223829802
326,854.175132913136
327,854.1260035747607
328,854.0795381738862
329,854.0354204684888
330,853.9933268210075
331,853.9529368766696
332,853.9139421149212
333,853.8760524561229
334,853.8390013055152
335,853.8025494498082
336,853.766488096256
337,853.7306411469585
338,853.6948666789688
339,853.6590576466473
340,853.6231419984309
341,853.5870825751784
342,853.5508772099224
343,853.5145593373024
344,853.4781991776504
345,853.4419052606962
346,853.4058258035093
347,853.3701493648064
348,853.335104312979
349,853.3009569212306
350,853.2680082130864
351,853.2365898856461
352,853.2070596720695
353,853.1797964259924
354,853.1551951348088
355,853.1336620432648
356,853.1156100426206
357,853.1014544000359
358,853.0916087576998
359,853.0864811227565
360,853.0864693475758
361,853.0919555068206
362,853.1032987157329
363,853.1208262178179
364,853.144822828579
365,853.1755190273853
366,853.2130782552391
367,853.2575843173413
368,853.309030040094
369,853.3673083599011
370,853.4322068656735
371,853.5034065479587
372,853.5804851177163
373,853.6629247760022
374,853.7501238715582
375,853.8414115813869
376,853.9360645879825
377,854.0333246741013
378,854.1324162075382
379,854.2325626356868
380,854.3330013508561
381,854.4329966437341
382,854.5318508754042
383,854.6289142829323
384,854.7235938534053
385,854.8153615232001
386,854.9037617576566
387,854.9884184475487
388,855.0690410350295
389,855.1454298307381
390,855.2174805450036
391,855.2851880336477
392,855.348649121033
393,855.4080641964435
394,855.4637371891594
395,855.5160735208889
396,855.565575639684
397,855.6128357217488
398,855.6585251663001
399,855.7033807073152
400,855.7481872839852
401,855.793758091831
402,855.8409124190946
403,855.890452055636
404,855.9431373030717
405,855.9996638004613
406,856.0606413543042
407,856.1265757215249
408,856.1978539762036
409,856.2747338269588
410,856.3573370910506
411,856.4456474390922
412,856.5395124153272
413,856.6386495635379
414,856.7426562945483
415,856.8510229842012
416,856.9631486904378
417,857.0783587994538
418,857.1959238548769
419,857.3150787983224
420,857.4350418655935
421,857.5550324540226
422,857.674287389435
423,857.7920751570474
424,857.907707836634
425,858.0205507001709
426,858.1300296167593
427,858.2356364897861
428,858.336932958795
429,858.4335526426742
430,858.5252023163235
431,858.611662497201
432,858.6927878497822
433,858.7685076012352
434,858.8388259031399
435,858.9038218357151
436,858.9636485628084
437,859.0185310903054
438,859.068762214338
439,859.1146964888304
440,859.1567422759094
441,859.195352133286
442,859.2310119342344
443,859.2642291701751
444,859.2955208387483
445,859.3254012138849
446,859.3543696892092
447,859.3828988361611
448,859.4114228447577
449,859.4403265701101
450,859.4699354212709
451,859.5005063099969
452,859.532219907099
453,859.5651745566532
454,859.5993822825767
455,859.6347672898994
456,859.6711672195053
457,859.7083372408997
458,859.7459569197634
459,859.7836396681697
460,859.8209444545525
461,859.8573893439266
462,859.8924664019751
463,859.9256575207861
464,859.9564507533514
465,859.9843567446836
466,860.0089248144004
467,860.0297581654072
468,860.0465275714029
469,860.0589828154491
470,860.0669612347926
471,860.070392993788
472,860.0693030166531
473,860.063809706187
474,860.0541206477997
475,860.0405255692802
476,860.023386971274
477,860.0031290171706
478,859.9802253883377
479,859.9551868299862
480,859.9285490307946
481,859.9008613034167
482,859.8726762993904
483,859.8445407643699
484,859.8169871672604
485,859.7905259439158
486,859.7656380944591
487,859.742767950384
488,859.7223160578603
489,859.7046322979323
490,859.6900095568983
491,859.6786784036465
492,859.6708032822364
493,859.6664807074826
494,859.6657398779269
495,859.6685459732361
496,859.6748061590309
497,859.6843780010956
498,859.697079671559
499,859.7127011256117
500,859.7310154037244
501,859.7517893173449
502,859.7747928789487
503,859.799806869685
504,859.8266279526832
505,859.8550708529584
506,859.8849673932499
507,859.9161625310917
508,859.9485078601143
509,859.9818532565961
510,860.0160374841313
511,860.0508786334377
512,860.0861652779844
513,860.1216491824592
514,860.1570403127786
515,860.1920047370559
516,860.2261657450928
517,860.2591081584621
518,860.2903854345254
519,860.3195289245256
520,860.346058617046
521,860.369494791176
522,860.3893700264211
523,860.4052409296914
524,860.4166989005946
525,860.423379389784
526,860.4249693665143
527,860.4212129833123
528,860.4119156313383
529,860.3969466808257
530,860.3762411809995
531,860.3498006843489
532,860.3176932234178
533,860.2800523661023
534,860.2370752619996
535,860.1890196629737
536,860.1361999774743
537,860.0789824647919
538,860.0177797350048
539,859.9530447783568
540,859.8852647121387
541,859.8149542951529
542,859.7426491398307
543,859.6688985520094
544,859.5942580290548
545,859.5192815613229
546,859.4445139467466
547,859.3704833467855
548,859.2976943481269
549,859.2266218954932
550,859.1577065495844
551,859.091351439418
552,859.0279209726026
553,858.9677409907781
554,858.911099800973
555,858.8582494318063
556,858.8094064960334
557,858.7647521521894
558,858.7244308813612
559,858.6885481288576
560,858.6571671923085
561,858.6303059287211
562,858.607933860975
563,858.5899701456952
564,858.5762826942082
565,858.5666885726338
566,858.5609557121298
567,858.5588059934724
568,858.5599198893798
569,858.563942911854
570,858.5704940162454
571,858.5791758657772
572,858.589586533089
573,858.6013319236014
574,858.6140380676303
575,858.6273624543876
576,858.641003676667
577,858.6547087713121
578,858.6682777980783
579,858.6815653874949
580,858.6944791873364
581,858.7069753880188
582,858.7190518285876
583,858.7307394769517
584,858.7420932069307
585,858.7531827361254
586,858.7640844117917
587,858.7748742988198
588,858.7856227874189
589,858.7963907730514
590,858.8072273994758
591,858.8181693168351
592,858.8292412697723
593,858.8404575968216
594,858.8518240495576
595,858.8633393705283
596,858.8749962811452
597,858.8867817993817
598,858.8986770298377
599,858.9106566922193
600,858.922688662872
601,858.9347337319685
602,858.9467456869193
603,858.9586717473178
604,858.9704532924325
605,858.9820267609762
606,858.9933246113626
607,859.0042763107934
608,859.0148094165837
609,859.0248508637488
610,859.0343285581104
611,859.0431733112515
612,859.0513210799494
613,859.0587154248925
614,859.0653101038149
615,859.0710717536928
616,859.0759826427391
617,859.0800434392329
618,859.0832758811015
619,859.0857251964122
620,859.0874621088345
621,859.0885842238159
622,859.0892165599555
623,859.0895110264902
624,859.089644756385
625,859.0898173440983
626,859.0902471663641
627,859.0911670479028
628,859.0928195627864
629,859.0954522700149
630,859.0993131779603
631,859.1046466578085
632,859.1116898544967
633,859.1206694636327
634,859.1317986628566
635,859.1452740077663
636,859.1612721533689
637,859.1799463132751
638,859.2014224454985
639,859.225795242287
640,859.2531240397389
641,859.28342874527
642,859.3166859027423
643,859.3528251557282
644,859.3917265533329
645,859.4332191964228
646,859.4770815775893
647,859.523043721442
648,859.5707910001499
649,859.6199693341551
650,859.6701914101723
651,859.7210435613229
652,859.7720930201876
653,859.8228953052462
654,859.8730014843101
655,859.9219649989294
656,859.9693477178512
657,860.0147249792402
658,860.0576895531528
659,860.0978546044369
660,860.1348557794315
661,860.1683525077835
662,860.1980286074528
663,860.2235923587734
664,860.2447763300223
665,860.2613373117784
666,860.2730566969541
667,860.2797415376082
668,860.2812263717279
669,860.2773757916523
670,860.2680876543487
671,860.2532968256029
672,860.2329793711124
673,860.2071570968523
674,860.1759022809323
675,860.1393423692601
676,860.0976643638976
677,860.0511186094701
678,860.000021656047
679,859.9447578398605
680,859.8857791946716
681,859.823603320939
682,859.7588089126873
683,859.6920287465542
684,859.6239400569058
685,859.5552524095569
686,859.4866934971204
687,859.4189936252632
688,859.3528698481679
689,859.289010637539
690,859.2280617255033
691,859.1706135294903
692,859.1171904201242
693,859.0682419591183
694,859.0241360474856
695,858.9851537432014
696,858.9514854469784
697,858.9232282440976
698,858.9003843510459
699,858.8828607611875
700,858.8704702596638
701,858.8629339513186
702,858.8598853494085
703,858.8608759933796
704,858.8653825286765
705,858.8728151533575
706,858.8825273061876
707,858.8938264548123
708,858.9059858362049
709,858.9182569943564
710,858.9298829400699
711,858.9401117068903
712,858.9482100156749
713,858.953476754115
714,858.9552560502776
715,858.952949804259
716,858.9460295772673
717,858.9340477482243
718,858.9166478686794
719,858.8935741303045
720,858.864679744984
721,858.8299338530742
722,858.7894264066117
723,858.7433703876503
724,858.6921007543044
725,858.6360696747581
726,858.5758378906036
727,858.5120623843342
728,858.4454808317611
729,858.3768935045495
730,858.3071432825828
731,858.2370943018087
732,858.1676096839344
733,858.0995288749042
734,858.0336452811431
735,857.9706850179616
736,857.9112876286814
737,857.8559895725615
738,857.8052110972234
739,857.7592468559669
740,857.7182603929127
741,857.6822824427081
742,857.6512128584686
743,857.6248258659899
744,857.6027782366167
745,857.5846198835461
746,857.5698063480818
747,857.5577126892608
748,857.5476484138334
749,857.5388732334306
750,857.5306135673848
751,857.5220797923171
752,857.5124842379092
753,857.5010598256198
754,857.487079091698
755,857.4698732188845
756,857.4488506551226
757,857.4235148534939
758,857.3934805644896
759,857.3584880017199
760,857.3184141795568
761,857.2732807943419
762,857.2232581237205
763,857.1686645235136
764,857.1099612553372
765,857.0477426114303
766,856.9827215550116
767,856.9157112846615
768,856.8476032598893
769,856.7793423395935
770,856.7118998134181
771,856.6462452733998
772,856.5833184951612
773,856.5240027089859
774,856.4691007024464
775,856.4193150074043
776,856.3752330189519
777,856.3373174143054
778,856.3059018105782
779,856.281191256921
780,856.2632668884137
781,856.2520938763917
782,856.247531712198
783,856.2493458800501
784,856.2572200993893
785,856.2707684966405
786,856.2895472549149
787,856.3130654896156
788,856.340795324219
789,856.3721813528146
790,856.4066497785121
791,856.4436174469353
792,856.4825007879069
793,856.5227244537712
794,856.5637293295284
795,856.6049796413624
796,856.6459690408157
797,856.6862256881406
798,856.7253164602346
799,856.7628504615776
800,856.7984819936418
801,856.8319130481312
802,856.8628953162629
803,856.8912317030721
804,856.9167773545643
805,856.9394401879057
806,856.9591808668821
807,856.9760121287566
808,856.9899973949161
809,857.0012487099656
810,857.0099241756096
811,857.0162250323485
812,857.0203923542693
813,857.0227031073912
814,857.0234652685996
815,857.0230118421459
816,857.0216938061112
817,857.019872132544
818,857.0179090454708
819,857.0161586959788
820,857.0149574985026
821,857.0146144682773
822,857.015401969912
823,857.0175472801513
824,857.0212252862697
825,857.0265525555543
826,857.0335829705467
827,857.0423050836887
828,857.0526412564841
829,857.0644485644265
830,857.077521440741
831,857.0915960757467
832,857.1063566027577
833,857.1214430466075
834,857.1364609075679
835,857.1509921241404
836,857.1646069977896
837,857.1768764839386
838,857.187384137496
839,857.1957370546542
840,857.2015753868357
841,857.2045802779865
842,857.2044802214035
843,857.2010558201234
844,857.1941428916406
845,857.1836338930656
846,857.1694777415485
847,857.1516781983403
848,857.1302910567091
849,857.1054204529308
850,857.0772147119918
851,857.0458622120359
852,857.0115877498708
853,856.9746497483964
854,856.9353383477784
855,856.8939740861618
856,856.850906707744
857,856.8065137147576
858,856.7611984607646
859,856.7153876665611
860,856.66952819179
861,856.6240828564289
862,856.5795252143652
863,856.5363333997349
864,856.4949833221433
865,856.4559414902483
866,856.4196576957838
867,856.3865578130396
868,856.3570370204703
869,856.3314536932096
870,856.3101240103907
871,856.2933171128052
872,856.2812506178211
873,856.2740864474584
874,856.2719270489441
875,856.274812020723
876,856.282714971141
877,856.2955403701148
878,856.3131203634352
879,856.3352119041571
880,856.3614948446851
881,856.3915716359244
882,856.4249690278745
883,856.4611418432553
884,856.4994786687815
885,856.5393092219529
886,856.579913150392
887,856.6205300313973
888,856.6603703248031
889,856.6986270138608
890,856.7344877075892
891,856.7671471341872
892,856.7958202128311
893,856.819756084276
894,856.8382534079527
895,856.8506769043355
896,856.8564747337466
897,856.855195969694
898,856.8465071267373
899,856.8302064820235
900,856.8062349239165
901,856.7746823259553
902,856.7357888586375
903,856.6899410397747
904,856.6376626321127
905,856.579600799089
906,856.5165082744055
907,856.4492226132893
908,856.3786437480848
909,856.3057110166849
910,856.2313806280298
911,856.1566042901487
912,856.0823095357433
913,856.0093821332023
914,855.9386508214734
915,855.8708744636449
916,855.806731631318
917,855.7468126125502
