frame_number,force
0,859.5773250535858
1,859.559093835627
2,859.5384440488679
3,859.5155862654243
4,859.4907775540737
5,859.4643144887496
6,859.4365235857548
7,859.4077497618966
8,859.3783434148962
9,859.3486467168033
10,859.3189797295746
11,859.2896269740787
12,859.2608250897138
13,859.2327522309203
14,859.205519869108
15,859.179167671359
16,859.1536620432935
17,859.1288986968635
18,859.104709261916
19,859.0808715931004
20,859.0571230790417
21,859.0331759477735
22,859.0087333492518
23,858.9835049904489
24,858.9572213159825
25,858.9296455442169
26,858.9005831372983
27,858.8698884623022
28,858.8374685462501
29,858.8032839833842
30,858.767347211847
31,858.7297185368952
32,858.6905004401781
33,858.6498308227939
34,858.6078757902088
35,858.5648223833157
36,858.5208714144552
37,858.4762304468072
38,858.4311070124294
39,858.385702302563
40,858.3402056482993
41,858.2947900694662
42,858.2496090282995
43,858.204794364262
44,858.1604552688224
45,858.1166780908657
46,858.0735267376372
47,858.0310434591045
48,857.9892498860091
49,857.9481483383025
50,857.9077236063029
51,857.8679455627088
52,857.828773015346
53,857.7901591322959
54,857.752058588878
55,857.7144363360688
56,857.6772775894375
57,857.6405983147499
58,857.6044552383927
59,857.5689543789829
60,857.5342573198734
61,857.5005847603937
62,857.4682170733388
63,857.4374916082213
64,857.4087964671347
65,857.3825606063755
66,857.3592404238
67,857.3393034142982
68,857.323209878517
69,857.311393906975
70,857.304244882075
71,857.3020906079362
72,857.3051829772728
73,857.3136868548119
74,857.3276726034824
75,857.3471124176848
76,857.3718804042932
77,857.4017562100472
78,857.436431922313
79,857.4755219098176
80,857.5185751656654
81,857.5650895676383
82,857.6145273488889
83,857.6663310393915
84,857.719939178095
85,857.7748011521784
86,857.8303905893416
87,857.8862168443927
88,857.9418342714303
89,857.9968491119355
90,858.0509239414748
91,858.1037797078478
92,858.1551954659236
93,858.2050060081416
94,858.2530977365637
95,858.29940325455
96,858.3438951649731
97,858.3865794503515
98,858.4274886968063
99,858.4666753924007
100,858.5042055427111
101,858.5401528191194
102,858.5745933712603
103,858.6076013445119
104,858.6392450961962
105,858.6695841188606
106,858.698666749262
107,858.726528825595
108,858.7531934765955
109,858.7786721375888
110,858.8029667208855
111,858.8260726778068
112,858.8479825106358
113,858.8686891657914
114,858.888188709092
115,858.9064817381442
116,858.9235730911776
117,858.9394695886851
118,858.9541758127949
119,858.9676882234418
120,858.9799881572131
121,858.9910344430893
122,859.0007564927915
123,859.0090487593337
124,859.0157673986871
125,859.0207297978941
126,859.0237173275721
127,859.0244813164688
128,859.0227519837548
129,859.0182499264109
130,859.0106996057895
131,858.9998440389847
132,858.9854596947404
133,858.9673705646529
134,858.9454605531099
135,858.9196836271685
136,858.890071457277
137,858.8567384344885
138,858.8198839548762
139,858.7797918074983
140,858.736826470408
141,858.6914261668309
142,858.64409272933
143,858.5953786567952
144,858.5458720716925
145,858.496180443278
146,858.4469139658789
147,858.3986694677127
148,858.3520156535196
149,858.3074802824785
150,858.2655395938481
151,858.2266100353721
152,858.1910421828791
153,858.1591166487067
154,858.1310417444967
155,858.1069526820013
156,858.0869121289744
157,858.0709119540675
158,858.0588760145497
159,858.0506638989809
160,858.0460756424478
161,858.0448575853014
162,858.046709707657
163,858.0512948114003
164,858.0582497323696
165,858.067198407837
166,858.077766258085
167,858.0895950786671
168,858.1023575279297
169,858.1157703352311
170,858.1296054806401
171,858.1436986889711
172,858.1579545973817
173,858.1723479956079
174,858.1869207301837
175,858.2017742342742
176,858.2170581260194
177,858.2329558069924
178,858.2496683472579
179,858.2673980287262
180,858.2863327282877
181,858.3066320118406
182,858.3284155418621
183,858.351754197391
184,858.3766640973428
185,858.4031034760616
186,858.4309721284956
187,858.460112989968
188,858.4903153785561
189,858.5213194881728
190,858.5528218219679
191,858.5844813401817
192,858.6159261445323
193,858.6467605736523
194,858.6765726854429
195,858.7049422196178
196,858.7314491769375
197,858.7556830684628
198,858.7772527115989
199,858.7957962597861
200,858.8109910117436
201,858.8225624779975
202,858.8302921966537
203,858.8340238927972
204,858.8336677511544
205,858.8292027751113
206,858.8206773756881
207,858.8082084261599
208,858.7919790382512
209,858.7722353039927
210,858.7492822071891
211,858.7234788048474
212,858.6952326301268
213,858.6649931848848
214,858.6332444697618
215,858.6004967043185
216,858.5672775658963
217,858.5341233088432
218,858.5015700413549
219,858.4701453331941
220,858.4403602414329
221,858.4127017429897
222,858.3876254498317
223,858.3655484031829
224,858.3468417279511
225,858.3318229684185
226,858.3207480183687
227,858.3138027269073
228,858.3110944970118
229,858.3126444145422
230,858.3183805638748
231,858.3281332040501
232,858.3416324493378
233,858.3585090136307
234,858.3782983784829
235,858.4004484356036
236,858.4243303399528
237,858.4492520834272
238,858.4744741710157
239,858.4992267203313
240,858.5227272941372
241,858.5441987983991
242,858.5628868139427
243,858.5780757813343
244,858.5891035586761
245,858.5953740381425
246,858.5963677041893
247,858.5916501753406
248,858.5808788504578
249,858.5638077863013
250,858.5402908755594
251,858.5102832682132
252,858.4738408195458
253,858.4311172569854
254,858.3823588305082
255,858.32789644338
256,858.2681355422322
257,858.20354425406
258,858.1346403534714
259,858.0619776756866
260,857.9861326122729
261,857.9076913304735
262,857.8272382901943
263,857.745346457162
264,857.6625693626945
265,857.5794349329001
266,857.4964408709646
267,857.4140513508515
268,857.3326948807777
269,857.2527633702305
270,857.1746125411178
271,857.098563738309
272,857.024906938734
273,856.9539044628067
274,856.885794678224
275,856.8207949176516
276,856.7591029364471
277,856.7008964890647
278,856.6463308962725
279,856.5955346925037
280,856.5486035574432
281,856.5055928084794
282,856.4665088323654
283,856.4312999886345
284,856.3998476778877
285,856.3719583722702
286,856.3473574435717
287,856.325685606489
288,856.3064986982611
289,856.2892713241009
290,856.2734046202022
291,856.2582380361641
292,856.2430646735716
293,856.2271494530027
294,856.2097492688579
295,856.1901342446209
296,856.1676091434501
297,856.1415339751594
298,856.1113429400014
299,856.0765610118134
300,856.0368175985011
301,855.99185681838
302,855.9415440383282
303,855.8858684657637
304,855.8249418000752
305,855.7589932232904
306,855.6883612523347
307,855.6134830709773
308,855.5348818760947
309,855.4531525952838
310,855.3689462136392
311,855.2829529712224
312,855.1958847767866
313,855.1084571967693
314,855.0213713450487
315,854.9352960618801
316,854.8508509629962
317,854.7685911167057
318,854.6889941185167
319,854.6124501697225
320,854.5392555229679
321,854.4696094377808
322,854.4036146505225
323,854.3412812875696
324,854.2825340570738
325,854.2272223834818
326,854.1751329136175
327,854.1260035752218
328,854.0795381743277
329,854.0354204689122
330,853.9933268214148
331,853.9529368770627
332,853.9139421153016
333,853.8760524564925
334,853.8390013058763
335,853.8025494501636
336,853.7664880966087
337,853.730641147312
338,853.6948666793269
339,853.6590576470132
340,853.6231419988076
341,853.5870825755688
342,853.5508772103291
343,853.5145593377272
344,853.4781991780949
345,853.4419052611614
346,853.4058258039956
347,853.3701493653134
348,853.3351043135061
349,853.3009569217771
350,853.2680082136513
351,853.2365898862283
352,853.2070596726672
353,853.1797964266038
354,853.1551951354313
355,853.1336620438949
356,853.1156100432542
357,853.1014544006687
358,853.0916087583277
359,853.0864811233763
360,853.0864693481844
361,853.0919555074155
362,853.1032987163118
363,853.1208262183782
364,853.1448228291177
365,853.1755190278994
366,853.2130782557256
367,853.2575843177981
368,853.3090300405203
369,853.3673083602974
370,853.4322068660413
371,853.5034065482998
372,853.580485118034
373,853.6629247763008
374,853.7501238718424
375,853.8414115816619
376,853.9360645882534
377,854.0333246743722
378,854.1324162078129
379,854.2325626359685
380,854.3330013511472
381,854.4329966440366
382,854.5318508757192
383,854.6289142832596
384,854.7235938537433
385,854.8153615235465
386,854.9037617580088
387,854.9884184479034
388,855.0690410353832
389,855.1454298310872
390,855.2174805453445
391,855.2851880339773
392,855.3486491213481
393,855.4080641967413
394,855.4637371894369
395,855.5160735211439
396,855.5655756399148
397,855.6128357219542
398,855.6585251664807
399,855.7033807074735
400,855.748187284126
401,855.7937580919605
402,855.8409124192203
403,855.8904520557667
404,855.9431373032162
405,855.9996638006284
406,856.0606413545022
407,856.1265757217618
408,856.1978539764867
409,856.2747338272948
410,856.3573370914448
411,856.4456474395489
412,856.5395124158489
413,856.6386495641266
414,856.742656295205
415,856.8510229849267
416,856.9631486912318
417,857.0783588003155
418,857.1959238558046
419,857.3150787993134
420,857.4350418666442
421,857.5550324551284
422,857.6742873905906
423,857.7920751582475
424,857.9077078378727
425,858.0205507014422
426,858.1300296180564
427,858.235636491102
428,858.336932960123
429,858.4335526440076
430,858.5252023176566
431,858.6116624985282
432,858.6927878510988
433,858.7685076025369
434,858.8388259044225
435,858.9038218369735
436,858.9636485640362
437,859.018531091496
438,859.0687622154853
439,859.1146964899286
440,859.1567422769537
441,859.1953521342721
442,859.2310119351599
443,859.2642291710391
444,859.2955208395513
445,859.3254012146296
446,859.3543696898996
447,859.3828988368028
448,859.4114228453561
449,859.4403265706702
450,859.4699354217972
451,859.500506310493
452,859.5322199075675
453,859.5651745570965
454,859.5993822829973
455,859.6347672902999
456,859.6711672198882
457,859.7083372412668
458,859.745956920116
459,859.7836396685093
460,859.8209444548814
461,859.8573893442481
462,859.8924664022933
463,859.9256575211053
464,859.9564507536762
465,859.9843567450175
466,860.0089248147451
467,860.0297581657638
468,860.0465275717718
469,860.05898281583
470,860.0669612351844
471,860.0703929941891
472,860.0693030170622
473,860.0638097066036
474,860.0541206482228
475,860.0405255697095
476,860.0233869717086
477,860.0031290176084
478,859.9802253887756
479,859.9551868304203
480,859.9285490312196
481,859.9008613038267
482,859.8726762997795
483,859.8445407647341
484,859.8169871675972
485,859.7905259442242
486,859.7656380947402
487,859.7427679506397
488,859.7223160580932
489,859.7046322981444
490,859.6900095570919
491,859.6786784038238
492,859.6708032823997
493,859.6664807076335
494,859.6657398780666
495,859.6685459733654
496,859.6748061591505
497,859.6843780012051
498,859.6970796716573
499,859.7127011256978
500,859.7310154037962
501,859.7517893173999
502,859.7747928789845
503,859.7998068696992
504,859.8266279526738
505,859.8550708529235
506,859.8849673931887
507,859.9161625310047
508,859.9485078600034
509,859.9818532564638
510,860.0160374839814
511,860.050878633275
512,860.0861652778149
513,860.1216491822898
514,860.1570403126157
515,860.1920047369051
516,860.2261657449588
517,860.2591081583488
518,860.2903854344353
519,860.31952892446
520,860.3460586170056
521,860.369494791161
522,860.3893700264305
523,860.4052409297237
524,860.4166989006486
525,860.4233793898591
526,860.42496936661
527,860.421212983428
528,860.4119156314731
529,860.396946680979
530,860.3762411811704
531,860.3498006845368
532,860.3176932236219
533,860.2800523663207
534,860.2370752622297
535,860.1890196632125
536,860.1361999777196
537,860.0789824650415
538,860.0177797352574
539,859.9530447786121
540,859.8852647123972
541,859.8149542954155
542,859.7426491400986
543,859.6688985522835
544,859.5942580293363
545,859.5192815616125
546,859.4445139470446
547,859.3704833470912
548,859.2976943484385
549,859.2266218958077
550,859.1577065498979
551,859.0913514397262
552,859.027920972902
553,858.9677409910653
554,858.911099801245
555,858.85824943206
556,858.809406496266
557,858.7647521523978
558,858.7244308815426
559,858.6885481290108
560,858.6571671924327
561,858.6303059288167
562,858.6079338610438
563,858.58997014574
564,858.576282694233
565,858.5666885726432
566,858.5609557121288
567,858.5588059934659
568,858.5599198893725
569,858.5639429118513
570,858.5704940162526
571,858.5791758657994
572,858.5895865331312
573,858.6013319236687
574,858.6140380677275
575,858.6273624545189
576,858.6410036768355
577,858.65470877152
578,858.6682777983273
579,858.6815653877868
580,858.6944791876725
581,858.7069753883993
582,858.719051829012
583,858.7307394774197
584,858.7420932074416
585,858.7531827366778
586,858.7640844123831
587,858.7748742994473
588,858.7856227880794
589,858.796390773741
590,858.8072274001896
591,858.8181693175671
592,858.8292412705155
593,858.8404575975694
594,858.8518240503037
595,858.863339371266
596,858.8749962818683
597,858.8867818000848
598,858.898677030517
599,858.9106566928717
600,858.9226886634956
601,858.9347337325619
602,858.9467456874818
603,858.9586717478493
604,858.9704532929331
605,858.982026761447
606,858.9933246118046
607,859.0042763112085
608,859.0148094169747
609,859.0248508641196
610,859.0343285584653
611,859.0431733115943
612,859.0513210802824
613,859.0587154252174
614,859.0653101041325
615,859.0710717540035
616,859.0759826430435
617,859.0800434395318
618,859.0832758813957
619,859.0857251967028
620,859.087462109123
621,859.088584224104
622,859.0892165602444
623,859.0895110267805
624,859.089644756677
625,859.0898173443917
626,859.0902471666593
627,859.0911670482011
628,859.0928195630894
629,859.0954522703231
630,859.0993131782733
631,859.1046466581247
632,859.1116898548134
633,859.1206694639471
634,859.1317986631651
635,859.1452740080654
636,859.1612721536552
637,859.1799463135454
638,859.2014224457503
639,859.225795242518
640,859.2531240399479
641,859.2834287454576
642,859.3166859029105
643,859.3528251558804
644,859.3917265534731
645,859.4332191965555
646,859.4770815777194
647,859.5230437215741
648,859.5707910002874
649,859.6199693343005
650,859.6701914103271
651,859.7210435614863
652,859.7720930203579
653,859.8228953054212
654,859.8730014844864
655,859.9219649991035
656,859.9693477180195
657,860.0147249794002
658,860.0576895533034
659,860.0978546045782
660,860.1348557795641
661,860.1683525079073
662,860.1980286075678
663,860.2235923588786
664,860.2447763301155
665,860.2613373118578
666,860.2730566970176
667,860.2797415376534
668,860.281226371752
669,860.2773757916524
670,860.2680876543222
671,860.2532968255471
672,860.2329793710247
673,860.2071570967302
674,860.1759022807738
675,860.1393423690644
676,860.0976643636651
677,860.0511186092025
678,860.0000216557471
679,859.9447578395323
680,859.8857791943201
681,859.8236033205696
682,859.7588089123068
683,859.6920287461703
684,859.6239400565266
685,859.5552524091906
686,859.4866934967746
687,859.4189936249447
688,859.3528698478824
689,859.2890106372909
690,859.2280617252957
691,859.1706135293252
692,859.1171904200021
693,859.0682419590388
694,859.0241360474487
695,858.9851537432066
696,858.9514854470256
697,858.9232282441861
698,858.9003843511753
699,858.882860761357
700,858.8704702598724
701,858.8629339515643
702,858.8598853496884
703,858.8608759936905
704,858.8653825290146
705,858.8728151537193
706,858.8825273065694
707,858.8938264552096
708,858.9059858366138
709,858.9182569947733
710,858.9298829404913
711,858.9401117073121
712,858.9482100160924
713,858.9534767545233
714,858.9552560506714
715,858.9529498046328
716,858.9460295776167
717,858.9340477485463
718,858.9166478689721
719,858.8935741305679
720,858.8646797452204
721,858.8299338532878
722,858.7894264068084
723,858.7433703878371
724,858.6921007544887
725,858.6360696749476
726,858.5758378908054
727,858.512062384554
728,858.4454808320038
729,858.3768935048184
730,858.3071432828802
731,858.237094302135
732,858.1676096842889
733,858.0995288752857
734,858.0336452815498
735,857.9706850183906
736,857.9112876291291
737,857.8559895730235
738,857.8052110976946
739,857.7592468564416
740,857.7182603933854
741,857.6822824431742
742,857.6512128589244
743,857.6248258664327
744,857.6027782370452
745,857.5846198839605
746,857.5698063484836
747,857.5577126896525
748,857.5476484142182
749,857.538873233813
750,857.5306135677694
751,857.5220797927084
752,857.5124842383113
753,857.5010598260366
754,857.487079092133
755,857.4698732193402
756,857.4488506556013
757,857.4235148539962
758,857.3934805650142
759,857.3584880022648
760,857.3184141801189
761,857.2732807949169
762,857.2232581243034
763,857.168664524099
764,857.1099612559198
765,857.0477426120057
766,856.9827215555762
767,856.9157112852122
768,856.8476032604232
769,856.7793423401082
770,856.7118998139118
771,856.6462452738708
772,856.5833184956073
773,856.5240027094044
774,856.4691007028337
775,856.4193150077563
776,856.3752330192656
777,856.3373174145786
778,856.3059018108104
779,856.281191257113
780,856.2632668885685
781,856.2520938765147
782,856.247531712296
783,856.2493458801307
784,856.2572200994603
785,856.2707684967096
786,856.2895472549897
787,856.3130654897034
788,856.3407953243271
789,856.3721813529507
790,856.4066497786839
791,856.4436174471498
792,856.4825007881705
793,856.5227244540893
794,856.5637293299062
795,856.6049796418042
796,856.6459690413242
797,856.6862256887171
798,856.7253164608786
799,856.762850462287
800,856.7984819944129
801,856.831913048959
802,856.8628953171415
803,856.8912317039952
804,856.9167773555245
805,856.9394401888951
806,856.9591808678932
807,856.9760121297819
808,856.9899973959475
809,857.0012487109939
810,857.0099241766246
811,857.0162250333394
812,857.0203923552256
813,857.0227031083023
814,857.0234652694559
815,857.02301184294
816,857.0216938068378
817,857.0198721332
818,857.0179090460548
819,857.0161586964912
820,857.0149574989451
821,857.0146144686538
822,857.0154019702273
823,857.0175472804112
824,857.0212252864802
825,857.026552555721
826,857.033582970674
827,857.0423050837802
828,857.0526412565426
829,857.0644485644548
830,857.0775214407417
831,857.0915960757228
832,857.1063566027123
833,857.1214430465438
834,857.1364609074891
835,857.1509921240495
836,857.1646069976898
837,857.1768764838337
838,857.1873841373898
839,857.1957370545508
840,857.2015753867396
841,857.2045802779014
842,857.2044802213333
843,857.2010558200724
844,857.1941428916135
845,857.1836338930672
846,857.1694777415822
847,857.1516781984092
848,857.1302910568152
849,857.1054204530756
850,857.0772147121762
851,857.0458622122607
852,857.0115877501363
853,856.9746497487022
854,856.9353383481235
855,856.8939740865454
856,856.8509067081649
857,856.8065137152136
858,856.7611984612529
859,856.7153876670789
860,856.669528192334
861,856.624082856996
862,856.5795252149517
863,856.5363334003373
864,856.4949833227582
865,856.4559414908724
866,856.419657696414
867,856.3865578136724
868,856.3570370211023
869,856.3314536938373
870,856.3101240110102
871,856.2933171134125
872,856.2812506184118
873,856.2740864480281
874,856.2719270494875
875,856.2748120212353
876,856.2827149716177
877,856.2955403705513
878,856.3131203638277
879,856.3352119045026
880,856.3614948449816
881,856.3915716361707
882,856.4249690280698
883,856.461141843399
884,856.4994786688735
885,856.5393092219929
886,856.57991315038
887,856.6205300313338
888,856.6603703246897
889,856.6986270137005
890,856.7344877073864
891,856.7671471339471
892,856.7958202125601
893,856.8197560839815
894,856.8382534076421
895,856.8506769040159
896,856.8564747334243
897,856.8551959693746
898,856.8465071264252
899,856.8302064817225
900,856.8062349236292
901,856.7746823256832
902,856.735788858381
903,856.6899410395338
904,856.637662631887
905,856.5796007988788
906,856.5165082742118
907,856.4492226131138
908,856.3786437479299
909,856.3057110165536
910,856.2313806279248
911,856.1566042900723
912,856.0823095356978
913,856.0093821331897
914,855.9386508214949
915,855.870874463701
916,855.8067316314086
917,855.746812612673
