acceleration,velocity,displacement
0.02326221374250606,0.0,0.0
0.02305365502273525,1.1578967191310328e-05,2.894741797827582e-09
0.02281742872672827,2.304673812867621e-05,1.1551168127824216e-08
0.02255594372541093,3.4390081241711005e-05,2.591037297042102e-08
0.022272140795151062,4.5597102371851506e-05,4.5907168873811645e-08
0.02196941263740643,5.665749072999088e-05,7.147081714927224e-08
0.021651494483805506,6.756271751029387e-05,1.0252586920934343e-07
0.02132233206127104,7.8306174146563e-05,1.3899309212355764e-07
0.020985933796453343,8.88832406109941e-05,1.8079044581294693e-07
0.020646214017219208,9.929127756441223e-05,2.278340753567985e-07
0.020306834119751753,0.00010952953959865497,2.800392796475653e-07
0.019971048922687744,0.00011959901035926484,3.373214171370453e-07
0.019641565497497744,0.0001295021639643112,3.995967107179393e-07
0.019320421868321103,0.00013924266080576593,4.6678291691045855e-07
0.01900889322888917,0.0001488249895800685,5.387998295069172e-07
0.018707433356679872,0.00015825407122646077,6.155695947085495e-07
0.018415657943815004,0.00016753484405158448,6.970168235280609e-07
0.01813237397172174,0.00017667185203046868,7.830684975485741e-07
0.017855655345085996,0.0001856688593596706,8.73653675396109e-07
0.01758296079925474,0.0001945285133957558,9.687030185849657e-07
0.017311286152498696,0.00020325207513369417,1.0681481657173282e-06
0.01703733939476683,0.00021183923152051054,1.1719209923808795e-06
0.016757724665993918,0.00022028799753570072,1.2799527996449322e-06
0.016469121116074136,0.00022859470898121774,1.3921734762741618e-06
0.016168445126259486,0.00023675410054180114,1.5085106786549166e-06
0.015852987997931493,0.0002447594588228489,1.6288890684960792e-06
0.015520524286474416,0.0002526028368939504,1.7532296424252789e-06
0.015169388002457982,0.0002602753149661835,1.8814491803903124e-06
0.014798515567707253,0.0002677672908587248,2.0134598318465395e-06
0.014407456194215565,0.0002750687837992055,2.149168850511022e-06
0.0139963521699609,0.0002821697358902496,2.288478480433386e-06
0.013565893365864667,0.00028906029727420596,2.4312859887245002e-06
0.013117252135928827,0.00029573108364965435,2.5774838339554654e-06
0.012652006020198172,0.0003021733981886861,2.7269599544150505e-06
0.01217205520676096,0.0003083794134954259,2.8795981573360784e-06
0.011679539377623845,0.0003143423121415221,3.0352785887453155e-06
0.01117675575531187,0.00032005638592475606,3.1938782632618853e-06
0.010666078789584055,0.00032551709456098,3.3552716333833195e-06
0.010149882574175987,0.00033072108490192004,3.5193311782490443e-06
0.009630468666117994,0.00033566617271199356,3.685927992652523e-06
0.009110002946488359,0.00034035129061514514,3.854932358484307e-06
0.00859046470124772,0.0003447764075270792,4.026214283019863e-06
0.008073609484386252,0.00034894242607348767,4.199643991420004e-06
0.007560945492983658,0.00035285106481783014,4.375092364142834e-06
0.007053721839018543,0.0003565047316508307,4.5524313132599995e-06
0.0065529263233620495,0.0003599063936914258,4.731534094595564e-06
0.006059290022411825,0.0003630594477778693,4.912275554962888e-06
0.00557329626093413,0.0003659675943487058,5.094532315494531e-06
0.005095192487011012,0.0003686347165356921,5.278182893215631e-06
0.00462500524007255,0.000371064765967463,5.46310776384142e-06
0.004162560526704196,0.00037326165740915717,5.649189369685576e-06
0.003707513701179623,0.00037522917596612815,5.836312078029397e-06
0.0032593935395232674,0.00037697090277630387,6.0243620977150046e-06
0.0028176643010654665,0.0003784901672364511,6.213227365218193e-06
0.002381807487401705,0.0003797900351835679,6.402797415823198e-06
0.0019514221500263535,0.0003808733425929249,6.5929632602673214e-06
0.0015263391602397464,0.0003817427829204914,6.783617291645675e-06
0.0011067411607781524,0.0003824010530007459,6.974653250625984e-06
0.0006932770815445315,0.0003828510575613266,7.165966278266502e-06
0.0002871597382176103,0.0003830961667662671,7.357453084348401e-06
-0.00010976241248377658,0.00038314051609770057,7.5490122550643924e-06
-0.0004949646478622513,0.0003829893343326141,7.740544717671972e-06
-0.0008652396017600802,0.0003826492832702085,7.931954372072677e-06
-0.001216728114415081,0.0003821287913411647,8.12314889072552e-06
-0.0015449904344035125,0.0003814383617039601,8.314040678986801e-06
-0.001845119452596256,0.00038059083423221015,8.504547977970844e-06
-0.0021118941380692353,0.0003796015808345438,8.694596081737533e-06
-0.0023399665137323004,0.0003784886156715934,8.884118630864067e-06
-0.00252407090210746,0.00037727260631763347,9.073058936361374e-06
-0.002659241460364646,0.00037597677822701547,9.261371282497536e-06
-0.002741023790795628,0.0003746267119142254,9.449022155032846e-06
-0.0027656679295843486,0.0003732500389841304,9.635991342757435e-06
-0.002730292312686419,0.0003718760489235627,9.822272864734358e-06
-0.0026330109456083003,0.00037053522310898904,1.0007875682742496e-05
-0.0024730189011775614,0.0003692587156472926,1.0192824167431565e-05
-0.002250634265658272,0.00036807780235558363,1.0377158296932285e-05
-0.0019672972121076784,0.00036702331948614214,1.0560933577392717e-05
-0.0016255285042831781,0.00036612511305704443,1.0744220685528514e-05
-0.0012288505543896434,0.00036541151829237625,1.0927104843365869e-05
-0.0007816748485269327,0.00036490888694164713,1.1109684944674375e-05
-0.0002891607469261984,0.0003646411780427838,1.1292072460920483e-05
0.00024294764887946278,0.00036462962476827216,1.1474390161623247e-05
0.0008084984753279247,0.000364892486299324,1.1656770689390146e-05
0.0014011144714235623,0.0003654448895360119,1.183935503334898e-05
0.0020143727202333195,0.0003662987613339261,1.2022290946066465e-05
0.002641974404752345,0.00036746284811517253,1.220573134842874e-05
0.0032778980110091094,0.0003689428162191129,1.2389832764512311e-05
0.00391653073058151,0.00037074142340451057,1.2574753824418216e-05
0.004552774531110951,0.0003728587497199337,1.2760653867699327e-05
0.005182124953653039,0.0003752924745911247,1.2947691673777091e-05
0.0058007219813771185,0.00037803818632488226,1.3136024339006092e-05
0.006405373355267089,0.0003810897101590433,1.3325806313127074e-05
0.006993551540737496,0.00038443944138304446,1.3517188601012596e-05
0.007563366621412332,0.0003880786709235819,1.3710318129089252e-05
0.00811351907684764,0.0003919978923481469,1.3905337269907184e-05
0.008643237913195798,0.0003961870815956578,1.4102383513393135e-05
0.009152209716966503,0.00040063594350319836,1.4301589269667849e-05
0.009640502926067841,0.00040533412166395694,1.4503081785959637e-05
0.010108490314262688,0.00041027136997403955,1.4706983158869135e-05
0.010556772326530333,0.0004154376856342378,1.4913410422771204e-05
0.010986104043459446,0.00042082340472673527,1.5122475695361447e-05
0.011397328239759169,0.00042641926279753995,1.5334286362242515e-05
0.01179131604049036,0.00043221642386760234,1.55489452839088e-05
0.012168915642708477,0.00043820648178840205,1.5766551010322802e-05
0.01253090903014837,0.00044438143795661627,1.5987197990259056e-05
0.012877976776643246,0.0004507336594083142,1.621097676460029e-05
0.013210671837696978,0.00045725582156189924,1.6437974134842844e-05
0.013529404189657033,0.00046394084056873775,1.6668273300375502e-05
0.013834438417123906,0.00047078180122043297,1.6901953960822794e-05
0.014125905336188365,0.00047777188715876105,1.7139092382917593e-05
0.01440382682299415,0.00048490432019855667,1.7379761434756922e-05
0.014668150842247941,0.0004921723146148672,1.7624030593460277e-05
0.014918791622690768,0.0004995690502311019,1.787196593467177e-05
0.01515566847381861,0.0005070876652552292,1.8123630113543353e-05
0.015378736389956254,0.0005147212664711729,1.8379082346474953e-05
0.015588002207490546,0.0005224629511205347,1.863837840087288e-05
0.01578352127404188,0.0005303058319909178,1.8901570596650743e-05
0.01596537161364059,0.0005382430552128384,1.916870781845168e-05
0.016133605644216308,0.0005462677995273027,1.9439835532136718e-05
0.016288182868665627,0.0005543732466555232,1.9714995793682424e-05
0.016428889784114324,0.0005625525148187182,1.9994227234050985e-05
0.016555255408584338,0.0005707985511168929,2.027756500053489e-05
0.016666472237006548,0.0005791039830282906,2.0565040634071185e-05
0.016761332848998674,0.0005874609342997919,2.0856681863403205e-05
0.016838191719488773,0.0005958608154419138,2.1152512300838633e-05
0.016894959820491322,0.0006042941033269088,2.145255103053084e-05
0.016929136108792188,0.0006127501273092297,2.1756812088189873e-05
0.01693787587275797,0.0006212168803046172,2.2065303840093334e-05
0.01691809291461251,0.0006296808725014598,2.237802827829485e-05
0.0168665909621179,0.0006381270434706424,2.2694980257287878e-05
0.01678021795007091,0.0006465387456986896,2.301614670458021e-05
0.016656034084434758,0.000654897808707316,2.3341505843181712e-05
0.016491482246274235,0.0006631846877899933,2.367102646730604e-05
0.01628454896137254,0.000671378695591905,2.4004667313151513e-05
0.01603390613676709,0.0006794583093664399,2.43423765643911e-05
0.01573902717178321,0.0006874015426935775,2.4684091527406107e-05
0.01540027436519492,0.000695186368077822,2.5029738505098956e-05
0.01501895631039846,0.0007027911757467204,2.5379232891055093e-05
0.01459735402832298,0.0007101952533314007,2.573247949832462e-05
0.014138713965958661,0.0007173792703299712,2.6089373129239966e-05
0.013647205624013607,0.0007243257502274642,2.6449799384379326e-05
0.013127842122025377,0.000731019512163974,2.6813635699977185e-05
0.012586364247973584,0.0007374480637564737,2.7180752593957298e-05
0.01202909239480246,0.0007436019279171677,2.7551015091875707e-05
0.011462754476642642,0.0007494748896350289,2.7924284296263755e-05
0.010894299728095812,0.0007550641531862136,2.8300419056969067e-05
0.010330708557622451,0.0007603704052576431,2.867927769658003e-05
0.00977880847008909,0.0007653977845145709,2.9060719744023085e-05
0.009245105247668082,0.0007701537629440103,2.944460763088773e-05
0.00873563626970672,0.0007746489483233539,2.983080830870457e-05
0.0082558495457924,0.0007788968197772287,3.0219194750729716e-05
0.0078105090916157135,0.0007829134094365808,3.060964730803317e-05
0.007403625371323039,0.0007867169430523154,3.100205489615539e-05
0.007038408491331788,0.0007903274515179791,3.1396315994797964e-05
0.006717241463539867,0.000793766364006697,3.1792339448679136e-05
0.006441671062821958,0.0007970560921382874,3.219004506271538e-05
0.00621241418622057,0.0008002196134505481,3.258936398911259e-05
0.006029377813958673,0.0008032800614505928,3.299023890783788e-05
0.005891690899972652,0.0008062603286290757,3.33926240053578e-05
0.0057977471867788994,0.0008091826881507636,3.379648475955276e-05
0.0057452591461090935,0.0008120684397339855,3.4201797541523945e-05
0.005731325000819143,0.0008149375857707176,3.460854904790012e-05
0.005752512628978272,0.000817808545178167,3.501673558063734e-05
0.005804964602785108,0.0008206979144861078,3.542636219555341e-05
0.005884526451985697,0.0008236202872498005,3.583744174598739e-05
0.005986896151280752,0.0008265881429006171,3.6249993853524995e-05
0.0061077886404825015,0.0008296118140985578,3.666404384277479e-05
0.006243106186741594,0.0008326995378053638,3.707962168075077e-05
0.006389104116694284,0.0008358575903812228,3.7496760962797415e-05
0.006542541913843985,0.0008390905018888574,3.791549798586493e-05
0.0067008111103884285,0.0008424013401449155,3.8335870946373376e-05
0.0068620324559855094,0.0008457920510365089,3.875791929416873e-05
0.007025115033258213,0.0008492638379088199,3.918168326640506e-05
0.007189770445644857,0.0008528175592785456,3.9607203615701904e-05
0.007356477402772557,0.00085645412124065,4.00345215358317e-05
0.00752639626437309,0.0008601748396574364,4.0463678776056225e-05
0.007701238609343688,0.0008639817483758655,4.089471792306455e-05
0.007883102487176798,0.0008678778336499956,4.132768281857101e-05
0.00807428806867941,0.0008718671812889597,4.176261907230575e-05
0.008277109387746354,0.0008759550306530661,4.219957462529126e-05
0.008493715689910985,0.0008801477369224805,4.263860031718514e-05
0.008725932352912547,0.0008844526489331864,4.307975041364906e-05
0.008975128273383617,0.0008888779140897604,4.3523083054404794e-05
0.00924211428259062,0.0008934322247287539,4.3968660589109425e-05
0.009527074775255008,0.0008981245219932154,4.441654977578992e-05
0.0098295319669637,0.0009029636736787701,4.4866821824707916e-05
0.010148339547170565,0.0009079581415573037,4.5319552278516936e-05
0.010481700751230451,0.000913115651631904,4.577482072681424e-05
0.010827205452062252,0.0009184428781827272,4.6232710359267896e-05
0.011181881559420886,0.0009239451499355979,4.6693307366297475e-05
0.011542257176099057,0.0009296261846194779,4.715670019993625e-05
0.011904430927214726,0.0009354878566453064,4.762297871025244e-05
0.012264148427252335,0.0009415300014839231,4.809223317478475e-05
0.012616883449355779,0.0009477502594530752,4.8564553240019e-05
0.01295792352082625,0.0009541439611956207,4.904002679518118e-05
0.013282461011837875,0.0009607040573287867,4.951873879981228e-05
0.01358569127884582,0.0009674210954014577,5.000077008799484e-05
0.013862918472794986,0.0009742832478393679,5.048619617380505e-05
0.014109667602420817,0.0009812763943581719,5.097508608435443e-05
0.014321799270369142,0.0009883842610763694,5.146750124821307e-05
0.014495621887504988,0.0009955886163658379,5.196349446757362e-05
0.014627995390814287,0.0010028695206854177,5.2463109001836436e-05
0.014716420653082762,0.001010205624696392,5.296637778818189e-05
0.014759109944256896,0.0010175745073457269,5.347332282119242e-05
0.014755035809202732,0.0010249530437840917,5.3983954708974875e-05
0.014703958054035725,0.0010323177922499014,5.449827241798337e-05
0.014606430483790305,0.001039645389384358,5.5016263213391936e-05
0.014463790087616193,0.0010469129445272096,5.553790279686983e-05
0.014278131599212826,0.0010540984249489168,5.606315563923886e-05
0.014052270224835088,0.0010611810254049288,5.659197550182732e-05
0.013789694871913534,0.001068141516679116,5.712430613734833e-05
0.013494513026291713,0.0010749625686536674,5.7660082158681524e-05
0.013171386723942408,0.0010816290435912259,5.8199230061742744e-05
0.01282545810799182,0.0010881282547992093,5.8741669386340356e-05
0.01246226397551354,0.0010944501853200857,5.928731399637018e-05
0.012087641058802235,0.0011005876615786648,5.9836073458094866e-05
0.011707625801013331,0.0011065364782936187,6.038785449306294e-05
0.01132835276323543,0.001112295472934681,6.0942562480870014e-05
0.010955954834639533,0.0011178665498341497,6.150010298656222e-05
0.010596467227724109,0.0011232546553497406,6.20603832878582e-05
0.01025573625563109,0.0011284677062205794,6.262331387825078e-05
0.00993933276300329,0.001133516473475238,6.318880992317474e-05
0.009652468790475958,0.0011384144238636078,6.375679264750945e-05
0.009399915142944339,0.0011431775198469628,6.432719063343709e-05
0.009185917358799627,0.0011478239779723987,6.489994100789193e-05
0.009014108032922274,0.0011523739843203292,6.547499049846511e-05
0.008887414500179673,0.0011568493649536046,6.60522963357836e-05
0.008807962808963959,0.0011612732092808906,6.663182697934223e-05
0.008776981611561733,0.001165669445386022,6.721356264300896e-05
0.008794712122791124,0.0011700623688196102,6.779749559656037e-05
0.008860331653223277,0.0011744761297636137,6.838363022120618e-05
0.008971898425994104,0.0011789341872834181,6.897198280046793e-05
0.009126325043294251,0.0011834587431507402,6.956258103307648e-05
0.009319387001964363,0.0011880701711620549,7.015546326165467e-05
0.009545770374391402,0.0011927864605061438,7.075067741957172e-05
0.009799159235948707,0.0011976226929087288,7.134827970792544e-05
0.01007235982058721,0.0012025905726728628,7.194833302432083e-05
0.010357455799041664,0.00120769802657777,7.255090517413348e-05
0.010645987608518027,0.0012129488874296599,7.315606690263534e-05
0.010929148065331884,0.0012183426713481224,7.376388979232979e-05
0.011197986362737231,0.0012238744549551395,7.437444407390561e-05
0.011443612818336918,0.001229534854750408,7.4987796401332e-05
0.01165739714216099,0.0012353101072405325,7.560400764182973e-05
0.01183115358600027,0.0012411822449225729,7.622313072987051e-05
0.011957307479470361,0.0012471293601889406,7.68452086311484e-05
0.01202903955875004,0.0012531259469484956,7.747027245793275e-05
0.012040406748776045,0.0012591433085253772,7.809833977180121e-05
0.011986439878274977,0.00126515002018214,7.872941310397809e-05
0.01186321971075121,0.0012711124350793966,7.936347871779348e-05
0.011667932742071145,0.0012769952231926022,8.000050563236148e-05
0.01139890755599345,0.0012827619332671182,8.064044492147641e-05
0.011055631084078475,0.0012883755679271361,8.128322929677498e-05
0.010638742291113423,0.001293799161270934,8.19287729790745e-05
0.01014999976480141,0.0012989963467849128,8.257697185608846e-05
0.009592220518244376,0.0013039319018556743,8.322770391824861e-05
0.008969189968395134,0.0013085722544773342,8.388082995733185e-05
0.008285546282093648,0.0013128859385399564,8.453619450558618e-05
0.007546644667491015,0.0013168439862773526,8.51936269867905e-05
0.006758408283966789,0.001320420249515217,8.585294304573864e-05
0.005927172811612921,0.001323591644789112,8.651394601931473e-05
0.005059531967194205,0.0013263383209838138,8.717642851075796e-05
0.004162191297779777,0.0013286437518000573,8.784017402895393e-05
0.0032418368190859923,0.0013304947588292737,8.850495865661125e-05
0.002305023057463209,0.001331881473798411,8.917055271476817e-05
0.0013580822164665426,0.0013327972501168933,8.983672239574701e-05
0.00040705358506011114,0.001333238534067275,9.050323134179305e-05
-0.0005423692873886232,0.0013332047051416928,9.116984215159529e-05
-0.0014848764140276884,0.0013326978937163387,9.18363178013098e-05
-0.0024155658115998665,0.0013317227831599317,9.250242297052887e-05
-0.003329954173429266,0.0013302864031636745,9.316792526710977e-05
-0.004223972166022507,0.0013283979215788116,9.383259634829539e-05
-0.005093943717117968,0.0013260684426080265,9.44962129393421e-05
-0.005936551592648811,0.0013233108187805849,9.515855775468925e-05
-0.006748794939364213,0.0013201394821475815,9.581942032992129e-05
-0.007527946914677643,0.0013165702966840712,9.64785977746292e-05
-0.008271521309363422,0.001312620429628061,9.713589545620723e-05
-0.008977255871710742,0.0013083082353327925,9.779112762244744e-05
-0.009643117153313126,0.0013036531420765366,9.844411796679978e-05
-0.010267328339237686,0.001298675530703399,9.909470013499476e-05
-0.010848419040790053,0.001293396593858392,9.974271816613521e-05
-0.01138529471604221,0.001287838165419184,0.00010038802685595461
-0.011877322553537238,0.001282022511101789,0.00010103049202508485
-0.012324429491068219,0.0012759720730906377,0.00010166999067113296
-0.012727206277409503,0.0012697091641485183,0.00010230641098044274
-0.013087009647963102,0.001263255610167175,0.00010293965217402167
-0.013406053493313006,0.001256632344381856,0.00010356962416265892
-0.013687479463585442,0.0012498589611426314,0.00010419624698904004
-0.013935397656251384,0.0012429532418626722,0.00010481945003979136
-0.014154889137038882,0.0012359306701643497,0.00010543917101779811
-0.014351964237473364,0.0012288039568207217,0.00010605535467454439
-0.014533473748815867,0.0012215825973241495,0.0001066679513130806
-0.014706974135266315,0.001214272485353129,0.00010727691508374991
-0.014880552066006147,0.0012068756038028108,0.0001078822021060389
-0.015062616591021934,0.0011993898116385538,0.00010848376845989924
-0.015261668576953996,0.0011918087403465598,0.00010908156809789552
-0.015486057554383877,0.0011841218088137254,0.00010967555073518559
-0.015743736788209204,0.001176314360228077,0.00011026565977744604
-0.01604202754102085,0.0011683679191457695,0.0001108518303472895
-0.01638740236288233,0.0011602605616697938,0.0001114339874674934
-0.016785295385978186,0.0011519673872325787,0.00011201204445471898
-0.01723994605349034,0.0011434610768727117,0.0001125859015707453
-0.01775428156187129,0.0011347125199688713,0.0001131554449699557
-0.01832984206667897,0.0011256914890617337,0.00011372054597221335
-0.018966751031262327,0.0011163673407872483,0.0001142810606796756
-0.019663730653918392,0.001106709720365953,0.00011483682994496389
