frame_number,force
0,859.5042728835107
1,859.498222701257
2,859.4906523247508
3,859.4815380637219
4,859.4708606957431
5,859.4586055138889
6,859.4447623577338
7,859.4293256291318
8,859.4122942942488
9,859.3936718733053
10,859.3734664195108
11,859.3516904887063
12,859.3283611012098
13,859.3034996973549
14,859.2771320882108
15,859.2492884029382
16,859.220003034037
17,859.1893145812704
18,859.1572657943785
19,859.1239035139613
20,859.0892786092385
21,859.0534459107688
22,859.016464135787
23,858.9783958037759
24,858.9393071402707
25,858.8992679674657
26,858.8583515806806
27,858.8166346100791
28,858.7741968673142
29,858.7311211770811
30,858.6874931938787
31,858.6434012046165
32,858.5989359180428
33,858.5541902422212
34,858.5092590512625
35,858.4642389422038
36,858.4192279825355
37,858.3743254487193
38,858.3296315562166
39,858.2852471818667
40,858.2412735796855
41,858.1978120911459
42,858.154963850813
43,858.1128294879849
44,858.0715088248342
45,858.0311005714924
46,857.9917020185346
47,857.9534087274292
48,857.9163142197305
49,857.8805096661212
50,857.8460835768113
51,857.8131214951419
52,857.7817056963859
53,857.7519148936428
54,857.723823952428
55,857.6975036151342
56,857.6730202360227
57,857.6504355268273
58,857.6298063126193
59,857.6111842975313
60,857.594615840353
61,857.5801417405912
62,857.5677970359181
63,857.5576108119209
64,857.5496060250047
65,857.5437993394745
66,857.5402009803184
67,857.5388146039113
68,857.5396371895042
69,857.5426589546897
70,857.5478632979442
71,857.5552267709686
72,857.5647190830293
73,857.5763031389165
74,857.5899351115027
75,857.6055645492287
76,857.6231345182522
77,857.6425817785512
78,857.663836992965
79,857.6868249678625
80,857.7114649237665
81,857.7376707938221
82,857.765351547621
83,857.7944115376816
84,857.8247508658311
85,857.8562657667151
86,857.8888490056888
87,857.9223902884664
88,857.9567766801094
89,857.9918930311344
90,858.0276224086866
91,858.0638465308659
92,858.100446202414
93,858.1373017501505
94,858.1742934568256
95,858.2113019923318
96,858.2482088412689
97,858.2848967256978
98,858.3212500217586
99,858.3571551688378
100,858.3925010700493
101,858.4271794828202
102,858.4610853982857
103,858.494117408108
104,858.5261780573236
105,858.5571741819282
106,858.5870172301161
107,858.6156235663256
108,858.6429147573581
109,858.6688178397557
110,858.6932655673854
111,858.7161966379114
112,858.7375558965753
113,858.7572945155541
114,858.7753701471815
115,858.791747049495
116,858.8063961828423
117,858.819295276684
118,858.8304288663052
119,858.8397882997689
120,858.8473717159848
121,858.8531839951949
122,858.8572366834945
123,858.8595478931621
124,858.8601421805554
125,858.8590504031091
126,858.8563095565091
127,858.8519625925557
128,858.8460582178518
129,858.8386506733128
130,858.8297994943234
131,858.8195692510491
132,858.8080292681506
133,858.7952533232217
134,858.7813193237098
135,858.7663089627569
136,858.7503073550522
137,858.7334026541914
138,858.7156856531578
139,858.697249369549
140,858.678188617203
141,858.6585995660557
142,858.6385792924898
143,858.6182253231134
144,858.5976351755422
145,858.5769059000717
146,858.556133626174
147,858.5354131177121
148,858.5148373405915
149,858.4944970461463
150,858.4744803729463
151,858.4548724691409
152,858.4357551370373
153,858.4172065013153
154,858.3993007020782
155,858.3821076138152
156,858.365692591243
157,858.3501162428526
158,858.3354342328338
159,858.3216971119757
160,858.3089501781365
161,858.2972333669716
162,858.2865811737183
163,858.277022606715
164,858.2685811728091
165,858.2612748939703
166,858.2551163535858
167,858.2501127702749
168,858.2462660967046
169,858.2435731408327
170,858.2420257071108
171,858.241610755239
172,858.2423105739922
173,858.244102967623
174,858.2469614526225
175,858.2508554632351
176,858.2557505649506
177,858.2616086760503
178,858.268388297894
179,858.2760447547612
180,858.2845304436764
181,858.2937950940603
182,858.303786036538
183,858.3144484798547
184,858.3257257944668
185,858.3375598009383
186,858.3498910608658
187,858.3626591677972
188,858.3758030355787
189,858.3892611817224
190,858.4029720036312
191,858.4168740457385
192,858.4309062557934
193,858.4450082287088
194,858.4591204366795
195,858.4731844446118
196,858.4871431101147
197,858.5009407672877
198,858.5145233933644
199,858.527838757082
200,858.540836547555
201,858.553468482478
202,858.5656883946939
203,858.5774522965341
204,858.5887184218475
205,858.5994472461936
206,858.6096014861744
207,858.6191460792228
208,858.6280481453708
209,858.6362769326556
210,858.6438037478964
211,858.6506018745075
212,858.6566464788533
213,858.6619145065893
214,858.6663845706521
215,858.6700368329887
216,858.6728528824653
217,858.6748156114626
218,858.6759090934783
219,858.6761184638247
220,858.675429805274
221,858.6738300402252
222,858.6713068306397
223,858.6678484867047
224,858.6634438849942
225,858.6580823967892
226,858.6517538271976
227,858.6444483658162
228,858.6361565498936
229,858.6268692411406
230,858.6165776173212
231,858.6052731795679
232,858.5929477760864
233,858.5795936425429
234,858.5652034588561
235,858.549770421354
236,858.5332883285085
237,858.515751677888
238,858.4971557716045
239,858.4774968273192
240,858.4567720917747
241,858.4349799538181
242,858.4121200539303
243,858.3881933873869
244,858.3632023984059
245,858.337151063017
246,858.3100449588585
247,858.2818913205265
248,858.252699079403
249,858.2224788870786
250,858.1912431215721
251,858.1590058755299
252,858.1257829255185
253,858.0915916815874
254,858.0564511166551
255,858.020381675935
256,857.9834051673826
257,857.9455446347588
258,857.9068242153054
259,857.8672689842986
260,857.8269047889833
261,857.7857580745715
262,857.7438557050235
263,857.7012247811415
264,857.6578924581546
265,857.6138857646388
266,857.5692314244152
267,857.523955683057
268,857.4780841408191
269,857.4316415941094
270,857.3846518877646
271,857.3371377801614
272,857.2891208226216
273,857.2406212539033
274,857.1916579100291
275,857.142248149415
276,857.092407793273
277,857.04215108153
278,856.991490644837
279,856.9404374934214
280,856.8890010235215
281,856.8371890420351
282,856.7850078099729
283,856.7324621053475
284,856.6795553061979
285,856.6262894944075
286,856.5726655808313
287,856.5186834520063
288,856.4643421383469
289,856.4096400032031
290,856.3545749514907
291,856.2991446558235
292,856.2433467972988
293,856.1871793175142
294,856.13064067813
295,856.0737301241793
296,856.0164479472169
297,855.9587957444053
298,855.9007766698668
299,855.8423956750133
300,855.7836597349169
301,855.7245780580935
302,855.6651622774162
303,855.6054266203029
304,855.5453880568851
305,855.4850664255617
306,855.4244845359706
307,855.363668249783
308,855.3026465397608
309,855.2414515273769
310,855.1801184992602
311,855.1186859029413
312,855.0571953226892
313,854.9956914364012
314,854.9342219545754
315,854.8728375426238
316,854.8115917282364
317,854.7505407959127
318,854.6897436708578
319,854.629261794186
320,854.569158990953
321,854.5095013321437
322,854.4503569914943
323,854.3917960978735
324,854.3338905837559
325,854.2767140299836
326,854.2203415065426
327,854.1648494085928
328,854.1103152865976
329,854.0568176692743
330,854.0044358783636
331,853.9532498348239
332,853.903339856776
333,853.8547864501263
334,853.8076700931576
335,853.7620710164415
336,853.718068979196
337,853.6757430428694
338,853.6351713425205
339,853.596430856683
340,853.5595971767548
341,853.5247442773147
342,853.4919442889067
343,853.4612672746674
344,853.4327810117661
345,853.4065507781148
346,853.3826391443841
347,853.3611057712258
348,853.3420072118438
349,853.3253967205895
350,853.3113240688434
351,853.2998353698256
352,853.2909729140381
353,853.2847750168739
354,853.2812758797609
355,853.2805054661145
356,853.2824893932698
357,853.2872488413366
358,853.294800479571
359,853.3051564103661
360,853.3183241304451
361,853.3343065085379
362,853.3531017789344
363,853.3747035506867
364,853.3991008325452
365,853.4262780739268
366,853.4562152225353
367,853.4888877997059
368,853.5242669948369
369,853.5623197801501
370,853.6030090465684
371,853.6462937608455
372,853.6921291432166
373,853.7404668638146
374,853.7912552551654
375,853.8444395374165
376,853.899962052582
377,853.9577625039377
378,854.017778196767
379,854.0799442769289
380,854.1441939641896
381,854.2104587779698
382,854.2786687540004
383,854.3487526510082
384,854.4206381467228
385,854.4942520223151
386,854.5695203341838
387,854.6463685719773
388,854.7247218018995
389,854.8045047946625
390,854.8856421377878
391,854.9680583321536
392,855.051677872662
393,855.1364253128295
394,855.2222253131636
395,855.3090026733892
396,855.3966823488053
397,855.4851894512047
398,855.5744492350244
399,855.6643870699007
400,855.7549284015118
401,855.8459987031874
402,855.9375234211637
403,856.0294279167242
404,856.1216374089064
405,856.2140769217649
406,856.3066712400661
407,856.3993448767524
408,856.4920220548061
409,856.5846267055084
410,856.677082484627
411,856.7693128077085
412,856.8612409052495
413,856.9527898979873
414,857.0438828919744
415,857.1344430926084
416,857.2243939363844
417,857.3136592387762
418,857.4021633563441
419,857.4898313609262
420,857.5765892236186
421,857.6623640062223
422,857.7470840579007
423,857.8306792149185
424,857.9130810015669
425,857.9942228307004
426,858.0740402026091
427,858.1524709010665
428,858.2294551854063
429,858.3049359775774
430,858.3788590433769
431,858.4511731672724
432,858.5218303201729
433,858.5907858191953
434,858.6579984780989
435,858.7234307467262
436,858.7870488375611
437,858.8488228375315
438,858.9087268035546
439,858.9667388408934
440,859.0228411639481
441,859.0770201395703
442,859.1292663133612
443,859.1795744196161
444,859.2279433755818
445,859.274376260582
446,859.3188802804362
447,859.3614667175718
448,859.4021508673175
449,859.4409519610101
450,859.4778930765958
451,859.513001037386
452,859.5463062996935
453,859.5778428302665
454,859.6076479745853
455,859.6357623170265
456,859.6622295336209
457,859.6870962378085
458,859.7104118193132
459,859.7322282760251
460,859.7526000385451
461,859.771583786865
462,859.7892382586152
463,859.8056240483917
464,859.8208033977763
465,859.8348399757284
466,859.847798649029
467,859.8597452424021
468,859.8707462878015
469,859.8808687623022
470,859.8901798143061
471,859.898746478374
472,859.9066353796896
473,859.9139124296406
474,859.920642514259
475,859.9268891775082
476,859.9327143017831
477,859.9381777884122
478,859.9433372412559
479,859.9482476566099
480,859.9529611225292
481,859.9575265304106
482,859.9619893012601
483,859.9663911286611
484,859.9707697401195
485,859.9751586782526
486,859.979587103222
487,859.9840796178712
488,859.9886561171609
489,859.9933316636884
490,859.9981163912902
491,860.0030154388182
492,860.0080289160999
493,860.0131519038476
494,860.0183744889431
495,860.0236818360202
496,860.0290542955933
497,860.0344675481437
498,860.0398927827464
499,860.0452969081971
500,860.0506427943117
501,860.0558895410206
502,860.0609927728335
503,860.0659049560786
504,860.0705757361309
505,860.0749522918385
506,860.0789797046574
507,860.0826013404766
508,860.0857592425324
509,860.0883945340635
510,860.0904478294665
511,860.0918596527167
512,860.0925708617303
513,860.0925230771899
514,860.0916591141433
515,860.0899234143627
516,860.0872624769644
517,860.0836252841543
518,860.078963718329
519,860.0732329663861
520,860.0663919071399
521,860.058403478031
522,860.0492350175078
523,860.0388585794668
524,860.0272512162604
525,860.0143952272422
526,860.000278370534
527,859.9848940364583
528,859.9682413817219
529,859.9503254239091
530,859.9311570960926
531,859.9107532614748
532,859.8891366880217
533,859.8663359831706
534,859.8423854889758
535,859.8173251384887
536,859.7912002746037
537,859.7640614329711
538,859.7359640909634
539,859.7069683850419
540,859.6771387990408
541,859.6465438258521
542,859.6152556049634
543,859.5833495384722
544,859.5509038885299
545,859.5179993594941
546,859.4847186682772
547,859.4511461064709
548,859.4173670979244
549,859.3834677556405
550,859.3495344419939
551,859.3156533360573
552,859.2819100111815
553,859.2483890251723
554,859.2151735247973
555,859.1823448660587
556,859.1499822515485
557,859.1181623862143
558,859.0869591530698
559,859.0564433107766
560,859.0266822153999
561,858.997739568752
562,858.9696751955005
563,858.9425448507486
564,858.9164000592256
565,858.891287986665
566,858.8672513435267
567,858.8443283210361
568,858.8225525594975
569,858.8019531487365
570,858.7825546601351
571,858.76437720907
572,858.74743654578
573,858.7317441719863
574,858.7173074801833
575,858.7041299124451
576,858.6922111356529
577,858.6815472301774
578,858.6721308892647
579,858.663951626669
580,858.6569959904066
581,858.6512477809475
582,858.6466882727516
583,858.6432964386029
584,858.6410491764645
585,858.6399215384997
586,858.6398869616316
587,858.6409174986422
588,858.6429840484456
589,858.6460565839412
590,858.6501043758285
591,858.6550962107797
592,858.6610006022174
593,858.6677859916156
594,858.6754209380291
595,858.6838742937323
596,858.6931153643485
597,858.7031140524737
598,858.7138409843241
599,858.725267619296
600,858.7373663424639
601,858.75011054004
602,858.7634746577746
603,858.7774342422471
604,858.7919659649724
605,858.8070476292644
606,858.8226581599336
607,858.8387775761759
608,858.8553869483071
609,858.8724683392102
610,858.8900047314543
611,858.9079799410439
612,858.9263785187302
613,858.9451856398316
614,858.964386983614
615,858.9839686034435
616,859.003916789064
617,859.0242179223623
618,859.044858327939
619,859.0658241198021
620,859.0871010455157
621,859.1086743291091
622,859.1305285140141
623,859.1526473073833
624,859.1750134273396
625,859.1976084549511
626,859.2204126929338
627,859.2434050331965
628,859.2665628353351
629,859.2898618181217
630,859.3132759659394
631,859.3367774518664
632,859.3603365786809
633,859.3839217385878
634,859.4074993921766
635,859.4310340669953
636,859.4544883760501
637,859.4778230564542
638,859.5009970283969
639,859.5239674745752
640,859.5466899400963
641,859.5691184526211
642,859.5912056623562
643,859.6129030015526
644,859.6341608633078
645,859.6549287993723
646,859.6751557362037
647,859.6947902078784
648,859.7137806038786
649,859.7320754293117
650,859.7496235748467
651,859.7663745935497
652,859.7822789818308
653,859.7972884617261
654,859.811356261654
655,859.8244373926451
656,859.8364889170084
657,859.847470206583
658,859.8573431880847
659,859.8660725733989
660,859.8736260728435
661,859.8799745894786
662,859.8850923926759
663,859.8889572694611
664,859.8915506525386
665,859.8928577242461
666,859.8928674958632
667,859.8915728617313
668,859.8889706276371
669,859.8850615129354
670,859.8798501260173
671,859.8733449129875
672,859.865558079716
673,859.8565054876858
674,859.8462065242092
675,859.8346839477206
676,859.8219637090253
677,859.808074749582
678,859.7930487780708
679,859.7769200266428
680,859.7597249883821
681,859.7415021377036
682,859.722291635686
683,859.7021350226494
684,859.6810749005901
685,859.6591546084943
686,859.6364178941411
687,859.6129085866477
688,859.5886702743101
689,859.5637459920904
690,859.5381779225453
691,859.5120071134293
692,859.4852732147737
693,859.4580142378067
694,859.4302663375207
695,859.4020636201258
696,859.3734379762642
697,859.3444189407599
698,859.3150335796902
699,859.2853064055565
700,859.2552593211747
701,859.2249115925729
702,859.1942798507217
703,859.1633781214971
704,859.132217882951
705,859.1008081486592
706,859.0691555756368
707,859.0372645950687
708,859.0051375639118
709,858.9727749352536
710,858.9401754451443
711,858.9073363134311
712,858.8742534559367
713,858.8409217052784
714,858.8073350377471
715,858.7734868038449
716,858.7393699601978
717,858.7049773006497
718,858.6703016844888
719,858.6353362598444
720,858.6000746802233
721,858.5645113119695
722,858.5286414302877
723,858.4924614014885
724,858.4559688493486
725,858.4191628039758
726,858.3820438322607
727,858.3446141497818
728,858.3068777147635
729,858.2688403051662
730,858.2305095801182
731,858.1918951267587
732,858.153008493517
733,858.1138632110706
734,858.0744748025813
735,858.0348607850697
736,857.9950406638815
737,857.9550359220805
738,857.9148700062378
739,857.8745683095766
740,857.8341581529362
741,857.7936687636288
742,857.7531312519452
743,857.7125785847742
744,857.6720455555293
745,857.6315687493401
746,857.5911865023268
747,857.550938853807
748,857.510867490465
749,857.4710156817591
750,857.4314282060737
751,857.3921512672819
752,857.3532324014037
753,857.3147203729094
754,857.2766650599924
755,857.2391173280155
756,857.2021288903529
757,857.1657521559026
758,857.1300400624917
759,857.0950458953542
760,857.0608230899886
761,857.0274250190108
762,856.9949047629865
763,856.963314865602
764,856.9327070739914
765,856.9031320656322
766,856.8746391638455
767,856.8472760444237
768,856.8210884362674
769,856.7961198192223
770,856.7724111226178
771,856.7500004283611
772,856.7289226828714
773,856.7092094225127
774,856.6908885172564
775,856.6739839368862
776,856.658515543209
777,856.6444989107256
778,856.6319451772678
779,856.6208609253052
780,856.6112480939353
781,856.6031039210027
782,856.5964209143928
783,856.5911868513434
784,856.5873848046149
785,856.584993194445
786,856.5839858653277
787,856.5843321867845
788,856.5859971774936
789,856.58894165231
790,856.593122391706
791,856.5984923328368
792,856.6050007808955
793,856.6125936388488
794,856.6212136533161
795,856.630800674334
796,856.641291926947
797,856.6526222927707
798,856.6647245998201
799,856.6775299189774
800,856.6909678654307
801,856.7049669032727
802,856.7194546513515
803,856.7343581885216
804,856.7496043565467
805,856.7651200589611
806,856.7808325542061
807,856.7966697413977
808,856.8125604372455
809,856.8284346429652
810,856.844223800379
811,856.8598610364901
812,856.8752813955992
813,856.8904220577485
814,856.905222542294
815,856.9196248957743
816,856.9335738637034
817,856.947017046213
818,856.9599050375863
819,856.9721915498271
820,856.9838335205884
821,856.9947912060115
822,857.0050282592
823,857.0145117950659
824,857.0232124421633
825,857.0311043819772
826,857.0381653760709
827,857.0443767814213
828,857.0497235541111
829,857.054194241388
830,857.0577809620859
831,857.0604793754828
832,857.0622886387046
833,857.063211352682
834,857.0632534965026
835,857.0624243497766
836,857.060736402374
837,857.0582052506015
838,857.0548494787245
839,857.0506905248975
840,857.0457525310753
841,857.0400621770608
842,857.0336484992097
843,857.026542694386
844,857.0187779097909
845,857.010389019464
846,857.001412388559
847,856.9918856267808
848,856.981847332632
849,856.9713368303727
850,856.9603939018899
851,856.94905851591
852,856.9373705570882
853,856.9253695573407
854,856.9130944313074
855,856.9005832172847
856,856.8878728247031
857,856.8749987894051
858,856.8619950383296
859,856.8488936653488
860,856.8357247198978
861,856.8225160099131
862,856.8092929207253
863,856.7960782518613
864,856.7828920738841
865,856.7697516072662
866,856.7566711250474
867,856.7436618808878
868,856.7307320640276
869,856.7178867823407
870,856.7051280740563
871,856.692454948097
872,856.6798634526675
873,856.6673467717416
874,856.654895349044
875,856.6424970387374
876,856.6301372813992
877,856.6177993034845
878,856.6054643385897
879,856.5931118692977
880,856.5807198886728
881,856.5682651802607
882,856.555723614786
883,856.543070460964
884,856.5302807072783
885,856.5173293912911
886,856.5041919329675
887,856.4908444684555
888,856.4772641807187
889,856.4634296233977
890,856.4493210344049
891,856.4349206361313
892,856.4202129197483
893,856.4051849116029
894,856.3898264197709
895,856.374130258452
896,856.3580924474333
897,856.3417123835162
898,856.3249929805653
899,856.3079407747513
900,856.2905659918936
901,856.2728825746487
902,856.2549081684136
903,856.2366640658856
904,856.2181751111449
905,856.1994695650237
906,856.1805789344967
907,856.1615377697098
908,856.1423834328402
909,856.1231558431421
910,856.103897202384
911,856.0846517046448
912,856.0654652342415
913,856.0463850554202
914,856.0274594972534
915,856.0087376369725
916,855.9902689848217
917,855.9721031734636
