frame_number,force
0,859.5317373251228
1,859.5268523067955
2,859.5203569657164
3,859.5122287610577
4,859.5024498821759
5,859.4910072236471
6,859.4778923399632
7,859.4631013833548
8,859.4466350282216
9,859.4284983855725
10,859.408700910891
11,859.3872563088461
12,859.3641824381956
13,859.3395012201495
14,859.3132385534194
15,859.2854242390525
16,859.2560919176773
17,859.2252790207627
18,859.1930267360198
19,859.1593799855052
20,859.124387413514
21,859.0881013800002
22,859.0505779543215
23,859.0118769039633
24,858.9720616736471
25,858.9311993513697
26,858.889360618897
27,858.8466196848813
28,858.8030541993155
29,858.7587451486297
30,858.7137767313673
31,858.6682362150285
32,858.6222137753404
33,858.5758023196939
34,858.5290972964166
35,858.4821964908431
36,858.4351998083051
37,858.3882090437966
38,858.3413276384059
39,858.2946604232608
40,858.2483133521768
41,858.2023932241781
42,858.1570073966391
43,858.1122634893101
44,858.0682690791714
45,858.0251313859301
46,857.9829569480077
47,857.9418512890908
48,857.901918575769
49,857.8632612674797
50,857.8259797608295
51,857.7901720310873
52,857.7559332739781
53,857.7233555507169
54,857.6925274386448
55,857.6635336889744
56,857.6364548920942
57,857.6113671497345
58,857.5883417524244
59,857.5674448606164
60,857.5487371887762
61,857.5322736930013
62,857.5181032634895
63,857.5062684232171
64,857.496805034123
65,857.4897420125299
66,857.485101056645
67,857.482896390514
68,857.4831345302254
69,857.4858140789223
70,857.4909255570775
71,857.4984512737661
72,857.5083652436708
73,857.5206331534127
74,857.5352123795581
75,857.5520520593611
76,857.5710932141474
77,857.5922689243969
78,857.6155045550158
79,857.6407180287548
80,857.6678201450488
81,857.6967149407087
82,857.7273000881689
83,857.7594673266321
84,857.7931029213898
85,857.8280881466254
86,857.8642997871135
87,857.9016106545371
88,857.9398901146179
89,857.9790046217136
90,858.0188182579165
91,858.0591932740161
92,858.0999906299645
93,858.1410705328692
94,858.1822929711519
95,858.2235182440796
96,858.2646074859897
97,858.3054231841882
98,858.3458296891635
99,858.3856937157464
100,858.4248848340059
101,858.4632759486806
102,858.5007437657398
103,858.5371692444347
104,858.5724380331304
105,858.6064408873796
106,858.6390740690749
107,858.6702397259452
108,858.6998462508342
109,858.7278086199573
110,858.7540487087668
111,858.7784955834081
112,858.8010857651333
113,858.8217634646275
114,858.8404807831553
115,858.8571978777143
116,858.8718830878548
117,858.884513022577
118,858.8950726068222
119,858.9035550882846
120,858.9099620062982
121,858.9143031253595
122,858.9165963364144
123,858.9168675292632
124,858.915150439324
125,858.9114864714363
126,858.9059245023376
127,858.8985206621871
128,858.8893380946482
129,858.8784466946653
130,858.8659228226504
131,858.8518489930566
132,858.8363135347129
133,858.8194102203869
134,858.8012378639127
135,858.7818998845853
136,858.7615038398507
137,858.7401609281321
138,858.7179854638582
139,858.6950943267432
140,858.6716063874309
141,858.6476419119643
142,858.6233219484407
143,858.5987677006314
144,858.5740998946868
145,858.549438145713
146,858.5249003311287
147,858.5006019776533
148,858.4766556684549
149,858.453170476132
150,858.4302514259766
151,858.4079989928258
152,858.3865086339864
153,858.3658703601604
154,858.3461683459371
155,858.327480581228
156,858.3098785648699
157,858.2934270413905
158,858.2781837816972
159,858.2641994083616
160,858.2515172662569
161,858.2401733395768
162,858.2301962165745
163,858.2216071032034
164,858.2144198858165
165,858.208641241422
166,858.2042707923116
167,858.2013013006214
168,858.1997188977283
169,858.1995033433358
170,858.2006283094007
171,858.2030616842494
172,858.2067658921483
173,858.2116982236262
174,858.2178111724822
175,858.225052776755
176,858.2333669627117
177,858.2426938927445
178,858.2529703193819
179,858.2641299479199
180,858.2761038094164
181,858.2888206445864
182,858.302207298085
183,858.3161891218948
184,858.3306903857409
185,858.3456346915538
186,858.3609453881436
187,858.3765459817174
188,858.3923605377931
189,858.4083140703848
190,858.4243329148263
191,858.4403450810506
192,858.4562805844682
193,858.4720717519568
194,858.4876535010533
195,858.5029635910997
196,858.5179428454945
197,858.5325353441292
198,858.5466885846879
199,858.5603536110407
200,858.5734851067274
201,858.586041451587
202,858.5979847399743
203,858.609280759738
204,858.6198989321514
205,858.629812214113
206,858.6389969649236
207,858.6474327806217
208,858.6551022992467
209,858.6619909806363
210,858.6680868644701
211,858.6733803101002
212,858.6778637213343
213,858.6815312591634
214,858.6843785458583
215,858.6864023647132
216,858.6876003604207
217,858.6879707451625
218,858.6875120151036
219,858.6862226814467
220,858.6841010197021
221,858.6811448402269
222,858.6773512823812
223,858.6727166340345
224,858.6672361777463
225,858.6609040647123
226,858.6537132175082
227,858.6456552628721
228,858.636720496216
229,858.6268978799355
230,858.6161750775701
231,858.6045385254566
232,858.591973542939
233,858.5784644814197
234,858.5639949113466
235,858.5485478446358
236,858.5321059884634
237,858.5146520251733
238,858.496168912282
239,858.476640196124
240,858.4560503324766
241,858.4343850075019
242,858.411631452449
243,858.3877787457922
244,858.3628180969611
245,858.3367431066171
246,858.3095499994068
247,858.2812378260122
248,858.2518086319399
249,858.2212675908914
250,858.1896231007386
251,858.1568868400872
252,858.1230737832692
253,858.0882021717395
254,858.0522934406364
255,858.015372100668
256,857.9774655770732
257,857.9386040087087
258,857.8988200111492
259,857.8581484082646
260,857.816625937238
261,857.7742909323797
262,857.7311829931779
263,857.6873426416395
264,857.6428109732624
265,857.5976293052928
266,857.5518388255251
267,857.5054802448872
268,857.4585934574683
269,857.4112172123017
270,857.3633888015404
271,857.3151437692112
272,857.2665156435608
273,857.2175356946425
274,857.1682327176936
275,857.1186328422822
276,857.0687593672562
277,857.018632622125
278,856.9682698562262
279,856.917685157449
280,856.866889402273
281,856.8158902387144
282,856.7646921036946
283,856.7132962764846
284,856.6617009700352
285,856.6099014619657
286,856.5578902666982
287,856.5056573497567
288,856.4531903844985
289,856.4004750504666
290,856.3474953711793
291,856.2942340875643
292,856.2406730616274
293,856.1867937037639
294,856.1325774165812
295,856.0780060478673
296,856.0230623451218
297,855.9677304040652
298,855.9119961040415
299,855.85584752401
300,855.7992753335496
301,855.7422731539381
302,855.6848378850623
303,855.6269699947983
304,855.568673768658
305,855.5099575189143
306,855.4508337537219
307,855.391319307484
308,855.3314354337637
309,855.2712078617072
310,855.2106668168274
311,855.1498470074027
312,855.0887875783682
313,855.0275320348811
314,854.96612813785
315,854.9046277741436
316,854.843086805101
317,854.7815648977609
318,854.7201253433564
319,854.6588348670405
320,854.5977634318788
321,854.5369840392875
322,854.4765725275138
323,854.4166073694039
324,854.3571694702647
325,854.2983419658657
326,854.2402100196244
327,854.1828606169535
328,854.1263823538923
329,854.0708652168598
330,854.0164003509095
331,853.963079815115
332,853.9109963251959
333,853.8602429847341
334,853.810913007067
335,853.7630994300636
336,853.7168948255025
337,853.6723910040395
338,853.629678716312
339,853.5888473509709
340,853.5499846311671
341,853.5131763117862
342,853.4785058800152
343,853.4460542614966
344,853.4158995334865
345,853.3881166453834
346,853.3627771461283
347,853.3399489177152
348,853.3196959145857
349,853.3020779098193
350,853.2871502502858
351,853.2749636237578
352,853.2655638411293
353,853.2589916365796
354,853.2552824882017
355,853.2544664614561
356,853.2565680776263
357,853.2616062090257
358,853.2695940019987
359,853.2805388277809
360,853.2944422602246
361,853.3113000788073
362,853.3311022956136
363,853.3538332058012
364,853.379471461757
365,853.4079901716294
366,853.4393570236186
367,853.4735344383935
368,853.5104797526307
369,853.5501454364498
370,853.5924793465947
371,853.6374250158641
372,853.6849219775067
373,853.7349061211731
374,853.7873100750768
375,853.8420636076629
376,853.8990940413106
377,853.9583266702914
378,854.0196851753523
379,854.0830920278632
380,854.1484688774524
381,854.2157369185339
382,854.2848172328943
383,854.3556311068106
384,854.4281003215211
385,854.5021474154884
386,854.5776959164734
387,854.6546705413728
388,854.7329973621005
389,854.8126039364367
390,854.8934194034653
391,854.9753745436152
392,855.0584018032686
393,855.1424352837296
394,855.227410694466
395,855.3132652709482
396,855.3999376578475
397,855.487367758667
398,855.575496553365
399,855.6642658865873
400,855.7536182305855
401,855.8434964281647
402,855.9338434218199
403,856.0246019759859
404,856.1157144002482
405,856.2071222820072
406,856.298766236858
407,856.3905856838309
408,856.4825186511636
409,856.574501616965
410,856.6664693881692
411,856.758355020447
412,856.8500897809143
413,856.9416031543768
414,857.0328228926596
415,857.1236751055571
416,857.2140843911054
417,857.3039740021474
418,857.393266045525
419,857.4818817097482
420,857.5697415166873
421,857.6567655927915
422,857.7428739554861
423,857.8279868106829
424,857.9120248578288
425,857.9949095996022
426,858.0765636539941
427,858.1569110667625
428,858.2358776222695
429,858.3133911509142
430,858.389381831898
431,858.4637824904889
432,858.5365288888329
433,858.6075600087031
434,858.6768183237687
435,858.7442500582581
436,858.8098054283871
437,858.8734388629334
438,858.9351092000913
439,858.9947798588995
440,859.0524189846604
441,859.1079995687122
442,859.1614995436489
443,859.2129018554687
444,859.2621945140959
445,859.30937062344
446,859.3544283918463
447,859.3973711236779
448,859.4382071929192
449,859.4769499999309
450,859.5136179125376
451,859.548234192541
452,859.5808269088294
453,859.6114288386035
454,859.6400773585037
455,859.666814327233
456,859.6916859606525
457,859.7147426995897
458,859.7360390699773
459,859.7556335343978
460,859.7735883335783
461,859.7899693159666
462,859.8048457533878
463,859.8182901409247
464,859.8303779793392
465,859.8411875384603
466,859.8507995999589
467,859.859297177779
468,859.8667652142015
469,859.8732902494128
470,859.8789600629975
471,859.8838632870444
472,859.8880889920104
473,859.8917262475003
474,859.8948636606692
475,859.8975888954964
476,859.8999881769935
477,859.9021457853277
478,859.9041435455135
479,859.9060603186127
480,859.9079715002329
481,859.9099485315851
482,859.9120584275623
483,859.9143633254945
484,859.916920057599
485,859.9197797497727
486,859.9229874493064
487,859.9265817843011
488,859.930594657923
489,859.935050981122
490,859.9399684479499
491,859.9453573579115
492,859.9512204896736
493,859.9575530300532
494,859.9643425615577
495,859.9715691108037
496,859.9792052587907
497,859.9872163123524
498,859.9955605344461
499,860.0041894297154
500,860.0130480812344
501,860.022075534301
502,860.031205223116
503,860.0403654358854
504,860.0494798135398
505,860.0584678773037
506,860.0672455810185
507,860.0757258851484
508,860.0838193502982
509,860.0914347486276
510,860.0984796917853
511,860.1048612740085
512,860.1104867288518
513,860.1152640976827
514,860.1191029076241
515,860.1219148559309
516,860.1236144967456
517,860.1241199248155
518,860.1233534493862
519,860.1212422506525
520,860.1177190111869
521,860.1127225153149
522,860.1061982097389
523,860.0980987186665
524,860.0883843068757
525,860.0770232850322
526,860.0639923529972
527,860.0492768783495
528,860.0328711086136
529,860.0147783165737
530,859.9950108784967
531,859.9735902851963
532,859.9505470858924
533,859.9259207649728
534,859.899759552264
535,859.8721201682242
536,859.8430675063038
537,859.8126742553995
538,859.7810204660501
539,859.748193064696
540,859.7142853206134
541,859.6793962699791
542,859.6436301014073
543,859.6070955075874
544,859.5699050082895
545,859.5321742506433
546,859.4940212929836
547,859.4555658787216
548,859.4169287068711
549,859.3782307062365
550,859.3395923205354
551,859.301132811284
552,859.2629695839208
553,859.2252175409769
554,859.1879884648486
555,859.1513904321112
556,859.1155272611024
557,859.0804979945619
558,859.0463964195784
559,859.0133106279609
560,858.9813226209902
561,858.9505079627893
562,858.9209354861207
563,858.8926670534929
564,858.8657573753353
565,858.8402538858998
566,858.816196676732
567,858.7936184872455
568,858.7725447519754
569,858.7529937039445
570,858.7349765328299
571,858.7184975953289
572,858.7035546735528
573,858.6901392758758
574,858.6782369738964
575,858.6678277690714
576,858.658886482779
577,858.6513831638935
578,858.6452835084615
579,858.6405492867385
580,858.6371387735808
581,858.6350071791616
582,858.6341070782469
583,858.6343888374547
584,858.6358010404962
585,858.6382909112746
586,858.6418047341588
587,858.6462882699846
588,858.6516871655773
589,858.6579473541168
590,858.6650154436081
591,858.6728390907514
592,858.6813673571721
593,858.6905510442722
594,858.7003430025002
595,858.7106984111679
596,858.7215750259707
597,858.7329333926278
598,858.7447370261341
599,858.7569525558124
600,858.7695498366148
601,858.782502027061
602,858.7957856340743
603,858.809380524869
604,858.8232699059384
605,858.8374402691796
606,858.8518813054395
607,858.8665857862961
608,858.8815494154641
609,858.8967706516224
610,858.9122505046097
611,858.9279923068849
612,858.9440014620642
613,858.9602851723441
614,858.9768521467961
615,858.993712292839
616,859.01087639345
617,859.0283557726846
618,859.0461619519633
619,859.0643062995601
620,859.0827996757591
621,859.1016520760724
622,859.1208722748436
623,859.1404674717326
624,859.160442943998
625,859.1808017080147
626,859.2015441939171
627,859.2226679375029
628,859.2441672935419
629,859.2660331745323
630,859.2882528187691
631,859.3108095911118
632,859.3336828189562
633,859.3568476649765
634,859.3802750376186
635,859.403931540114
636,859.4277794586578
637,859.451776790255
638,859.4758773106695
639,859.5000306828875
640,859.5241826062665
641,859.548275006081
642,859.5722462628681
643,859.5960314811238
644,859.6195627972164
645,859.6427697262174
646,859.665579546416
647,859.6879177189903
648,859.7097083390823
649,859.7308746135886
650,859.7513393604074
651,859.7710255236959
652,859.7898566997482
653,859.8077576681344
654,859.8246549225635
655,859.8404771956267
656,859.8551559715011
657,859.8686259810574
658,859.8808256745584
659,859.8916976678192
660,859.9011891580391
661,859.9092523055942
662,859.9158445783281
663,859.9209290554728
664,859.9244746891185
665,859.9264565218141
666,859.9268558592071
667,859.9256603966595
668,859.9228642987058
669,859.9184682302317
670,859.9124793384754
671,859.9049111854299
672,859.8957836308251
673,859.8851226663385
674,859.8729602019661
675,859.8593338057154
676,859.8442863980979
677,859.8278659032712
678,859.8101248590139
679,859.7911199879692
680,859.7709117328544
681,859.7495637587023
682,859.7271424257559
683,859.7037162372608
684,859.6793552670224
685,859.6541305724323
686,859.6281135999063
687,859.6013755909987
688,859.5739869981043
689,859.5460169182332
690,859.5175325521973
691,859.4885986953897
692,859.4592772654563
693,859.4296268712685
694,859.3997024264737
695,859.369554809744
696,859.3392305731209
697,859.3087716996777
698,859.2782154118084
699,859.2475940314563
700,859.216934893336
701,859.1862603115507
702,859.1555875990886
703,859.1249291388574
704,859.0942925042823
705,859.0636806269184
706,859.0330920079921
707,859.0025209703394
708,858.9719579468627
709,858.9413898013189
710,858.9108001769634
711,858.8801698682158
712,858.8494772101843
713,858.8186984808264
714,858.7878083108295
715,858.7567800967071
716,858.7255864128819
717,858.69419941876
718,858.6625912571188
719,858.6307344403427
720,858.5986022209192
721,858.5661689422318
722,858.5334103653995
723,858.500303967952
724,858.4668292106345
725,858.4329677696551
726,858.3987037331424
727,858.3640237622104
728,858.3289172185283
729,858.2933762612984
730,858.2573959167737
731,858.2209741231424
732,858.1841117534666
733,858.1468126197974
734,858.1090834622809
735,858.0709339275836
736,858.0323765411123
737,857.9934266772038
738,857.9541025306548
739,857.9144250918331
740,857.8744181265295
741,857.8341081608348
742,857.7935244706051
743,857.752699074413
744,857.7116667282565
745,857.670464919746
746,857.6291338591423
747,857.5877164646191
748,857.5462583394497
749,857.5048077392737
750,857.4634155280288
751,857.4221351214056
752,857.3810224166872
753,857.3401357074822
754,857.2995355813638
755,857.259284798116
756,857.2194481462993
757,857.1800922759089
758,857.1412855047666
759,857.1030975961646
760,857.0655995055171
761,857.0288630944062
762,856.9929608111636
763,856.9579653378946
764,856.9239492048085
765,856.8909843739615
766,856.8591417958189
767,856.8284909430784
768,856.799099326952
769,856.7710320017744
770,856.7443510644664
771,856.7191151561617
772,856.6953789742226
773,856.673192803699
774,856.6526020774722
775,856.633646973498
776,856.6163620558322
777,856.6007759640657
778,856.586911153874
779,856.5747836897564
780,856.564403089665
781,856.5557722200979
782,856.5488872394584
783,856.5437375871312
784,856.5403060157771
785,856.538568664609
786,856.5384951717042
787,856.5400488237591
788,856.5431867421588
789,856.5478601046667
790,856.5540144020811
791,856.5615897286083
792,856.5705211036152
793,856.580738821302
794,856.5921688241926
795,856.604733096361
796,856.618350072769
797,856.6329350615705
798,856.6484006765845
799,856.6646572773459
800,856.681613414091
801,856.6991762747599
802,856.7172521309262
803,856.7357467796896
804,856.7545659788072
805,856.7736158724585
806,856.7928034050615
807,856.8120367206394
808,856.8312255455721
809,856.8502815532332
810,856.8691187097234
811,856.8876536000924
812,856.905805733944
813,856.9234978287062
814,856.9406560688467
815,856.9572103400335
816,856.9730944381625
817,856.9882462537455
818,857.0026079323501
819,857.0161260119368
820,857.0287515382587
821,857.0404401599076
822,857.0511522048822
823,857.0608527405344
824,857.0695116184089
825,857.0771035051337
826,857.0836079003071
827,857.0890091421136
828,857.0932964009875
829,857.0964636612586
830,857.0985096906056
831,857.0994379972526
832,857.0992567748402
833,857.0979788346526
834,857.0956215244493
835,857.0922066326482
836,857.0877602759978
837,857.0823127682215
838,857.0758984667331
839,857.068555594807
840,857.0603260376117
841,857.0512551117056
842,857.0413913083142
843,857.0307860108492
844,857.0194931871595
845,857.0075690573645
846,856.9950717387301
847,856.9820608696555
848,856.9685972153662
849,856.9547422584614
850,856.9405577780715
851,856.9261054219045
852,856.9114462756805
853,856.8966404341265
854,856.8817465767414
855,856.8668215504151
856,856.8519199604809
857,856.8370937721933
858,856.8223919253961
859,856.8078599655071
860,856.7935396937538
861,856.779468839403
862,856.7656807570485
863,856.752204152734
864,856.7390628431045
865,856.7262755515708
866,856.7138557450154
867,856.7018115143507
868,856.6901455020804
869,856.6788548794103
870,856.6679313742325
871,856.6573613500558
872,856.6471259353627
873,856.6372012029483
874,856.627558398759
875,856.6181642189725
876,856.6089811328146
877,856.5999677478308
878,856.5910792146294
879,856.5822676691049
880,856.5734827107957
881,856.56467191561
882,856.5557813797795
883,856.5467562903034
884,856.5375415159681
885,856.5280822124445
886,856.518324434776
887,856.5082157504932
888,856.4977058464779
889,856.4867471226481
890,856.475295265775
891,856.4633097975071
892,856.45075459191
893,856.4375983588735
894,856.4238150898365
895,856.409384461444
896,856.3942921917532
897,856.3785303428682
898,856.3620975633265
899,856.344999263341
900,856.3272477166455
901,856.3088620843924
902,856.2898683588459
903,856.2702992268052
904,856.2501938545705
905,856.2295975980948
906,856.2085616439344
907,856.1871425884192
908,856.165401963612
909,856.1434057189268
910,856.1212236669214
911,856.0989289012427
912,856.0765971942708
913,856.054306381675
914,856.0321357406798
915,856.0101653683666
916,855.9884755660327
917,855.9671462354852
