acceleration,velocity,displacement
0.02269040834106755,0.0,0.0
0.022634525735224967,1.133123351907313e-05,2.8328083797682824e-09
0.022560221697861094,2.2629920377344646e-05,1.1323096853872726e-08
0.022467238371159794,3.388678539459987e-05,2.5452273296858856e-08
0.022355372008672363,4.5092437989557906e-05,4.5197079142898296e-08
0.022224472689726188,5.623739916415755e-05,7.052953843132716e-08
0.022074443801176236,6.731212828688316e-05,1.0141692029408734e-07
0.02190524132611615,7.830704956870626e-05,1.378217147579847e-07
0.02171687297939595,8.921257814508428e-05,1.7970162168643233e-07
0.021509397228865964,0.00010001914569714976,2.2700955264699085e-07
0.021282922241373365,0.00011071722556470959,2.796936454624557e-07
0.02103760479270411,0.00012129735732322895,3.3769729118444035e-07
0.020773649179712323,0.00013175017081633306,4.0095917321933085e-07
0.020491306172039196,0.00014206640965427095,4.694133183369818e-07
0.020190872040313466,0.0001522369542073591,5.429891593023894e-07
0.019872687696280766,0.00016225284414150766,6.216116088896061e-07
0.01953713797491976,0.00017210530055930778,7.052011450648099e-07
0.019184651076861667,0.00018178574782225313,7.936739071602002e-07
0.018815698172607538,0.00019128583513462044,8.869418028994186e-07
0.01843079315204864,0.0002005974579657845,9.849126261745199e-07
0.018030492485957294,0.000209712779375286,1.0874901855097875e-06
0.017615395150721302,0.00021862425128445565,1.1945744431747229e-06
0.01718614255678871,0.00022732463571133315,1.30606166492367e-06
0.016743418419668175,0.00023580702595544736,1.4218445803403652e-06
0.016287948520939517,0.00024406486769059928,1.5418125537518767e-06
0.01582050031975788,0.0002520919799007736,1.66585176564972e-06
0.015341882386519387,0.0002598825755773429,1.7938454045192492e-06
0.014852943637764083,0.0002674312820834138,1.9256738689344384e-06
0.014354572357555145,0.0002747331610822436,2.0612149797258527e-06
0.013847694997420603,0.00028178372792098756,2.2003442019766604e-06
0.013333274754155314,0.0002885789703588815,2.3429348765466276e-06
0.012812309932161384,0.0002951153665304607,2.4888584607689633e-06
0.012285832104760364,0.00030138990203969115,2.637984777911501e-06
0.011754904094387012,0.000307400086089478,2.7901822749437936e-06
0.011220617790746042,0.00031314396656076127,2.9453182881063533e-06
0.01068409181794991,0.00031862014396293525,3.1032593157372773e-06
0.010146469052003258,0.00032382778418042356,3.263871297773117e-06
0.009608913985869017,0.0003287666299398916,3.427019901303196e-06
0.009072609943159263,0.00033343701092214867,3.592570811518706e-06
0.008538756148962743,0.00033783985244517916,3.760390027360538e-06
0.008008564671455574,0.00034197668265028376,3.930344161134404e-06
0.007483257247659364,0.0003458496381300625,4.1023007413294904e-06
0.006964062001896426,0.0003494614679424514,4.276128517847619e-06
0.00645221005996585,0.00035281553595791697,4.451697768822711e-06
0.005948932058395344,0.00035591582148750725,4.628880608184067e-06
0.005455454546648985,0.00035876691813876836,4.807551293090636e-06
0.004972996280562486,0.00036137403084557124,4.9875865303367205e-06
0.004502764407817493,0.00036374297101766625,5.1688657808025296e-06
0.004045950551460777,0.00036588014975748583,5.3512715609963175e-06
0.0036037268054217113,0.0003677925690967065,5.5346897407098655e-06
0.0031772416656807795,0.0003694878112144821,5.719009835787663e-06
0.0027676159291186004,0.0003709740256131819,5.904125294994579e-06
0.0023759385957671385,0.00037225991424440333,6.089933779958975e-06
0.002003262808155954,0.0003733547145953841,6.276337437168922e-06
0.0016506018547278003,0.00037426818076110506,6.463243161008044e-06
0.0013189252545855164,0.00037501056253843337,6.650562846832929e-06
0.001009154928704707,0.0003755925825842559,6.838213633113601e-06
0.0007221614496568648,0.0003760254116788463,7.0261181316793765e-06
0.00045876035184748984,0.0003763206421292224,7.2142046451313936e-06
0.0002197084837080326,0.00037649025933811126,7.402407370498227e-06
5.700393810880728e-06,0.00037654661155749096,7.590666588222128e-06
-0.00018263524264457756,0.00037650237784528254,7.778928835572821e-06
-0.00034473914186914853,0.0003763705342491541,7.96714706359643e-06
-0.0004801248584782339,0.00037616431824906725,8.155280776720986e-06
-0.000588382146621288,0.0003758971914977924,8.343296154157702e-06
-0.0006691802154457504,0.0003755828009072756,8.531166152258969e-06
-0.0007222708463691802,0.0003752349381418219,8.718870587021244e-06
-0.0007474913221463765,0.000374867497599693,8.906396195956623e-06
-0.0007447671014057226,0.00037449443299380494,9.093736678604997e-06
-0.0007141141636245255,0.00037412971267754736,9.280892715022835e-06
-0.0006556409507057197,0.0003737872738989648,9.467871961666963e-06
-0.0005695498395636657,0.0003734809762013975,9.654689024192053e-06
-0.00045613809156623856,0.00037322455421861503,9.841365406797056e-06
-0.0003157982376935216,0.0003730315701363001,1.0027929437885785e-05
-0.00014901787254933702,0.0003729153661087394,1.0214416171947045e-05
4.362115491743998e-05,0.0003728890169293314,1.0400867267706562e-05
0.00026144415286853,0.0003729652832562779,1.0587330842752964e-05
0.00050368558944957,0.00037315656569185743,1.0773861304989998e-05
0.0007694916698048548,0.000373474860006671,1.096051916141463e-05
0.0010579234638772664,0.0003739317137900915,1.1147370804863821e-05
0.0013679605538105672,0.00037453818479451346,1.1334488279509971e-05
0.0016985051601043815,0.0003753048012229922,1.1521949026014348e-05
0.0020483866973995215,0.0003762415241873682,1.1709835607366938e-05
0.002416366706601803,0.0003773577125383685,1.1898235416548372e-05
0.002801144109319011,0.00037866209024234874,1.2087240367243551e-05
0.0032013607309289904,0.0003801627164524107,1.2276946568917241e-05
0.0036156070398102678,0.0003818669583950955,1.2467453987629117e-05
0.004042428053801416,0.0003837814671684984,1.2658866094020015e-05
0.004480329370360409,0.00038591215652453886,1.2851289499943276e-05
0.0049277832821337285,0.0003882641846876624,1.3044833585246327e-05
0.005383234944029097,0.0003908419392442031,1.3239610116229294e-05
0.005845108561600005,0.0003936490251206104,1.3435732857320498e-05
0.006311813573745617,0.0003966882556544468,1.3633317177514262e-05
0.006781750807141044,0.00039996164674966847,1.383247965311529e-05
0.007253318586781198,0.000403470414098149,1.4033337668327245e-05
0.007724918793613866,0.00040721497344324776,1.4236009015212595e-05
0.008194962861444482,0.00041119494385701233,1.444061149453766e-05
0.008661877701487177,0.00041540915399774527,1.464726251900135e-05
0.009124111539007764,0.000419855651307869,1.4856078720327753e-05
0.009580139646376822,0.0004245317141042151,1.5067175561680775e-05
0.010028469958719978,0.00042943386650548933,1.5280666956833203e-05
0.010467648558410973,0.00043455789613477204,1.5496664897493267e-05
0.010896265012343313,0.00043989887452746063,1.5715279090158825e-05
0.011312957543200898,0.00044545118016634666,1.5936616603832278e-05
0.011716418015211826,0.0004512085240559498,1.616078152988785e-05
0.012105396716724177,0.00045716397773893383,1.6387874655336572e-05
0.012478706926357865,0.0004633100036497043,1.6617993150683733e-05
0.01283522925427262,0.00046963848769486196,1.6851230273519876e-05
0.013173915752178173,0.0004761407739464747,1.708767508893021e-05
0.013493793782860712,0.0004828077013302344,1.7327412207749388e-05
0.013793969633552875,0.0004896296421843378,1.757052154362803e-05
0.01407363185005119,0.0004965965425552389,1.7817078089812925e-05
0.014332054261516567,0.0005036979640831308,1.8067151716472517e-05
0.014568598661075011,0.0005109231273137787,1.8320806989321745e-05
0.014782717106838933,0.0005182609562557572,1.857810301021413e-05
0.014973953811196003,0.0005257001239852659,1.8839093280274384e-05
0.01514194659157985,0.0005332290990859599,1.910382558604219e-05
0.01528642786454377,0.0005408361926999908,1.9372341908988677e-05
0.015407225177593275,0.000548509605960525,1.9644678358653806e-05
0.015504261287115196,0.0005562374775767022,1.9920865129538113e-05
0.01557755380245103,0.0005640079313490937,2.020092648176956e-05
0.015627214425431066,0.0005718091234060643,2.048488074545835e-05
0.01565344782112481,0.0005796292889677033,2.0772740348551792e-05
0.015656550158221493,0.0005874567884625399,2.1064511867909353e-05
0.01563690735605373,0.0005952801528411087,2.1360196103235266e-05
0.01559499306898549,0.0006030881279473685,2.1659788173432384e-05
0.015531366426829632,0.0006108697178213223,2.1963277634874556e-05
0.015446669535569764,0.0006186142268119222,2.2270648621032866e-05
0.01534162473279554,0.0006263113003790135,2.25818800028306e-05
0.015217031587984188,0.0006339509644592084,2.2896945569040157e-05
0.015073763632907623,0.0006415236632644314,2.3215814225971067e-05
0.014912764799036459,0.0006490202953724174,2.353845021563028e-05
0.014735045531924697,0.0006564322479551577,2.3864813351462174e-05
0.014541678553556342,0.000663751428976528,2.4194859270695096e-05
0.014333794253651881,0.00067097029717833,2.452853970223381e-05
0.014112575706506437,0.0006780818896683695,2.4865802748945486e-05
0.013879253325167104,0.0006850798469262879,2.5206593183094148e-05
0.013635099173967373,0.0006919584350510716,2.5550852753588488e-05
0.013381420963062237,0.000698712565085329,2.589852050362259e-05
0.013119555748426926,0.0007053378092632013,2.6249533097209723e-05
0.012850863361458366,0.0007118304140406726,2.660382515303569e-05
0.012576719596343674,0.0007181873097801231,2.6961329583990892e-05
0.012298509193645902,0.0007244061169776205,2.7321977940680328e-05
0.012017618674790412,0.0007304851489447296,2.7685700757160917e-05
0.011735429097406158,0.0007364234108877787,2.8052427897119045e-05
0.011453308809227286,0.000742220595364437,2.84220888986821e-05
0.01117260627955838,0.0007478770741366334,2.8794613316057367e-05
0.010894643086664242,0.0007533938864781891,2.9169931056211073e-05
0.010620707135786712,0.0007587727240338019,2.954797270883907e-05
0.010352046172688886,0.0007640159123609208,2.992866986793775e-05
0.010089861643611312,0.0007691263893149959,3.031195544335673e-05
0.009835302939451817,0.0007741076804607616,3.069776396080067e-05
0.009589462052621922,0.0007789638717087801,3.1086031848843055e-05
0.009353368668610912,0.0007836995793890883,3.147669771161752e-05
0.009127985710169696,0.0007883199179837834,3.186970258596074e-05
0.008914205349874341,0.0007928304657487944,3.2264990181893884e-05
0.00871284550507599,0.0007972372284625319,3.266250710544672e-05
0.00852464682660506,0.0008015466015454521,3.3062203062948715e-05
0.008350270189938147,0.0008057653307995879,3.3464031046034975e-05
0.008190294696525404,0.0008099004720212037,3.386794749674017e-05
0.008045216193936087,0.000813959349743819,3.427391245218143e-05
0.00791544632659073,0.0008179495153739508,3.468188966846087e-05
0.007801312132387224,0.0008218787049886953,3.5091846723551536e-05
0.007703056198743697,0.000825754797071478,3.550375509906658e-05
0.007620837379869851,0.0008295857704661314,3.5917590240950986e-05
0.0075547320580178125,0.0008333796628256033,3.633333159927392e-05
0.007504735912373052,0.000837144529818201,3.675096264743487e-05
0.00747076614474895,0.0008408884053324815,3.717047088122254e-05
0.007452664103795194,0.0008446192628946175,3.759184779827931e-05
0.007450198248833295,0.0008483449784827746,3.801508885862366e-05
0.007463067397855471,0.0008520732948944468,3.844019342696796e-05
0.007490904206493896,0.0008558117877955342,3.886716469764046e-05
0.007533278823772406,0.0008595678335531008,3.929600960297762e-05
0.007589702670863692,0.0008633485789267598,3.9726738706097586e-05
0.0076596322963307225,0.0008671609126685584,4.0159366078996414e-05
0.007742473276664343,0.0008710114390618072,4.059390916692901e-05
0.007837584151377284,0.0008749064534188176,4.1030388640049164e-05
0.007944280402789605,0.0008788519195573593,4.146882823329321e-05
0.008061838505777493,0.0008828534492845012,4.190925457550368e-05
0.00818950007612571,0.0008869162839299769,4.2351697008807294e-05
0.008326476137437713,0.0008910452779833678,4.279618739928563e-05
0.008471951512723773,0.0008952448848959082,4.324275994000545e-05
0.008625089334849791,0.0008995191451078015,4.369145094750638e-05
0.008785035661113123,0.0009038716763567923,4.4142298652872525e-05
0.008950924168235412,0.0009083056663141294,4.4595342988540255e-05
0.009121880893634826,0.0009128238675795969,4.5050625372013686e-05
0.009297028979132862,0.0009174285950477888,4.550818848767053e-05
0.009475493367108572,0.0009221217256343492,4.596807606784106e-05
0.009656405398231205,0.0009269047003256842,4.643033267433107e-05
0.009838907263575015,0.0009317785284911357,4.6895003481535275e-05
0.010022156269587705,0.0009367437943744263,4.736213406225167e-05
0.010205328879442997,0.000941800665661684,4.7831770177260695e-05
0.010387624498157425,0.000946948904006084,4.830395756967764e-05
0.010568268972981932,0.0009521878773738689,4.877874176502263e-05
0.010746517787250555,0.0009575165740639271,4.925616787788208e-05
0.01092165893338427,0.0009629336182440858,4.973628042595908e-05
0.011093015455355829,0.0009684372868412708,5.021912315223042e-05
0.011259947650091702,0.0009740255276176327,5.0704738855845146e-05
0.011421854912661249,0.000979695978258321,5.119316923231413e-05
0.01157817720504676,0.000985445986287748,5.168445472345065e-05
0.011728396125559502,0.0009912726296203995,5.2178634377427685e-05
0.011872035556654918,0.0009971727375409532,5.2675745719218024e-05
0.01200866187333227,0.00100314291189845,5.317582463157788e-05
0.012137883702639192,0.001009179548292443,5.36789052466256e-05
0.012259351236511548,0.0010152788570272305,5.418501984795552e-05
0.012372755112984017,0.0010214368836146044,5.469419878311597e-05
0.012477824892170914,0.001027649528615893,5.5206470386173595e-05
0.012574327161139235,0.0010339125666292207,5.572186090998487e-05
0.012662063306195683,0.0010402216642460545,5.624039446770369e-05
0.012740866993859984,0.0010465723968210684,5.676209298297047e-05
0.012810601402977751,0.0010529602639202777,5.72869761481558e-05
0.012871156248506523,0.0010593807033331488,5.781506138996916e-05
0.01292244463311802,0.001065829103553555,5.834636384169083e-05
0.012964399760935044,0.0010723008146520682,5.8880896321242236e-05
0.012996971552521682,0.0010787911574804325,5.941866931427536e-05
0.01302012321007487,0.0010852954311710817,5.995969096143824e-05
0.013033827789833915,0.001091808918921059,6.0503967048961274e-05
0.013038064839887202,0.0010983268920784892,6.105150100171115e-05
0.013032817156969667,0.0011048446125777034,6.16022938778752e-05
0.013018067709840053,0.0011113573337944058,6.215634436446822e-05
0.012993796771033109,0.0011178602999146242,6.271364877289548e-05
0.012959979291925494,0.0011243487439303638,6.327420103385672e-05
0.012916582547964833,0.0011308178843903362,6.383799269093689e-05
0.012863564073896343,0.0011372629210458015,6.440501289229592e-05
0.012800869904127772,0.0011436790295403076,6.497524837994245e-05
0.012728433130732094,0.0011500613552990226,6.554868347615228e-05
0.012646172790877245,0.001156405006779425,6.612530006667189e-05
0.012553993097884684,0.0011627050482516156,6.670507758042965e-05
0.012451783035240119,0.0011689564922848967,6.728799296556377e-05
0.012339416337270209,0.0011751542921280243,6.7874020661667e-05
0.012216751879911744,0.0011812933341823198,6.846313256824459e-05
0.012083634500399792,0.0011873684307773978,6.905529800948452e-05
0.01193989625802563,0.0011933743134670042,6.965048369554561e-05
0.01178535813924315,0.0011993056270663213,7.024865368067894e-05
0.011619832196693434,0.0012051569246503055,7.08497693186081e-05
0.011443124093636013,0.001210922663722888,7.14537892157014e-05
0.011255036007234253,0.0012165972037481054,7.206066918256915e-05
0.011055369830577887,0.0012221748052075585,7.267036218480807e-05
0.010843930604632866,0.0012276496303163613,7.328281829368906e-05
0.010620530106200303,0.0012330157454940695,7.389798463764166e-05
0.01038499051574359,0.0012382671256495556,7.451580535542757e-05
0.010137148088823204,0.0012433976603006972,7.513622155191514e-05
0.00987685675616488,0.0012484011615119441,7.57591712573683e-05
0.009603991579994423,0.001253271373595984,7.638458939114528e-05
0.009318451999795783,0.0012580019844909316,7.701240773066702e-05
0.009020164809755312,0.0012625866386933194,7.764255488646308e-05
0.008709086821378756,0.0012670189516011028,7.827495628403669e-05
0.008385207174851764,0.0012712925251001604,7.8909534153212e-05
0.00804854926993924,0.0012754009642113582,7.954620752553988e-05
0.007699172291670508,0.0012793378946017607,8.018489224024316e-05
0.007337172308260408,0.0012830969807517433,8.082550095908154e-05
0.006962682918179269,0.0012866719445583533,8.146794319040906e-05
0.00657587542164351,0.001290056584143309,8.211212532258448e-05
0.006176958493420293,0.001293244792622075,8.275795066677583e-05
0.005766177342702857,0.0012962305765811058,8.340531950907663e-05
0.005343812361939668,0.0012990080740072664,8.405412917172372e-05
0.004910177284616966,0.0013015715714189055,8.470427408308027e-05
0.0044656168868918485,0.0013039155199617827,8.535564585592543e-05
0.0040105042775553405,0.0013060345502528944,8.60081333734791e-05
0.0035452378273933874,0.0013079234857791317,8.66616228824871e-05
0.003070237794707457,0.0013095773546846568,8.731599809260305e-05
0.0025859427082744334,0.0013109913998104023,8.797114028122681e-05
0.002092805569990527,0.0013121610868799686,8.86269284028994e-05
0.0015912899349817746,0.0013130821107562116,8.928323920230845e-05
0.0010818659188731087,0.0013137503997196754,8.993994732992743e-05
0.0005650061740111588,0.0013141621177428964,9.059692545929307e-05
4.118187186457285e-05,0.0013143136647543654,9.125404440491738e-05
-0.000489141271258883,0.001314201674904517,9.19111732398321e-05
-0.0010255068833403703,0.001313823012865867,9.25681794117747e-05
-0.001567471691334355,0.0013131747682221984,9.322492885704671e-05
-0.0021146090883008397,0.0013122542480272896,9.388128611110908e-05
-0.0026665124651441253,0.0013110589676389283,9.453711441502564e-05
-0.0032227982724524215,0.0013095866399545292,9.519227581692401e-05
-0.003783108793627427,0.0013078351631880091,9.584663126770964e-05
-0.004347114622953389,0.001305802607333864,9.650004071034012e-05
-0.004914516848863147,0.0013034871994659098,9.715236316204005e-05
-0.00548504894206302,0.0013008873080181784,9.780345678891107e-05
-0.00605847834128689,0.0012980014261973409,9.845317897246495e-05
-0.006634607721157653,0.0012948281546817297,9.910138636768473e-05
-0.007213275921983482,0.0012913661837709444,9.974793495229789e-05
-0.007794358521286487,0.001287614275160127,0.00010039268006703065
-0.00837776802889924,0.0012835712435225806,0.00010103547644670133
-0.00896345368825797,0.0012792359380932913,0.0001016761782421053
-0.009551400865028255,0.0012746072244549697,0.00010231463903274237
-0.01014163000231712,0.0012696839667381333,0.00010295071183054065
-0.01073419512222357,0.001264465010456998,0.00010358424907483942
-0.011329181856689356,0.00125894916621227,0.00010421510261900673
-0.011926704995999732,0.0012531351944990977,0.00010484312370918458
-0.012526905551889766,0.0012470217918621252,0.00010546816295577488
-0.013129947344508078,0.0012406075786380256,0.00010609007029839991
-0.013736013138245988,0.001233891088517337,0.00010670869496518874
-0.014345300369800836,0.0012268707601403254,0.00010732388542735316
-0.014958016530380045,0.0012195449309152801,0.00010793548935011706
-0.015574374277428608,0.001211911833213328,0.0001085433535411492
-0.016194586357481774,0.0012039695930546003,0.00010914732389771619
-0.016818860424387447,0.001195716231359133,0.00010974724535381962
-0.01744739383968009,0.001187149667793116,0.00011034296182860768
-0.018080368541802134,0.0011782677271977454,0.0001109343161773554
-0.01871794606527528,0.001169068148545976,0.00011152115014629132
-0.01936026278193094,0.0011595485963341744,0.00011210330433251136
-0.020007425427976507,0.0011497066742816974,0.00011268061815016533
-0.020659506973405583,0.001139539941181352,0.0001132529298040311
-0.021316542882254094,0.0011290459287174371,0.0001138200762715058
-0.021978527802220132,0.0011182221610463185,0.00011438189329394674
-0.022645412708824534,0.0011070661759185574,0.00011493821537818796
