frame_number,force
0,558.3897100000261
1,559.0738301116074
2,559.7269816100638
3,560.3208345913329
4,560.8319866986183
5,561.2436358030493
6,561.5465001482704
7,561.7389815228569
8,561.8266684299538
9,561.821327874004
10,561.7395368732895
11,561.6010841455799
12,561.4272610806331
13,561.2391645983548
14,561.0561327722749
15,560.8944199764435
16,560.766204813522
17,560.6790129819676
18,560.6356132253924
19,560.634396741011
20,560.6701810753424
21,560.7353043218906
22,560.8208222185727
23,560.9176147644258
24,561.0172570456606
25,561.1125948023976
26,561.198050956702
27,561.2697315045028
28,561.3253863771213
29,561.3642492436101
30,561.3867704857915
31,561.3942710558226
32,561.3885617694385
33,561.3715853112051
34,561.3451454972385
35,561.3107794309294
36,561.2697921238575
37,561.2234172090808
38,561.1730197530038
39,561.1202469310189
40,561.0670632058119
41,561.0156541676034
42,560.9682207547073
43,560.9267071213342
44,560.892518357119
45,560.866289756943
46,560.8477606791888
47,560.835782266589
48,560.8284576043891
49,560.823383572087
50,560.8179428379578
51,560.8095911156174
52,560.796101334185
53,560.7757514589616
54,560.7474603646609
55,560.7108786347893
56,560.6664333062079
57,560.6153190595962
58,560.5594281651272
59,560.5012133155229
60,560.4434829193931
61,560.3891464299026
62,560.3409515776364
63,560.30126227118
64,560.2719073669449
65,560.2541080783319
66,560.248481712306
67,560.2551066283104
68,560.2736054137429
69,560.303185828308
70,560.3426032445767
71,560.3900623074112
72,560.4431184878375
73,560.4986502222366
74,560.5529563733144
75,560.6020017803592
76,560.6417918855182
77,560.6688216871214
78,560.6805287049584
79,560.6756762604492
80,560.6545907956801
81,560.6191875217482
82,560.5727607578245
83,560.5195804773128
84,560.464390576889
85,560.4119144998948
86,560.3664386317922
87,560.3314993152469
88,560.3096811119774
89,560.3025371471925
90,560.3106355483924
91,560.3337067323843
92,560.3708347537184
93,560.4206271177818
94,560.4813175410236
95,560.5507961818615
96,560.6266048961944
97,560.7059571807835
98,560.7858281977278
99,560.863119832848
100,560.9348656987364
101,560.9984242710632
102,561.0516235751179
103,561.0928542194548
104,561.1211310650032
105,561.136144611464
106,561.1383101818659
107,561.1288040089617
108,561.1095541587601
109,561.0831449736495
110,561.0526104146675
111,561.0211271089255
112,560.9916506266865
113,560.9665565224249
114,560.9473539918112
115,560.9345374286777
116,560.927622107728
117,560.9253688387328
118,560.9261501045737
119,560.9283687660494
120,560.9308268849358
121,560.9329628550712
122,560.9349204667765
123,560.9374603852194
124,560.9417559856043
125,560.9491342488237
126,560.9608345393522
127,560.9778563229991
128,561.0009390079571
129,561.0306648347307
130,561.06762135234
131,561.1125335635494
132,561.1662932092003
133,561.2298621983889
134,561.3040764067957
135,561.3893974159594
136,561.4856545180972
137,561.5918111806183
138,561.7057941635823
139,561.8244313404102
140,561.9435412080519
141,562.0581975722793
142,562.1631574589913
143,562.2533951158375
144,562.3246488909485
145,562.3738819152612
146,562.3995845990593
147,562.4018906207122
148,562.3825179421098
149,562.34456945207
150,562.2922329735014
151,562.2304142918498
152,562.1643265518758
153,562.0990521905974
154,562.0390971612188
155,561.98797090233
156,561.9478404356198
157,561.9193161103973
158,561.9014241736205
159,561.8917999951316
160,561.8870950749117
161,561.883542067248
162,561.8775788891243
163,561.8664081093782
164,561.8483753240812
165,561.8230973598158
166,561.7913427655578
167,561.7547322546957
168,561.7153621698677
169,561.6754496797213
170,561.6370582908057
171,561.6019140764829
172,561.5712999445823
173,561.5460198162328
174,561.5264345611885
175,561.5125722108561
176,561.5043061596657
177,561.5015812936034
178,561.5046531266462
179,561.51429006753
180,561.5318762965516
181,561.5593540390156
182,561.5989739264699
183,561.6528792264583
184,561.722611048821
185,561.8086593160041
186,561.9101797701293
187,562.0249465397496
188,562.1495342114088
189,562.2796662701197
190,562.4106544834768
191,562.5378680517689
192,562.6571781407472
193,562.765317591037
194,562.8601003486818
195,562.9404744771388
196,563.006420797427
197,563.0587325464801
198,563.0987195677949
199,563.1278907704612
200,563.1476809754382
201,563.1592790945028
202,563.1635722282631
203,563.1611680880857
204,563.1524323389187
205,563.1374921982643
206,563.1161980007516
207,563.0880764173894
208,563.0523341631218
209,563.0079651455407
210,562.9539723296832
211,562.8896576371677
212,562.8148983956324
213,562.7303428140248
214,562.6375017545445
215,562.5387429399742
216,562.4371836063293
217,562.3364572652613
218,562.2403414953868
219,562.1522779148231
220,562.0748593586294
221,562.0093758113514
222,561.9554958084353
223,561.9111300696554
224,561.872504525469
225,561.834465480151
226,561.7910235133251
227,561.7360960146024
228,561.6643532023458
229,561.5720446711593
230,561.4576878837097
231,561.3225137574582
232,561.1705766003017
233,561.0084641651281
234,560.8446063430159
235,560.6882670209181
236,560.5483838400567
237,560.432467625944
238,560.3457667762335
239,560.2908373850314
240,560.2675579763022
241,560.2735253026302
242,560.3046952643465
243,560.3560978107697
244,560.4224513716516
245,560.4985392709456
246,560.5792986157406
247,560.6596849045512
248,560.7344564942933
249,560.7980378850734
250,560.8445782738812
251,560.8682506182984
252,560.8637625845355
253,560.8269905149685
254,560.7556112089436
255,560.64960350356
256,560.5115228709092
257,560.346500749448
258,560.1619657571586
259,559.9671176194922
260,559.7722072808765
261,559.5876923382335
262,559.4233503963154
263,559.2874453165344
264,559.1860472396502
265,559.1225973021312
266,559.0977770861572
267,559.1096959725128
268,559.1543538894789
269,559.2262779795457
270,559.319188481299
271,559.4265558187466
272,559.5419796321947
273,559.6594115998615
274,559.7732964548551
275,559.8786960701943
276,559.9714176650692
277,560.0481312952927
278,560.1064544004337
279,560.1449928458889
280,560.1633337760551
281,560.1619752867406
282,560.1421722021838
283,560.1057007927218
284,560.0545877625103
285,559.9908743551432
286,559.9164765211723
287,559.8331676242135
288,559.7426679767783
289,559.6467905590122
290,559.5475850364454
291,559.4474498204661
292,559.3492166937541
293,559.2562170400134
294,559.1723069632616
295,559.1017898214161
296,559.0491681881548
297,559.0187034250333
298,559.013841953509
299,559.0366355356166
300,559.0872993362394
301,559.1640149316232
302,559.2630236154592
303,559.3789948283257
304,559.5056037282138
305,559.6362110296076
306,559.7645157513624
307,559.8850626847521
308,559.9935341293418
309,560.0868196975803
310,560.1629122470443
311,560.2207111011461
312,560.2598255222066
313,560.280456555891
314,560.2833879451728
315,560.2700496311552
316,560.2425662815135
317,560.2037041948344
318,560.1566857323284
319,560.1049139255181
320,560.0516939249547
321,560.0000301428914
322,559.9525311755248
323,559.9114043076819
324,559.8784986989004
325,559.8553629160866
326,559.8432945441294
327,559.8433607731434
328,559.8563678012686
329,559.882766766091
330,559.9225032182029
331,559.9748394097097
332,560.0382010358474
333,560.110115616259
334,560.1873063665508
335,560.2659746213724
336,560.3422469523392
337,560.4126985073664
338,560.4748261737518
339,560.5273601953352
340,560.5703649021716
341,560.6051544366156
342,560.6340988638597
343,560.6603972441545
344,560.6878539822309
345,560.7206455296423
346,560.763041098437
347,560.8190556898764
348,560.8920503952437
349,560.9843256752329
350,561.0967621035315
351,561.2285547706479
352,561.3770751271097
353,561.537883163984
354,561.704901979304
355,561.8707534189699
356,562.027236746501
357,562.1659160660216
358,562.2787737729182
359,562.3588873434509
360,562.4010844292818
361,562.4025171796011
362,562.363079830886
363,562.2855923918205
364,562.1756936743474
365,562.0414230200695
366,561.8925170069597
367,561.739497989208
368,561.5926690454089
369,561.4611381671904
370,561.3519729987286
371,561.2695577302921
372,561.2152106111346
373,561.1871224440553
374,561.1806656017734
375,561.1890772091845
376,561.2044417374118
377,561.2188131312333
378,561.2252694288135
379,561.2187216720039
380,561.1963897561947
381,561.1579485442342
382,561.105392867709
383,561.0426766178772
384,560.9751757798749
385,560.9090241706848
386,560.85038171208
387,560.8047191111765
388,560.7762252877824
389,560.767438926442
390,560.7791548571572
391,560.8105710917014
392,560.8595720141473
393,560.923040849971
394,560.9971591964061
395,561.0777159116585
396,561.1604505821999
397,561.2414120380757
398,561.3172792837521
399,561.3855983097353
400,561.444916173902
401,561.4948185575897
402,561.5358830426576
403,561.5695446072766
404,561.597852059111
405,561.6231054823473
406,561.6474133694629
407,561.6722629658697
408,561.6982106872571
409,561.7247515539887
410,561.7503531407081
411,561.7726001592807
412,561.7884112805872
413,561.7943277458389
414,561.7868903185037
415,561.763100163166
416,561.7209155711108
417,561.6597016346693
418,561.5805437808201
419,561.4863539451925
420,561.3817284902377
421,561.2725562928028
422,561.1654226483491
423,561.0669021495722
424,560.982864237495
425,560.9179077909149
426,560.8749935298001
427,560.8552855630568
428,560.8581835320387
429,560.8815262657863
430,560.9219412472752
431,560.9752795457354
432,561.0370439502173
433,561.1027375999086
434,561.1681277417434
435,561.2294709021684
436,561.2837293382833
437,561.3287430015249
438,561.3632782090227
439,561.3869056191752
440,561.3997448914657
441,561.4021788927469
442,561.3946384447878
443,561.3775102495787
444,561.3511760356383
445,561.3161685338803
446,561.2734148066904
447,561.2245176735922
448,561.172002310594
449,561.1194348765885
450,561.0713218433831
451,561.0327438458171
452,561.0087622294376
453,561.0037239470811
454,561.0206374790718
455,561.0607753660742
456,561.1235879921421
457,561.2069255433927
458,561.3074958878925
459,561.4214468461834
460,561.5449472673496
461,561.6746497290111
462,561.807949375305
463,561.9430029335724
464,562.0785249230878
465,562.2134214199016
466,562.3463523344514
467,562.4753324808013
468,562.5974845047256
469,562.7090294694499
470,562.8055388421384
471,562.8823961777862
472,562.9353625300399
473,562.9611263128122
474,562.9577440203666
475,562.924924211014
476,562.8641449392707
477,562.778609579635
478,562.6730513127508
479,562.5534080045708
480,562.426398615332
481,562.2990264765497
482,562.1780249091601
483,562.0692724841446
484,561.9772417993175
485,561.904575585987
486,561.8518728601722
487,561.8177137128706
488,561.798889925412
489,561.7907844995617
490,561.7878657599065
491,561.7842917974758
492,561.7746122538455
493,561.7545025509921
494,561.7214095797337
495,561.6749702926941
496,561.6171005725768
497,561.5517243488563
498,561.4841894169663
499,561.4204717256378
500,561.366296386187
501,561.3263039680431
502,561.3033745511373
503,561.2982000070674
504,561.3091641650443
505,561.3325424111899
506,561.3629747020015
507,561.3941196844768
508,561.4193780345593
509,561.432584073542
510,561.4285980169877
511,561.4037693779492
512,561.3562679310893
513,561.2862841508281
514,561.1960927071897
515,561.0899686373324
516,560.9739565436743
517,560.8555066504784
518,560.7429891382944
519,560.6450823229437
520,560.5700277384236
521,560.5247800013584
522,560.5141445984491
523,560.540053204924
524,560.6011317982935
525,560.6926653445678
526,560.8069851072917
527,560.934228893506
528,561.0633590863541
529,561.18328091787
530,561.2839050179018
531,561.3570434735389
532,561.3970898601646
533,561.4014777116329
534,561.3709148570196
535,561.3093562084345
536,561.2236498776916
537,561.1228215522372
538,561.0170457695966
539,560.916437731132
540,560.8298462615298
541,560.7638321314226
542,560.7219833589699
543,560.7046630519394
544,560.709222234435
545,560.7306457472577
546,560.7625310459605
547,560.7982342499272
548,560.8319748604506
549,560.8596911155669
550,560.8794911078297
551,560.891639371046
552,560.8981256770211
553,560.9019502399071
554,560.9063048992693
555,560.9138235832982
556,560.926025586883
557,560.9430097748127
558,560.9634059573903
559,560.984558760297
560,561.0028998675523
561,561.0144505734777
562,561.0153860425928
563,561.0025818645827
564,560.9740597335873
565,560.9292702383095
566,560.8691948278839
567,560.7962859725942
568,560.7142720585398
569,560.6278426748582
570,560.5422289818666
571,560.4627160839116
572,560.3941513369299
573,560.3405134417471
574,560.304578496732
575,560.2876905665665
576,560.2896399799407
577,560.3086644883119
578,560.3415922105384
579,560.3841288599384
580,560.4312635479055
581,560.4777438907203
582,560.5185635051488
583,560.5494147669598
584,560.5670766447978
585,560.5697155349139
586,560.5570711614452
587,560.530492614256
588,560.4927986455101
589,560.4479637739241
590,560.4006638978193
591,560.3557412892377
592,560.3176676734391
593,560.2900860751606
594,560.2754838312761
595,560.2750055605782
596,560.2883933441021
597,560.3140520868744
598,560.3492489674107
599,560.3904376145687
600,560.433661688625
601,560.4749735137908
602,560.5108170549556
603,560.5383536523898
604,560.5557246436605
605,560.562237054152
606,560.5584428904042
607,560.5460774637575
608,560.5278286662972
609,560.5069264131726
610,560.4865807475727
611,560.4693577125795
612,560.4566334292546
613,560.4482740674403
614,560.4426404992579
615,560.4369236473186
616,560.4277179484434
617,560.4116874941783
618,560.386192038474
619,560.349785271172
620,560.3025326447264
621,560.2461132221323
622,560.1836885125552
623,560.1195514889073
624,560.058601373414
625,560.005709784402
626,559.9650500660204
627,559.9394698178597
628,559.9300097703579
629,559.9356917925847
630,559.9536711216928
631,559.979752941598
632,560.0091495075337
633,560.03727078562
634,560.0603450191331
635,560.0757499864071
636,560.082053401941
637,560.0788533549354
638,560.06654144022
639,560.0460864360114
640,560.0188837300992
641,559.9866625049141
642,559.9514086787926
643,559.9152616196102
644,559.8803753543207
645,559.8487732129292
646,559.8222333683476
647,559.8022156010096
648,559.789810053675
649,559.7856874304018
650,559.7900492587339
651,559.802590369147
652,559.8224852203391
653,559.8484094480915
654,559.87862187769
655,559.911146137911
656,559.9440698080451
657,559.9759137818712
658,560.0059580069193
659,560.0343974412776
660,560.0622559415217
661,560.0910689216544
662,560.1224153812061
663,560.1574190679079
664,560.1963471944439
665,560.2384167592413
666,560.2818765393267
667,560.3243674471779
668,560.3634832318849
669,560.3973895712263
670,560.425347073078
671,560.4480206862528
672,560.4675136577004
673,560.4871194594826
674,560.5108403191481
675,560.542769672801
676,560.5864587620457
677,560.6443748448022
678,560.7175232397227
679,560.8052696492763
680,560.9053704967656
681,561.0141907995707
682,561.1270620412223
683,561.2387188407731
684,561.343758328674
685,561.4370804306001
686,561.5142772202826
687,561.5719416304322
688,561.6078697239863
689,561.621144098553
690,561.61210270283
691,561.5822107563855
692,561.5338655531785
693,561.4701721539519
694,561.3947235977272
695,561.311401463539
696,561.2241898712865
697,561.1369810506275
698,561.0533591494432
699,560.9763852856158
700,560.9084455561397
701,560.851224880354
702,560.8058215426249
703,560.7729525158217
704,560.7531610592962
705,560.7469421011803
706,560.7547377394233
707,560.7768081594847
708,560.8130332981831
709,560.8627237112207
710,560.9245028893893
711,560.9962845830471
712,561.0753361860434
713,561.1584029961167
714,561.2418639700846
715,561.3218989966348
716,561.3946695689671
717,561.4565292473676
718,561.504269984837
719,561.5353891935466
720,561.5483559539349
721,561.542859599677
722,561.5200150523789
723,561.4824727158128
724,561.4343644121443
725,561.3810363611295
726,561.3285689483087
727,561.2831350102314
728,561.2502873038522
729,561.2342874014068
730,561.2375865933884
731,561.260539175368
732,561.3013774733902
733,561.3564279553302
734,561.4205196913001
735,561.4875329536894
736,561.5510406131481
737,561.6049910339166
738,561.6443670793248
739,561.6657446213644
740,561.667677279196
741,561.6508504281331
742,561.6179679287864
743,561.5733575645876
744,561.522313943259
745,561.4702477194987
746,561.4217677583973
747,561.3798608559119
748,561.3453314112874
749,561.316625453802
750,561.2901029367035
751,561.2607437201259
752,561.2231812355658
753,561.1728728355616
754,561.1071665002465
755,561.0260329912578
756,560.9323051271917
757,560.8313837672446
758,560.7304961410632
759,560.6376822748219
760,560.5607126324708
761,560.5061119073774
762,560.4784099842285
763,560.4796877632899
764,560.509443153982
765,560.5647690242635
766,560.640803448341
767,560.7313803666425
768,560.8297796640121
769,560.9294559820885
770,561.0246254835891
771,561.1106246746406
772,561.1840272456711
773,561.2425836575794
774,561.2850905851925
775,561.3112837999187
776,561.3217933691374
777,561.3181386802631
778,561.3027058993633
779,561.2786537879809
780,561.2497229327721
781,561.2199578542558
782,561.1933779343118
783,561.173648418871
784,561.1638032290701
785,561.1660501626073
786,561.1816546719692
787,561.2108782624583
788,561.2529579221269
789,561.3061376691753
790,561.3677743379197
791,561.4345290885142
792,561.5026365373682
793,561.5682278678811
794,561.6276763001007
795,561.6779296150576
796,561.7167899336675
797,561.7430953559544
798,561.7567593631361
799,561.7586435422514
800,561.7502808426856
801,561.7335134509724
802,561.7101298654835
803,561.6815662248038
804,561.6487024966195
805,561.61177015967
806,561.5703960436321
807,561.5238041645727
808,561.4711593049998
809,561.4119781292457
810,561.3464960969238
811,561.2758888785507
812,561.2023007583595
813,561.1287013565026
814,561.0586430111546
815,560.9960028798722
816,560.9447663405361
817,560.9088604892899
818,560.892001879297
819,560.8975022771092
820,560.9279964742304
821,560.9851088920292
822,561.0691197398552
823,561.1786954627397
824,561.3107320668998
825,561.460361451204
826,561.6211841176062
827,561.7857734754367
828,561.9464276864167
829,562.0960553604649
830,562.2290238033289
831,562.3418049182304
832,562.4333133707706
833,562.5049016367929
834,562.5600246513292
835,562.6036192392829
836,562.641282241014
837,562.6783753139206
838,562.7192096940637
839,562.7664507271783
840,562.8208307097476
841,562.8811883995995
842,562.9447877368411
843,563.0078235515061
844,563.0660070578604
845,563.1151389081505
846,563.1516086892028
847,563.172783701955
848,563.1772548009455
849,563.1649071115603
850,563.1368042871597
851,563.0949219505045
852,563.0418114289548
853,562.9802835981645
854,562.9131683290589
855,562.8431565251517
856,562.7727028006727
857,562.703964429059
858,562.6387594639866
859,562.5785334245262
860,562.524335818073
861,562.476826010904
862,562.4363360676233
863,562.4029996017256
864,562.3769155021471
865,562.3582806075384
866,562.3474215139767
867,562.3446861873265
868,562.3502051685043
869,562.3635772797356
870,562.3835571451077
871,562.4078184947148
872,562.4328518367759
873,562.4540422382702
874,562.4659606683172
875,562.4628727164338
876,562.4394132587356
877,562.3913175235341
878,562.3160729731446
879,562.2133745390821
880,562.0853110071448
881,561.9362567896208
882,561.7724774932535
883,561.601487367933
884,561.4312363445508
885,561.2692488662074
886,561.1218605259188
887,560.9936826863284
888,560.8873724788849
889,560.8037111005417
890,560.7419185649683
891,560.7000887561181
892,560.6756399788045
893,560.6657283041917
894,560.6676097027816
895,560.6789281789112
896,560.6978796754563
897,560.7232094621078
898,560.7540559104626
899,560.7897139550228
900,560.8294104074604
901,560.8721541985362
902,560.9166768018332
903,560.9614426571401
904,561.0046987584462
905,561.0445411594541
906,561.0789890306131
907,561.1060621518312
908,561.1238567760275
909,561.1306172104009
910,561.1248081244306
911,561.1051932132825
912,561.07090711206
913,561.0214833116977
914,560.9568088948681
915,560.8770280237319
916,560.7824663374289
917,560.6736487235108
