frame_number,force
0,651.470580000035
1,651.4717106171437
2,651.4647458207589
3,651.4428179373064
4,651.4013530690481
5,651.3388295624229
6,651.2571078047957
7,651.1612524108716
8,651.0588445360709
9,650.9588859042327
10,650.8704862175034
11,650.801557476014
12,650.7577036660554
13,650.7414275893924
14,650.751723748704
15,650.7841014830578
16,650.8310610933958
17,650.8829943576816
18,650.9294000252994
19,650.9602360705242
20,650.9672138255623
21,650.9448706122075
22,650.8912997347167
23,650.8084464477839
24,650.7019092267108
25,650.5802428135673
26,650.4538469443339
27,650.333615963127
28,650.2295791230058
29,650.1497545591192
30,650.0993815614275
31,650.0806144329426
32,650.0926779048101
33,650.1324096081116
34,650.1950588255012
35,650.2751804960841
36,650.3674630462805
37,650.4673578743229
38,650.57143146583
39,650.6774265127483
40,650.7840821517177
41,650.890811408321
42,650.9973519810738
43,651.1034865248465
44,651.2088779998279
45,651.3130093818925
46,651.4151855421048
47,651.5145612609266
48,651.6101862616866
49,651.7010766595492
50,651.7863181002695
51,651.8651857157657
52,651.9372451883627
53,652.0023937075133
54,652.0608208672975
55,652.1129106026202
56,652.1591393386848
57,652.2000327873744
58,652.2362251990173
59,652.2686248716113
60,652.2986347883948
61,652.3283321298875
62,652.3605050032719
63,652.3984846857956
64,652.4457756684122
65,652.5055447542647
66,652.5800657482099
67,652.6702261224841
68,652.7751929303308
69,652.8923088145727
70,653.0172439778347
71,653.1443765909322
72,653.2673334735456
73,653.3796072753025
74,653.4751702934185
75,653.5490182664323
76,653.5975951090121
77,653.6190666431592
78,653.6134217773935
79,653.5823866989278
80,653.5291536207078
81,653.4579558865711
82,653.373557809588
83,653.2807531478818
84,653.1839640044952
85,653.0870018204154
86,652.9930089112469
87,652.9045546713319
88,652.8238209562616
89,652.7527853313604
90,652.6933100840247
91,652.6470737105767
92,652.6153325147259
93,652.5985590191054
94,652.5960581046857
95,652.6056918004684
96,652.6238255813979
97,652.6455436338326
98,652.6651043916636
99,652.676559626632
100,652.6744459015431
101,652.6544544853602
102,652.6139821681455
103,652.5524719359124
104,652.4714819023384
105,652.3744684454201
106,652.2663204210822
107,652.1527263674091
108,652.0394931220746
109,651.9319522235802
110,651.8345685646253
111,651.7507957545748
112,651.6831321382073
113,651.6332657295126
114,651.6021809411426
115,651.5901355601973
116,651.5964932491088
117,651.6194867531187
118,651.6560405868474
119,651.7017665207859
120,651.751177630399
121,651.7980948061654
122,651.8361783038238
123,651.8595088213033
124,651.8631520853991
125,651.8436538759914
126,651.7994222448639
127,651.7309582435314
128,651.6408987468736
129,651.5338458047923
130,651.4159832154395
131,651.2945122495881
132,651.1769621050105
133,651.0704501824548
134,650.9809873852564
135,650.9129335330714
136,650.8686928782662
137,650.8486968425692
138,650.8516607594246
139,650.8750417525401
140,650.915585611374
141,650.9698460008627
142,651.034590444004
143,651.107056012514
144,651.1850563631831
145,651.2669556197962
146,651.3515190759139
147,651.437645774032
148,651.5240070682111
149,651.608663402967
150,651.6887798357899
151,651.760568039488
152,651.8195328305459
153,651.8610126834673
154,651.8809136442428
155,651.8764833597215
156,651.8469693842006
157,651.7940307164835
158,651.721803416276
159,651.6365736800552
160,651.5460987867953
161,651.458708075121
162,651.3823590551566
163,651.3237964795782
164,651.2878965506883
165,651.2772277243946
166,651.2918484125421
167,651.329367921617
168,651.3852824596603
169,651.4535539458849
170,651.5273519848466
171,651.5998567214563
172,651.6650238610946
173,651.7182272617466
174,651.7567118123764
175,651.7798155326689
176,651.7889542648803
177,651.7873879138507
178,651.7797932254148
179,651.7716698309671
180,651.7686267267528
181,651.7756392550721
182,651.7964093183932
183,651.8329654427108
184,651.8855823259188
185,651.9530050211499
186,652.0328808184953
187,652.1222642885183
188,652.2180663388635
189,652.3173482262777
190,652.4174061750834
191,652.515655193025
192,652.6093938488971
193,652.6955809835094
194,652.770751291105
195,652.8311478191762
196,652.8730852278316
197,652.8934942405326
198,652.8905397674251
199,652.8641682194792
200,652.8164447343669
201,652.7515899586177
202,652.6756954752767
203,652.5961590918105
204,652.5209217682237
205,652.4576070187376
206,652.4126679182756
207,652.3906435845366
208,652.3936177916261
209,652.4209522923098
210,652.469333287097
211,652.5331250313495
212,652.6049783831035
213,652.6766077339831
214,652.7396394865988
215,652.7864431853169
216,652.8108634453722
217,652.8087738950238
218,652.778392089412
219,652.7203385102296
220,652.6374773192086
221,652.5346091708466
222,652.4180785885586
223,652.2953238215915
224,652.1743694761722
225,652.0632650769091
226,651.9695002408981
227,651.8994550094279
228,651.8579538991627
229,651.8479790366649
230,651.8705631938967
231,651.9248393494368
232,652.0081903015188
233,652.1164385095951
234,652.2440488966545
235,652.3843677676448
236,652.5299472978721
237,652.6729783892453
238,652.8057966734509
239,652.9213869281716
240,653.0138147128599
241,653.078546233091
242,653.1126531631767
243,653.1149246449911
244,653.0859187642994
245,653.0279747564904
246,652.9451729495355
247,652.8431861245069
248,652.7289443627894
249,652.6100641471818
250,652.4940722600244
251,652.3875494176377
252,652.2953752420816
253,652.2202429120526
254,652.1625363217248
255,652.1205647069431
256,652.0910747448434
257,652.0699285969957
258,652.0528356083404
259,652.0360330664053
260,652.016821477594
261,651.993880733012
262,651.9673323454371
263,651.9385656693029
264,651.9098937619972
265,651.8841232512976
266,651.8641085215718
267,651.852337827416
268,651.85059295942
269,651.8597334428111
270,651.8796539992433
271,651.9094254798297
272,651.9475634469458
273,651.992320402355
274,652.0419086792565
275,652.0946211031631
276,652.1488735083093
277,652.2032114869686
278,652.2563128537588
279,652.3070038040217
280,652.3543003636893
281,652.3974775184282
282,652.4361486922865
283,652.470320588551
284,652.5003933876466
285,652.5271051559665
286,652.5514505238324
287,652.5746145779751
288,652.5979464041409
289,652.6229630399168
290,652.6513464585541
291,652.6848947596072
292,652.7254135157881
293,652.7745629087584
294,652.8336918212383
295,652.9036852271873
296,652.9848302597743
297,653.0766870069874
298,653.1779529035189
299,653.2863333684542
300,653.3984562792429
301,653.5098804302585
302,653.6152450453328
303,653.7085847131069
304,653.783791727621
305,653.8351624691994
306,653.8579426246937
307,653.8487990988691
308,653.8061804024504
309,653.7305575376506
310,653.6245474607796
311,653.4929117823214
312,653.3424076099113
313,653.1814570332841
314,653.0196059704065
315,652.8667743371818
316,652.7323566764726
317,652.6242874215054
318,652.5482081963459
319,652.5068629743664
320,652.4998148039932
321,652.5235339844055
322,652.5718530995126
323,652.6367237097477
324,652.7091542178637
325,652.780172327418
326,652.8416533840799
327,652.8868985987956
328,652.9109247081853
329,652.9105019349197
330,652.8840140282899
331,652.8312116008328
332,652.7529149506038
333,652.6507138759799
334,652.5267062808338
335,652.3833049984871
336,652.223121277299
337,652.0489111897713
338,651.8635602264969
339,651.6700872057137
340,651.4716605789112
341,651.2716207249587
342,651.0734882871224
343,650.880926195318
344,650.6976239422202
345,650.5270862361763
346,650.3723348367973
347,650.2355752333157
348,650.1179205560011
349,650.0192648646354
350,649.9383422713695
351,649.8729343323027
352,649.8201487551585
353,649.7767045150621
354,649.7391973855939
355,649.7043515146198
356,649.6692673922365
357,649.6316575072198
358,649.5900395953303
359,649.5438510946987
360,649.4934562220458
361,649.4400346582806
362,649.385369935855
363,649.3315867732468
364,649.2808972722088
365,649.2353987878871
366,649.1969396339199
367,649.1670503852569
368,649.1469269007348
369,649.1374398815897
370,649.1391411722266
371,649.1522491304107
372,649.1766185274879
373,649.2117152899593
374,649.2566110781934
375,649.3099953902249
376,649.3701940815987
377,649.4351955487356
378,649.5027094793334
379,649.5702952930503
380,649.6355855590955
381,649.6965962361825
382,649.7520710665402
383,649.801773795162
384,649.8466458616693
385,649.8887915488164
386,649.9313058375911
387,649.9779892191722
388,650.0329956630798
389,650.1004512088141
390,650.1840682574331
391,650.2867649772619
392,650.4102921941571
393,650.5548855143197
394,650.7189914228076
395,650.899139445855
396,651.0900310054099
397,651.2848865656971
398,651.4760412979891
399,651.6557181944167
400,651.8168580300436
401,651.9538677890382
402,652.0631669938019
403,652.1434543026763
404,652.1956711010456
405,652.2226926068464
406,652.22882009184
407,652.2191728903646
408,652.1990828513345
409,652.1735790815145
410,652.1470235932306
411,652.1229259858874
412,652.1039337727117
413,652.0919652666453
414,652.0884184648094
415,652.0943574857354
416,652.1105766127658
417,652.1374955893319
418,652.1749309897141
419,652.2218626055686
420,652.2763233864216
421,652.3354830041344
422,652.3959080485682
423,652.4539202237598
424,652.5059721952085
425,652.549007246297
426,652.5808116765892
427,652.6003652971672
428,652.6081528004252
429,652.6063559024738
430,652.5988323850141
431,652.5908146666845
432,652.5883236620898
433,652.5973689133042
434,652.6230617010782
435,652.6687927066753
436,652.7356239076746
437,652.8220127183943
438,652.923920261245
439,653.0352718635569
440,653.1486728317407
441,653.2562588457488
442,653.3505631915572
443,653.4252846970927
444,653.475843111478
445,653.4996444109231
446,653.4960599145484
447,653.4662134267079
448,653.4127117386972
449,653.339420453053
450,653.2513077399501
451,653.1543068574618
452,653.0551189643527
453,652.9608894590475
454,652.8787260317578
455,652.8150777539652
456,652.775056758449
457,652.7618290601702
458,652.7761957694399
459,652.8164355961553
460,652.8784213499604
461,652.9559836204465
462,653.0414765169359
463,653.1264932866201
464,653.2026689993206
465,653.2624885502497
466,653.3000056875957
467,653.311386209889
468,653.2952120277699
469,653.2525142495942
470,653.1865397269979
471,653.102291092766
472,653.005907290548
473,652.9039689358198
474,652.802823306348
475,652.7080207945297
476,652.6239283955272
477,652.5535424801037
478,652.498482548715
479,652.4591232409061
480,652.434814395174
481,652.4241455012707
482,652.425226780121
483,652.4359715351933
484,652.4543587289455
485,652.4786358805584
486,652.5074194630492
487,652.5396839806697
488,652.5746794150908
489,652.6118314369389
490,652.6506451983918
491,652.6905924445606
492,652.7309606912631
493,652.7706833668967
494,652.8082103465422
495,652.841482910892
496,652.8680443476129
497,652.8852704114728
498,652.8906659666111
499,652.8821577987665
500,652.8583208596926
501,652.8185011979971
502,652.7628359596217
503,652.6922073469534
504,652.6081860729788
505,652.5130089748312
506,652.4095995079936
507,652.3015943776891
508,652.1933040041946
509,652.0895320540599
510,651.9952246833464
511,651.9149956901258
512,651.8526325712122
513,651.8106943778719
514,651.7902704432951
515,651.7909149505862
516,651.8107380191474
517,651.8466264389638
518,651.894568818409
519,651.9500483918555
520,652.0084426775394
521,652.0653593547812
522,652.116860871449
523,652.1595720052388
524,652.1906984426988
525,652.2080021653645
526,652.2097864782532
527,652.1949394748441
528,652.1630628012808
529,652.1146736643302
530,652.0514278096969
531,651.9762883404444
532,651.8935654222636
533,651.808771234033
534,651.7282705969177
535,651.65875608495
536,651.6066229478577
537,651.5773453606911
538,651.5749519313656
539,651.6016718479908
540,651.6577882996429
541,651.7417016832844
542,651.8501746032596
543,651.9787107384195
544,652.1220166197667
545,652.2745012050044
546,652.430769653911
547,652.5860662872648
548,652.7366237176846
549,652.8798774794348
550,653.0145111334341
551,653.14031992675
552,653.2579232948576
553,653.3683995958702
554,653.4729364564914
555,653.5725701596352
556,653.6680349527488
557,653.759695616578
558,653.8475292112967
559,653.9311463997074
560,654.0098588165665
561,654.0827874453186
562,654.1489879155896
563,654.2075628953124
564,654.2577358410307
565,654.2988675528094
566,654.3304135461959
567,654.3518490141869
568,654.3626127037456
569,654.3621172089987
570,654.3498353731163
571,654.3254248249675
572,654.2888284924888
573,654.2403003027717
574,654.180338448268
575,654.109543144878
576,654.0284391829795
577,653.9373146881832
578,653.8361333675575
579,653.7245778001765
580,653.6022582017615
581,653.4690621503327
582,653.3255506758226
583,653.1732723231493
584,653.0148901148372
585,652.8540752281729
586,652.6951814972103
587,652.542754151925
588,652.4009397121284
589,652.2728669924653
590,652.1600831379848
591,652.0621525790076
592,651.976533335861
593,651.898809040313
594,651.8232793431981
595,651.7438246215632
596,651.6548953229546
597,651.5524480985771
598,651.4346584646497
599,651.3022780765352
600,651.1585730732563
601,651.008870307486
602,650.8598246585286
603,650.7185690716784
604,650.5919005480309
605,650.4856032229147
606,650.4039520179563
607,650.3494060677515
608,650.3224873550238
609,650.3218335828767
610,650.3444139823629
611,650.3858961079018
612,650.4411322747736
613,650.5046951655053
614,650.5713622422999
615,650.6364609246388
616,650.6960453611501
617,650.7469459438239
618,650.7867672627507
619,650.81389327849
620,650.8275160173938
621,650.8276742231377
622,650.8152878489323
623,650.7921855098151
624,650.7611135858943
625,650.7256832482084
626,650.6901903104596
627,650.6592689165889
628,650.6374082500334
629,650.6284262331561
630,650.6350136459182
631,650.6584329252815
632,650.6984051022765
633,650.7531740508372
634,650.819712936719
635,650.8940319396838
636,650.9715481195757
637,651.0474787690508
638,651.1172238739956
639,651.176722666703
640,651.222795508013
641,651.2534872998112
642,651.2683981541907
643,651.2689410075001
644,651.2584395697282
645,651.2419951069936
646,651.226100705859
647,651.2180377077785
648,651.225125198066
649,651.2539101887382
650,651.3093954170398
651,651.3944012161422
652,651.5091402095774
653,651.6510552272949
654,651.8149412364991
655,651.9933373616657
656,652.1771339972024
657,652.3563148133982
658,652.520765639236
659,652.6611096040057
660,652.7695246062807
661,652.8404619745608
662,652.8711609323075
663,652.8618792957599
664,652.8158254413959
665,652.7388364174534
666,652.6388677822005
667,652.525347903139
668,652.4084380809637
669,652.2982502865871
670,652.2040899057088
671,652.133786885611
672,652.0931543432212
673,652.0855856255826
674,652.1117873050559
675,652.1696632290292
676,652.2544093729871
677,652.3589083154528
678,652.4744774874272
679,652.5919242298208
680,652.7027395795637
681,652.8001815885543
682,652.879999369826
683,652.9406388622806
684,652.9829199207825
685,653.0093195241063
686,653.0230759554174
687,653.0273269494204
688,653.0244441060274
689,653.015663902532
690,653.0010517470445
691,652.979768879736
692,652.9505541023641
693,652.9122972624385
694,652.8645738197506
695,652.8080285284207
696,652.7445328594015
697,652.6770836341709
698,652.6094582538683
699,652.5456944405447
700,652.4895014812065
701,652.4437155602852
702,652.4098877629158
703,652.3880604277823
704,652.3767579326324
705,652.3731882656159
706,652.3736172070528
707,652.3738456947885
708,652.3697100679519
709,652.3575421765239
710,652.3345582210611
711,652.2991662591284
712,652.251178583636
713,652.1918986079899
714,652.1240497395614
715,652.0515402073771
716,651.9790972466383
717,651.9118259621492
718,651.8547411698746
719,651.8123026668304
720,651.7879750324129
721,651.7838313176823
722,651.8002204028785
723,651.8355254169644
724,651.8860580032044
725,651.9461473546642
726,652.008476136396
727,652.064685745678
728,652.1062330650151
729,652.1254334657948
730,652.1165639127295
731,652.0768380638219
732,652.0070406702513
733,651.9116511573365
734,651.7983889980861
735,651.677242105456
736,651.5591537197503
737,651.4546076751259
738,651.3723473068796
739,651.3184011505587
740,651.2955082319697
741,651.3029748263884
742,651.3369579604266
743,651.3911346532827
744,651.4576630724412
745,651.5282856808465
746,651.5953971981605
747,651.652923580061
748,651.6969197964888
749,651.7258550333627
750,651.7405888449501
751,651.744061217333
752,651.7407419253101
753,651.7359070970736
754,651.7348238460603
755,651.7419335643932
756,651.7601407459298
757,651.7903252678014
758,651.8311758689396
759,651.8793833903616
760,651.9301564148373
761,651.977959102559
762,652.0173372970453
763,652.0436968899108
764,652.0539239748169
765,652.0467803572612
766,652.0230566155122
767,651.9855019915776
768,651.9385628248657
769,651.8879488534312
770,651.8400312259282
771,651.8010927495975
772,651.7765121211036
773,651.7700297112534
774,651.7832535562019
775,651.8155067314278
776,651.8640316110791
777,651.924496904787
778,651.9917118159391
779,652.0604282276646
780,652.126100888283
781,652.1854815575758
782,652.2369504548125
783,652.2805393095035
784,652.3176701993162
785,652.3506980667546
786,652.3823681997799
787,652.415277430971
788,652.4513902323793
789,652.4916394629915
790,652.5356389901788
791,652.5815360625742
792,652.6260272718195
793,652.6645582923401
794,652.6917217700984
795,652.701844439137
796,652.6897121207157
797,652.6513405115625
798,652.5846794657808
799,652.4901417254547
800,652.3708668758939
801,652.2326593637065
802,652.0835742091697
803,651.9331694628795
804,651.791496488
805,651.6679436833948
806,651.5700767021649
807,651.5026327182634
808,651.4668333256934
809,651.4601656386556
810,651.4767166680471
811,651.5080332753122
812,651.5443640855175
813,651.5760662460452
814,651.5949380161679
815,651.5952601337044
816,651.5743948595334
817,651.532894530568
818,651.4741772810959
819,651.4038917091298
820,651.3290979074136
821,651.2573645757444
822,651.1958607526298
823,651.1505252131178
824,651.1254147978151
825,651.1223355817582
826,651.1408243302415
827,651.1784732969061
828,651.2315083572597
829,651.295479173517
830,651.3659240815173
831,651.4389199651918
832,651.5114805576894
833,651.5817953394937
834,651.6493093597127
835,651.7146517311866
836,651.779429836675
837,651.8459100259641
838,651.9166100914085
839,651.993842325979
840,652.0792611889494
841,652.1734794007267
842,652.2758245760302
843,652.3843103052379
844,652.4958707075563
845,652.6068474890108
846,652.7136439409888
847,652.8134051260513
848,652.9045700519516
849,652.9871687210698
850,653.0627891326658
851,653.1342034747307
852,653.2047109098216
853,653.2773184174478
854,653.3539288676345
855,653.4347180264356
856,653.517844738942
857,653.5995584855614
858,653.6746737065012
859,653.7373018382183
860,653.7816930963568
861,653.803047024764
862,653.7981854131658
863,653.7660122033026
864,653.7076988037286
865,653.6265498400646
866,653.5275533652516
867,653.4166973803626
868,653.300198534405
869,653.1837982722466
870,653.0722319024011
871,652.9688982026813
872,652.8756995081186
873,652.793018175033
874,652.7198313336838
875,652.6539904521592
876,652.5926677287969
877,652.5329097738844
878,652.4721858353187
879,652.4088104034706
880,652.3421613908665
881,652.2726750866559
882,652.2016436436759
883,652.1308632380083
884,652.0621959002256
885,651.9971237474618
886,651.9363863187833
887,651.8797893456594
888,651.8262433045569
889,651.7740281116484
890,651.7212072092788
891,651.6660701698601
892,651.6074952990805
893,651.5451812958541
894,651.4797569218174
895,651.4128001368961
896,651.3467798808134
897,651.2849069685442
898,651.2308752685874
899,651.18848949973
900,651.1611997702162
901,651.151597255709
902,651.1609682083799
903,651.189028969571
904,651.233941323342
905,651.2926286139194
906,651.3613111243948
907,651.4361124378199
908,651.5135922328807
909,651.5911140081706
910,651.6670134186403
911,651.74057421217
912,651.8118479156725
913,651.8813722670815
914,651.9498472464055
915,652.0178168605497
916,652.0853918348998
917,652.1520474095629
