frame_number,force
0,727.866030000018
1,728.1210704708865
2,728.3770461526155
3,728.6347262274667
4,728.8945911869984
5,729.1567655319967
6,729.4209833559452
7,729.6865473154619
8,729.9522441151593
9,730.2162020076989
10,730.4757167050019
11,730.7271169041658
12,730.9657632290665
13,731.1862550217221
14,731.3828626364137
15,731.5501369582137
16,731.6836021792861
17,731.7804213253261
18,731.839927713414
19,731.8639307055596
20,731.856730260447
21,731.8248137228177
22,731.7762565984499
23,731.7198956839543
24,731.6643758857467
25,731.6171873390729
26,731.5838098215537
27,731.5670708687092
28,731.5668044642846
29,731.5798681389457
30,731.6005395290357
31,731.6212717384927
32,731.6337329381693
33,731.6299863380427
34,731.6036125202658
35,731.5505808227774
36,731.4697448712667
37,731.3629300135411
38,731.234651595787
39,731.0915363550457
40,730.9415352212568
41,730.7930391928115
42,730.6540331075988
43,730.5314160834699
44,730.4305689796859
45,730.3551751943476
46,730.3072334819738
47,730.2871677626749
48,730.2939520691884
49,730.325222168648
50,730.3774094238366
51,730.4459670993418
52,730.5257426731932
53,730.6114941367564
54,730.6984872676113
55,730.7830743223757
56,730.863153568806
57,730.9384345507715
58,731.0104690583335
59,731.0824454383737
60,731.1587863803229
61,731.244626401308
62,731.3452496013771
63,731.4655411805127
64,731.6094860136404
65,731.7797587594911
66,731.9774686940897
67,732.2021141207557
68,732.4517634377049
69,732.7234331664457
70,733.0135922545069
71,733.318691529068
72,733.6356042076278
73,733.9618796240871
74,734.2957619876755
75,734.6359925249884
76,734.9814634187579
77,735.3308040856891
78,735.6819715651069
79,736.0319193764278
80,736.3764307545697
81,736.7101911740444
82,737.0271299148658
83,737.3209991594161
84,737.5861022664642
85,737.8180415643106
86,738.0143379464685
87,738.1747885692625
88,738.3014791755487
89,738.3984410266396
90,738.4710128143223
91,738.525019386171
92,738.5659128804574
93,738.5980329657441
94,738.6241136689632
95,738.6450969091031
96,738.6602431899703
97,738.6674870120476
98,738.6639603042714
99,738.6465868414346
100,738.612644987963
101,738.5602186973822
102,738.4884937010951
103,738.3978822047178
104,738.2899708678813
105,738.1672995449331
106,738.0330032971686
107,737.8903808310803
108,737.7424749321144
109,737.5917543117424
110,737.439963174544
111,737.2881509159143
112,737.1368276196378
113,736.986155626228
114,736.8361140668545
115,736.6866340512175
116,736.5377338152192
117,736.3896579516335
118,736.2429761600067
119,736.0985740288719
120,735.9574898364779
121,735.8206062829097
122,735.6882738484875
123,735.5599942408277
124,735.4342950904386
125,735.3088707967325
126,735.180976531331
127,735.0479841217771
128,734.9079667703302
129,734.760180027025
130,734.6053394433405
131,734.4456446711313
132,734.2845529850745
133,734.126355870679
134,733.9756514872296
135,733.8368193288992
136,733.7135846383701
137,733.6087224213818
138,733.5239179546699
139,733.459780580041
140,733.4159891202403
141,733.3915276796345
142,733.3849635477164
143,733.3947254846667
144,733.4193455370968
145,733.4576322006194
146,733.5087619981371
147,733.5723006143089
148,733.6481681660737
149,733.7365465401205
150,733.8377158712292
151,733.9518206771069
152,734.0785986327428
153,734.2171324975745
154,734.3656861196013
155,734.5216599484603
156,734.6816695619858
157,734.8417273703174
158,734.9974976854855
159,735.144599516046
160,735.2789417985581
161,735.3970739790169
162,735.49651255559
163,735.5759798423147
164,735.6354938931049
165,735.6762862529026
166,735.7005748447286
167,735.7112529746254
168,735.7115601521136
169,735.7047829593293
170,735.6940063569274
171,735.6819105301265
172,735.6705994926548
173,735.6614596109296
174,735.6550672124976
175,735.6511755978278
176,735.6488005787123
177,735.6463922550538
178,735.6420481511062
179,735.6337123111161
180,735.6193201439365
181,735.5968719852198
182,735.5644381626769
183,735.5201208866498
184,735.4620218421322
185,735.3882689358068
186,735.2971322198304
187,735.1872259391247
188,735.0577724414367
189,734.9088957549922
190,734.7419056370173
191,734.5595197115433
192,734.3659595266131
193,734.1668609715332
194,733.9689663474878
195,733.7796057856383
196,733.6060190884215
197,733.4546082457149
198,733.3302321118125
199,733.2356450614107
200,733.1711499704847
201,733.1345046406943
202,733.1210956329795
203,733.1243647368573
204,733.1364392993847
205,733.1488878779328
206,733.1535017786057
207,733.1429897333286
208,733.1114776363861
209,733.0547477764433
210,732.9702299922315
211,732.8568342966113
212,732.7147514030881
213,732.5453310299001
214,732.3510884294475
215,732.1358101536355
216,731.9046627249303
217,731.6641858916425
218,731.422088247671
219,731.1868339778783
220,730.9670698956011
221,730.770961666015
222,730.6054992625479
223,730.4758319253247
224,730.3847181836819
225,730.3322005161658
226,730.3156012413555
227,730.3298820874023
228,730.3683377296318
229,730.4235215296242
230,730.4882383447631
231,730.5564072505382
232,730.6236282475512
233,730.6873821388001
234,730.7469041395409
235,730.802838749354
236,730.8567832198545
237,730.9107892290664
238,730.9668637579836
239,731.0265131287217
240,731.0903984896465
241,731.1581862411806
242,731.2286529621624
243,731.3000377670826
244,731.3705562096568
245,731.4389381843182
246,731.504846458628
247,731.5690711190871
248,731.6334698583274
249,731.7007098762323
250,731.7739195228505
251,731.8563488788184
252,731.9510872094078
253,732.0608339682237
254,732.1876958869395
255,732.3329868175476
256,732.497022974943
257,732.6789159235917
258,732.8763683964264
259,733.08549053184
260,733.3006839629431
261,733.5146709164222
262,733.7187496836641
263,733.9033255960902
264,734.0587055399054
265,734.17607323348
266,734.2485032270904
267,734.2718410328887
268,734.2452876746303
269,734.1715813180687
270,734.0567481278407
271,733.909469537185
272,733.7401648562601
273,733.5599155070403
274,733.3793697409798
275,733.2077719033184
276,733.0522466316932
277,732.917413135896
278,732.8053169911848
279,732.715599735634
280,732.645819840499
281,732.5918737708167
282,732.5484981416103
283,732.509839930254
284,732.4700620618621
285,732.4239213303714
286,732.3672400284202
287,732.2972079759011
288,732.2124868811532
289,732.1131239707942
290,732.0003111817307
291,731.8760509272017
292,731.742801018707
293,731.6031599590783
294,731.4596235557649
295,731.3144103232771
296,731.1693314637988
297,731.0256790598711
298,730.8841229211051
299,730.7446317664986
300,730.6064496656477
301,730.4681507281718
302,730.3277719676869
303,730.1830109582822
304,730.0314816934241
305,729.8710259213171
306,729.7000541963503
307,729.5178592838271
308,729.3248456579415
309,729.1226559988622
310,728.9142071683511
311,728.7036462822176
312,728.4962211658519
313,728.298058382144
314,728.1158564441904
315,727.9565133478569
316,727.8267071709139
317,727.7324406559073
318,727.6785570371828
319,727.6682476043608
320,727.7026007824152
321,727.780268804605
322,727.8973333052986
323,728.0474326409152
324,728.2221771950632
325,728.4118316820737
326,728.6061950134524
327,728.7955664527053
328,728.9716564071598
329,729.1282915317036
330,729.2617923423547
331,729.3709701877503
332,729.4567777696265
333,729.5217214079611
334,729.5691829512778
335,729.6027991688799
336,729.6260091274356
337,729.6418146133232
338,729.6527262310593
339,729.6608183149617
340,729.667809306608
341,729.675113180413
342,729.6838427310753
343,729.6947639208431
344,729.7082042247607
345,729.7239261409732
346,729.7410011993028
347,729.7577467886426
348,729.7717888010734
349,729.7802742584961
350,729.7802006808137
351,729.7687850715236
352,729.7437812687357
353,729.7036734795115
354,729.6477189163083
355,729.575858346579
356,729.488536816653
357,729.3864817974713
358,729.2704867151132
359,729.1412442120206
360,728.9992611308674
361,728.8448702169635
362,728.6783370751768
363,728.5000452524016
364,728.3107244937567
365,728.1116650349946
366,727.9048442670118
367,727.6929051567014
368,727.478977253554
369,727.2663914592586
370,727.0583675303487
371,726.8577370388524
372,726.6667258941529
373,726.4867894922548
374,726.3184877589031
375,726.1614019311706
376,726.0141097151733
377,725.8742383924136
378,725.7386112320855
379,725.6034960674629
380,725.4649523329908
381,725.3192539497294
382,725.1633477173779
383,724.9952957959356
384,724.8146492992561
385,724.6227106682679
386,724.4226590341615
387,724.2195223499635
388,724.0199813407205
389,723.8319930127071
390,723.664230016109
391,723.5253481597127
392,723.4231255395453
393,723.3635624339814
394,723.350068612648
395,723.3828699745072
396,723.4587409770086
397,723.5711293879488
398,723.7106895660177
399,723.8661754726405
400,724.0255743328147
401,724.1773093431751
402,724.3113249235644
403,724.4198990299483
404,724.4980968793892
405,724.5438620901265
406,724.5578005851859
407,724.5427362309974
408,724.5031216242063
409,724.4443967285496
410,724.3724041467042
411,724.2929663666405
412,724.2116810664812
413,724.133905055809
414,724.06482004855
415,724.009447743258
416,723.9725185504896
417,723.9581682365507
418,723.9694956996859
419,724.0080468176127
420,724.0733081735311
421,724.1623097841771
422,724.2694402691036
423,724.3865614652573
424,724.5034659968571
425,724.6086568922092
426,724.6903681130716
427,724.7377066928711
428,724.741774995061
429,724.6966250205887
430,724.5999213267216
431,724.4532410371299
432,724.2619885305568
433,724.0349304543067
434,723.7833750696769
435,723.5200501300358
436,723.2577827799602
437,723.0081364172191
438,722.7801846463555
439,722.5795862345284
440,722.4080744516207
441,722.2634074608242
442,722.1397606268987
443,722.0284895749912
444,721.9191638010841
445,721.8007644605195
446,721.6629396084071
447,721.4971959673699
448,721.297884896894
449,721.0628437396351
450,720.793602393488
451,720.4951430091099
452,720.1752761954913
453,719.8437530562151
454,719.51126398146
455,719.188472441191
456,718.8851921949038
457,718.6097590788528
458,718.3685972521876
459,718.1659458230209
460,718.003702763077
461,717.8813573977618
462,717.7960039859242
463,717.7424503440905
464,717.7134638311048
465,717.7002151071583
466,717.6929520820073
467,717.68186457653
468,717.6580322072888
469,717.6143208629314
470,717.5461040663432
471,717.4517180842405
472,717.3326063489297
473,717.1931610217221
474,717.0403081134884
475,716.8828933624162
476,716.730918315843
477,716.5946738168683
478,716.4838359784517
479,716.4066198424885
480,716.3691010172362
481,716.3747893985374
482,716.4244778292657
483,716.5163330474805
484,716.646177131508
485,716.8079140341763
486,716.9940617304453
487,717.1963491277093
488,717.4063330488598
489,717.6159830822533
490,717.8181751174947
491,718.0070465499351
492,718.1782019674481
493,718.3287905818838
494,718.457481965056
495,718.5643550455876
496,718.650710784599
497,718.7188278121959
498,718.7716898630495
499,718.812712611479
500,718.8454898113739
501,718.8735747586584
502,718.9003113987535
503,718.928721619775
504,718.961442591696
505,719.0006987611939
506,719.0482916026403
507,719.1055977654115
508,719.173585054207
509,719.2528783266916
510,719.3439090082393
511,719.4471446920018
512,719.5633400857192
513,719.6937225471087
514,719.8400467276273
515,720.004502132828
516,720.1894952470491
517,720.397335347744
518,720.6298457467061
519,720.887927398719
520,721.1711281152092
521,721.4773037194933
522,721.8024766915082
523,722.1409838512762
524,722.4859456259369
525,722.8299996412204
526,723.1661614300776
527,723.4886388754747
528,723.7934401099894
529,724.078667102438
530,724.3444653150456
531,724.5926814687325
532,724.8263394924106
533,725.0490619757466
534,725.264544641695
535,725.4761550098464
536,725.6866891969926
537,725.8982814427528
538,726.1124203609875
539,726.3300028109389
540,726.5513688230085
541,726.7763021075353
542,727.0040208241625
543,727.2331965195361
544,727.4620229086182
545,727.6883295719049
546,727.9097224629193
547,728.1237384684974
548,728.3280059159495
549,728.5203937108364
550,728.6991242536608
551,728.8628390407571
552,729.0106336119237
553,729.1420940556777
554,729.2573555092713
555,729.3571736881744
556,729.4429743789765
557,729.5168360559388
558,729.5813686548236
559,729.6394735792662
560,729.6940026198859
561,729.7473713102162
562,729.8012136115561
563,729.8561716858511
564,729.9118848433126
565,729.9671849274955
566,730.0204481843019
567,730.0700185268427
568,730.1146102746667
569,730.1536154034694
570,730.1872732381928
571,730.21669871466
572,730.2437954595857
573,730.2710920583517
574,730.3015344502107
575,730.3382550161913
576,730.3843320056608
577,730.4425550332244
578,730.5152165369943
579,730.603948050908
580,730.7096139326092
581,730.8322663877159
582,730.971154216346
583,731.1247677379215
584,731.2909050043604
585,731.4667621594355
586,731.6490669945823
587,731.83427145382
588,732.0187988922914
589,732.1993245375131
590,732.3730648806207
591,732.5380559022051
592,732.6933974126516
593,732.8394309277138
594,732.9778116576362
595,733.1114393715161
596,733.244231379452
597,733.3807501392586
598,733.5257257758255
599,733.6835312272474
600,733.8576765018302
601,734.0503896925743
602,734.2623413227873
603,734.4925436178472
604,734.7384248235899
605,734.9960531065516
606,735.2604698334699
607,735.5260823837265
608,735.7870605101534
609,736.0376868432393
610,736.2726371206724
611,736.4872009567347
612,736.6774822773621
613,736.8406226380984
614,736.9750631971649
615,737.0808134747657
616,737.1596530557719
617,737.2151794626453
618,737.252639011471
619,737.2785295136894
620,737.3000258728782
621,737.3243268696663
622,737.3580329039667
623,737.4066408779526
624,737.4742052482949
625,737.5631803023665
626,737.6744269779989
627,737.8073394397398
628,737.9600365484721
629,738.1295768894189
630,738.3121789186852
631,738.5034448898332
632,738.6985945590011
633,738.8927123843274
634,739.0810018700537
635,739.259030627479
636,739.4229480142466
637,739.5696644493836
638,739.6969922997722
639,739.8037544504118
640,739.8898579870316
641,739.9563064768804
642,740.0051075729997
643,740.0390506937786
644,740.0613802614446
645,740.0754377449765
646,740.0843543716803
647,740.0908406368943
648,740.0970677964624
649,740.1046078653982
650,740.1144041649495
651,740.1267647138338
652,740.1413787737557
653,740.1573411787751
654,740.1731456840888
655,740.1866121486165
656,740.1947571323657
657,740.1936723409215
658,740.1784971068197
659,740.1435503691198
660,740.0826459413142
661,739.9895720295099
662,739.8586770533005
663,739.685472212507
664,739.46714996484
665,739.2029367005191
666,738.8942333888131
667,738.5445248153585
668,738.1590584701873
669,737.7443321967734
670,737.3074805690925
671,736.8556727034338
672,736.395607927229
673,735.933148276582
674,735.4730928859508
675,735.0190816254423
676,734.5736031596715
677,734.1380777992885
678,733.7129917697833
679,733.2980715169483
680,732.8924986676751
681,732.4951718251342
682,732.1050098530367
683,731.7212626778735
684,731.3437710942748
685,730.9731207105549
686,730.6106676567517
687,730.2584526643142
688,729.9190441530781
689,729.5953513146873
690,729.2904246911716
691,729.007228638274
692,728.7483605988676
693,728.5157287904096
694,728.3102581663128
695,728.131722113603
696,727.9787705694828
697,727.8491636796549
698,727.7401560848963
699,727.6489338865335
700,727.572994844528
701,727.5103802770793
702,727.459709288571
703,727.4200256090771
704,727.3905222364065
705,727.3702305007567
706,727.3577433600021
707,727.3510107060594
708,727.3472247685421
709,727.342816862943
710,727.3335966392773
711,727.3150529447252
712,727.2827913833405
713,727.2330297853671
714,727.1630453195548
715,727.0714845107775
716,726.9584938507003
717,726.8256704249775
718,726.6758510807548
719,726.5127613766421
720,726.3405461396725
721,726.163215134648
722,725.9840702115312
723,725.8052250909371
724,725.62734815326
725,725.4497196240785
726,725.2706100881283
727,725.0879010572341
728,724.8998107002856
729,724.7055650181783
730,724.50586586798
731,724.3030513332438
732,724.1009140630331
733,723.904219377529
734,723.7180172414414
735,723.5468543778727
736,723.3939809182388
737,723.2606378496181
738,723.1455136133188
739,723.0444565172012
740,722.9505121189077
741,722.8543201332653
742,722.7448581694293
743,722.6104679201799
744,722.4400544182271
745,722.2243167994516
746,721.956847318677
747,721.6349274579513
748,721.2598767690216
749,720.8368880814729
750,720.3743906233834
751,719.8830729234444
752,719.3747394872056
753,718.8611692252799
754,718.353105431622
755,717.8594594731861
756,717.3867728721481
757,716.9389574960267
758,716.5173101986608
759,716.1207733845425
760,715.7463972684169
761,715.3899549047019
762,715.0466495011017
763,714.7118277895747
764,714.3815980955912
765,714.0532752425853
766,713.72563153052
767,713.3989884254988
768,713.0752033845091
769,712.7575855727339
770,712.4507366588016
771,712.1602873875172
772,711.89250453075
773,711.6537753913843
774,711.450016781416
775,711.2860751030549
776,711.1651781287289
777,711.0884843703375
778,711.0547683564263
779,711.0602820163183
780,711.0988365095345
781,711.1621430650424
782,711.2404252635511
783,711.323268695848
784,711.4006205621097
785,711.4638120955777
786,711.506464753672
787,711.5251580297004
788,711.5197747666956
789,711.4934861092986
790,711.4523815102297
791,711.404788236857
792,711.3603627673655
793,711.3290682258785
794,711.320164764471
795,711.341329606205
796,711.3980020961469
797,711.4930243366288
798,711.6266109318155
799,711.7966267922224
800,711.9990971639099
801,712.2288449232223
802,712.4801525653355
803,712.747361839778
804,713.0253379863811
805,713.309744028435
806,713.5971013032773
807,713.8846496482481
808,714.1700594170646
809,714.4510892979572
810,714.7253144833212
811,714.9900364134984
812,715.2424174618278
813,715.4797942850283
814,715.7000550512856
815,715.901941408868
816,716.0851635866034
817,716.2502886711839
818,716.3984441509856
819,716.5309290339972
820,716.6488286908411
821,716.752707611066
822,716.8424345964183
823,716.9171819885754
824,716.9756124939864
825,717.016214628318
826,717.0377032629211
827,717.0393983786398
828,717.0215166986707
829,716.9853259139483
830,716.9331254952097
831,716.8680494520951
832,716.7937243290703
833,716.7138417954145
834,716.6317196700297
835,716.5499300191314
836,716.4700587696013
837,716.39262816636
838,716.3171798443279
839,716.2424961777732
840,716.1669273766234
841,716.0887856581679
842,716.006764209335
843,715.9203310197298
844,715.8300327947287
845,715.7376384746935
846,715.6460764780105
847,715.5591726628585
848,715.4812538466127
849,715.4167175092992
850,715.3696608786721
851,715.3436127627406
852,715.3413533932347
853,715.3647802318608
854,715.4147879808918
855,715.4911600506557
856,715.5924991759777
857,715.7162440362675
858,715.8588111105079
859,716.0158619362646
860,716.1826483382837
861,716.3543650667505
862,716.5264495825232
863,716.6947964372825
864,716.855886377533
865,717.0068651078473
866,717.1456280281274
867,717.2709514332132
868,717.382664191742
869,717.481814997344
870,717.5707802112642
871,717.6532634295523
872,717.7341489720593
873,717.8191959414752
874,717.914601041701
875,718.0264966732333
876,718.1604594598592
877,718.3210809497107
878,718.5116201284164
879,718.733738501176
880,718.9873172494406
881,719.2703683661935
882,719.5790716102831
883,719.907982340665
884,720.2504430065889
885,720.5991873146799
886,720.9470687926786
887,721.2878052793848
888,721.6166243054902
889,721.9307127384759
890,722.2294028153406
891,722.5140622663098
892,722.7876988177493
893,723.0543328138909
894,723.3182271893621
895,723.5830863133696
896,723.8513419119697
897,724.12363143748
898,724.3985395816883
899,724.6726270571438
900,724.940731738202
901,725.1965032375314
902,725.4331089482454
903,725.6440154978526
904,725.8237220903096
905,725.9683344377873
906,726.0759247376648
907,726.1466902205295
908,726.1829616658811
909,726.1891126121272
910,726.1713951048703
911,726.1377007411787
912,726.0972304118642
913,726.0600580456952
914,726.0365900690742
915,726.0369413183536
916,726.070258272672
917,726.144021543553
