frame_number,force
0,688.3519290066994
1,688.3940427368985
2,688.435998693805
3,688.4776405485893
4,688.5188148381654
5,688.5593723417888
6,688.5991693940955
7,688.6380691182183
8,688.6759425647391
9,688.7126697445073
10,688.7481405462179
11,688.7822555326661
12,688.8149266120621
13,688.8460775825299
14,688.8756445492356
15,688.9035762147408
16,688.9298340441633
17,688.9543923077118
18,688.9772380045559
19,688.9983706738399
20,689.0178021004449
21,689.035555924115
22,689.0516671605978
23,689.066181642957
24,689.0791553908014
25,689.090653915215
26,689.1007514676863
27,689.1095302420356
28,689.1170795386313
29,689.1234948999103
30,689.128877225595
31,689.1333318751308
32,689.136967763705
33,689.139896457335
34,689.1422312725402
35,689.1440863867846
36,689.1455759663768
37,689.1468133185937
38,689.1479100746526
39,689.1489754097972
40,689.1501153061363
41,689.1514318633155
42,689.1530226619493
43,689.1549801848632
44,689.1573913010811
45,689.1603368168778
46,689.1638910973861
47,689.1681217615187
48,689.1730894521074
49,689.1788476819571
50,689.1854427554813
51,689.1929137654045
52,689.2012926644211
53,689.2106044116708
54,689.2208671926813
55,689.2320927091807
56,689.2442865325798
57,689.2574485128105
58,689.2715732330608
59,689.2866505005509
60,689.3026658631611
61,689.3196011411304
62,689.337434962495
63,689.356143291109
64,689.3756999371149
65,689.3960770409076
66,689.4172455221841
67,689.4391754857996
68,689.4618365770098
69,689.4851982807451
70,689.5092301621152
71,689.5339020474217
72,689.5591841464592
73,689.5850471182101
74,689.6114620833779
75,689.63840058851
76,689.665834527836
77,689.6937360302915
78,689.7220773201599
79,689.7508305600537
80,689.779967684612
81,689.8094602323748
82,689.839279181918
83,689.869394796985
84,689.89977648463
85,689.9303926702968
86,689.9612106936696
87,689.9921967285637
88,690.0233157293204
89,690.0545314056571
90,690.085806227648
91,690.1171014617158
92,690.1483772369194
93,690.1795926393064
94,690.210705831719
95,690.2416741971224
96,690.2724545044989
97,690.3030030970029
98,690.3332761020436
99,690.3632296621419
100,690.3928201841774
101,690.4220046036176
102,690.4507406598169
103,690.4789871782534
104,690.5067043552829
105,690.5338540405742
106,690.5604000123241
107,690.5863082411628
108,690.6115471401148
109,690.6360877991787
110,690.6599042034724
111,690.6829734336678
112,690.7052758471305
113,690.7267952380854
114,690.7475189752935
115,690.7674381160161
116,690.7865474952696
117,690.804845789317
118,690.822335552113
119,690.839023223332
120,690.8549191068554
121,690.8700373189748
122,690.8843957058926
123,690.8980157303907
124,690.910922327615
125,690.923143729522
126,690.9347112569038
127,690.9456590777439
128,690.9560239313723
129,690.9658448192704
130,690.9751626648609
131,690.9840199455451
132,690.9924603003552
133,691.0005281162925
134,691.0082680963013
135,691.0157248120328
136,691.022942244985
137,691.0299633204023
138,691.0368294394602
139,691.043580016294
140,691.050252026947
141,691.0568795774141
142,691.0634934978636
143,691.0701209698659
144,691.0767851930806
145,691.0835050973658
146,691.0902951054159
147,691.097164949569
148,691.1041195446088
149,691.1111589169633
150,691.1182781902928
151,691.1254676278448
152,691.1327127323249
153,691.1399944038099
154,691.1472891554322
155,691.1545693854933
156,691.1618037033913
157,691.1689573052306
158,691.175992393444
159,691.1828686336212
160,691.1895436411419
161,691.1959734900315
162,691.202113236738
163,691.2079174523275
164,691.2133407574468
165,691.2183383545524
166,691.2228665510945
167,691.2268832660031
168,691.230348510702
169,691.2332248355744
170,691.2354777333242
171,691.2370759915012
172,691.2379919872845
173,691.2382019187318
174,691.2376859685464
175,691.2364283988961
176,691.2344175782655
177,691.2316459430575
178,691.2281098975437
179,691.2238096560404
180,691.218749031069
181,691.2129351710388
182,691.2063782511874
183,691.1990911222048
184,691.1910889217385
185,691.1823886546277
186,691.1730087485208
187,691.1629685926615
188,691.152288068761
189,691.140987083496
190,691.129085112086
191,691.1166007616213
192,691.1035513614056
193,691.089952585767
194,691.0758181133574
195,691.06115932687
196,691.0459850583878
197,691.0303013869444
198,691.0141114949818
199,690.9974155891551
200,690.9802108891436
201,690.9624916863302
202,690.9442494727318
203,690.9254731398175
204,690.9061492467458
205,690.8862623570067
206,690.8657954404896
207,690.8447303349355
208,690.823048257908
209,690.8007303588868
210,690.777758300935
211,690.7541148622098
212,690.7297845490621
213,690.7047542142594
214,690.6790136753201
215,690.6525563284596
216,690.6253797530658
217,690.5974863002384
218,690.5688836571778
219,690.5395853775734
220,690.5096113670922
221,690.4789883130154
222,690.4477500481854
223,690.4159378413514
224,690.3836006079628
225,690.3507950369622
226,690.3175856303678
227,690.2840446538327
228,690.2502519980555
229,690.216294952875
230,690.1822678980793
231,690.1482719171922
232,690.1144143422299
233,690.0808082384112
234,690.0475718380401
235,690.0148279321485
236,689.9827032268439
237,689.951327668975
238,689.9208337435559
239,689.8913557442484
240,689.8630290184426
241,689.8359891898657
242,689.8103713634814
243,689.7863093189675
244,689.7639346995853
245,689.7433762025892
246,689.7247587758437
247,689.7082028237103
248,689.693823424081
249,689.6817295578967
250,689.6720233523894
251,689.6647993393603
252,689.6601437300812
253,689.6581337092742
254,689.6588367523956
255,689.6623099729567
256,689.6685995091839
257,689.6777399609556
258,689.6897538880024
259,689.704651378981
260,689.7224296989539
261,689.743073020594
262,689.7665522422923
263,689.7928248945125
264,689.8218351346121
265,689.8535138301721
266,689.8877787313942
267,689.9245347336065
268,689.9636742306125
269,690.0050775581545
270,690.0486135244379
271,690.0941400224768
272,690.141504717873
273,690.1905458056095
274,690.2410928302
275,690.2929675648197
276,690.3459849464447
277,690.3999540647494
278,690.4546792020872
279,690.5099609205038
280,690.5655971897767
281,690.6213845480199
282,690.6771192835248
283,690.7325986237379
284,690.7876219154899
285,690.8419917803911
286,690.8955152304209
287,690.9480047302122
288,690.9992791938648
289,691.0491649056298
290,691.0974963558227
291,691.144116985607
292,691.1888798364939
293,691.2316481022938
294,691.2722955825021
295,691.3107070365517
296,691.3467784384558
297,691.3804171320193
298,691.41154188843
299,691.4400828700919
300,691.4659815058973
301,691.4891902832701
302,691.5096724618552
303,691.5274017135611
304,691.5423616943713
305,691.5545455551515
306,691.5639554012498
307,691.5706017127011
308,691.5745027370475
309,691.5756838653806
310,691.574177000775
311,691.5700199280345
312,691.5632556943931
313,691.5539320113962
314,691.5421006878263
315,691.5278171020897
316,691.5111397203164
317,691.4921296640512
318,691.4708503295244
319,691.447367059517
320,691.421746868436
321,691.3940582204982
322,691.3643708595275
323,691.3327556873492
324,691.2992846867703
325,691.2640308847025
326,691.2270683507029
327,691.1884722258168
328,691.1483187762109
329,691.1066854657988
330,691.0636510418132
331,691.019295627183
332,690.9737008140146
333,690.9269497532356
334,690.879127235634
335,690.8303197584886
336,690.7806155703992
337,690.7301046858862
338,690.6788788613865
339,690.6270315252052
340,690.5746576555379
341,690.5218536027348
342,690.4687168545013
343,690.4153457454161
344,690.3618391147417
345,690.3082959187783
346,690.2548148057161
347,690.2014936616112
348,690.1484291355754
349,690.095716151059
350,690.0434474090622
351,689.9917128886798
352,689.940599350529
353,689.890189849191
354,689.8405632615404
355,689.7917938384371
356,689.7439507875404
357,689.6970978947517
358,689.6512931905548
359,689.6065886653591
360,689.5630300357093
361,689.520656561755
362,689.4795009155137
363,689.4395890983816
364,689.4009404047073
365,689.3635674267126
366,689.3274760954271
367,689.2926657527897
368,689.259129251375
369,689.2268530799093
370,689.1958175144888
371,689.1659967967197
372,689.1373593403363
373,689.1098679669209
374,689.0834801696723
375,689.0581484029326
376,689.0338203952961
377,689.0104394852684
378,688.987944979575
379,688.9662725346193
380,688.9453545613226
381,688.9251206531088
382,688.9054980366076
383,688.8864120449874
384,688.8677866145819
385,688.8495448059878
386,688.8316093503156
387,688.8139032195584
388,688.7963502177938
389,688.7788755879712
390,688.7614066277223
391,688.7438733069639
392,688.7262088800085
393,688.708350485498
394,688.6902397285396
395,688.6718232403196
396,688.6530532106144
397,688.6338878879834
398,688.6142920416885
399,688.594237379189
400,688.5737029134563
401,688.5526752748925
402,688.5311489630031
403,688.5091265333162
404,688.4866187156551
405,688.4636444606183
406,688.4402309117062
407,688.4164133009797
408,688.3922347668469
409,688.3677460938487
410,688.343005376063
411,688.3180776075537
412,688.2930342046059
413,688.2679524650724
414,688.2429149703338
415,688.2180089357665
416,688.1933255166215
417,688.1689590776898
418,688.1450064364923
419,688.121566090371
420,688.0987374376299
421,688.0766200021891
422,688.0553126707775
423,688.0349129518986
424,688.0155162662693
425,687.9972152783863
426,687.9800992777683
427,687.9642536163848
428,687.9497592064084
429,687.9366920804498
430,687.9251230152952
431,687.9151172198851
432,687.9067340884465
433,687.900027019796
434,687.8950433033955
435,687.8918240716486
436,687.8904043165346
437,687.8908129673451
438,687.8930730250844
439,687.897201747925
440,687.9032108810211
441,687.9111069233514
442,687.9208914244394
443,687.9325613044282
444,687.9461091912156
445,687.9615237678801
446,687.9787901232718
447,687.9978900992862
448,688.018802629725
449,688.0415040668056
450,688.0659684920616
451,688.0921680092055
452,688.1200730178891
453,688.1496524687184
454,688.1808741007457
455,688.2137046629089
456,688.248110120678
457,688.2840558486139
458,688.321506808743
459,688.3604277139195
460,688.4007831748983
461,688.4425378296664
462,688.4856564534402
463,688.5301040472486
464,688.5758459019208
465,688.6228476328972
466,688.6710751803226
467,688.7204947688318
468,688.771072822483
469,688.8227758324173
470,688.8755701777078
471,688.9294219028961
472,688.9842964583204
473,689.0401584111956
474,689.0969711364795
475,689.154696497172
476,689.2132945242287
477,689.2727231067186
478,689.3329377028961
479,689.3938910821781
480,689.455533106589
481,689.517810557973
482,689.5806670142797
483,689.6440427752425
484,689.7078748359019
485,689.7720969060432
486,689.8366394741702
487,689.90142991543
488,689.9663926436367
489,690.0314493080006
490,690.0965190351367
491,690.1615187163171
492,690.2263633389301
493,690.2909663600078
494,690.3552401186046
495,690.4190962825919
496,690.4824463239586
497,690.5452020152178
498,690.6072759384799
499,690.6685819982586
500,690.7290359287964
501,690.7885557864005
502,690.8470624173017
503,690.904479892353
504,690.9607359013529
505,691.0157621013086
506,691.0694944140066
507,691.1218732687415
508,691.1728437863463
509,691.2223559013638
510,691.2703644206324
511,691.3168290185326
512,691.3617141712143
513,691.4049890342139
514,691.4466272701975
515,691.4866068360207
516,691.5249097401856
517,691.5615217824367
518,691.596432286807
519,691.6296338385204
520,691.6611220339645
521,691.6908952512811
522,691.7189544470947
523,691.7453029831009
524,691.7699464845683
525,691.7928927307013
526,691.8141515744725
527,691.8337348881381
528,691.8516565307656
529,691.8679323349694
530,691.8825801106008
531,691.8956196629742
532,691.9070728225857
533,691.9169634825292
534,691.9253176390711
535,691.9321634300733
536,691.937531165419
537,691.9414533437488
538,691.9439646506927
539,691.9451019347541
540,691.9449041574409
541,691.9434123140984
542,691.940669321738
543,691.936719870689
544,691.9316102384244
545,691.9253880659435
546,691.9181020987821
547,691.9098018954606
548,691.9005375061423
549,691.8903591241575
550,691.8793167134181
551,691.8674596155406
552,691.8548361412669
553,691.8414931513661
554,691.8274756329839
555,691.8128262785174
556,691.7975850749679
557,691.7817889116727
558,691.7654712134695
559,691.7486616054097
560,691.7313856145423
561,691.7136644138596
562,691.6955146130642
563,691.6769481004744
564,691.6579719402604
565,691.6385883291155
566,691.6187946160013
567,691.5985833874067
568,691.5779426185279
569,691.5568558882245
570,691.5353026532135
571,691.5132585753194
572,691.4906958949013
573,691.4675838438449
574,691.4438890926886
575,691.4195762282335
576,691.3946082597231
577,691.3689471527499
578,691.3425543900463
579,691.3153915571036
580,691.28742094857
581,691.2586061896409
582,691.2289128660708
583,691.1983091568933
584,691.1667664643674
585,691.1342600352414
586,691.1007695663901
587,691.0662797871854
588,691.0307810111115
589,690.9942696498393
590,690.9567486835783
591,690.9182280817896
592,690.8787251685409
593,690.8382649272047
594,690.7968802399085
595,690.7546120580646
596,690.7115095013856
597,690.6676298837916
598,690.6230386652303
599,690.5778093286252
600,690.5320231813362
601,690.4857690811841
602,690.4391430881994
603,690.3922480442334
604,690.3451930830055
605,690.2980930732682
606,690.251067998053
607,690.2042422736445
608,690.1577440128193
609,690.1117042375737
610,690.066256046756
611,690.0215337439685
612,689.977671931386
613,689.9348045760637
614,689.8930640565993
615,689.8525801993541
616,689.8134793146938
617,689.7758832448529
618,689.7399084358291
619,689.7056650458201
620,689.673256101831
621,689.642776714172
622,689.614313355874
623,689.5879432111034
624,689.5637335943084
625,689.5417414408681
626,689.5220128705241
627,689.5045828260097
628,689.4894747900695
629,689.4767005841707
630,689.4662602520303
631,689.4581420309769
632,689.4523224141741
633,689.4487663066828
634,689.4474272778299
635,689.4482479108086
636,689.4511602478148
637,689.4560863260909
638,689.4629387979181
639,689.4716216261758
640,689.4820308465369
641,689.4940553875482
642,689.5075779403226
643,689.5224758696639
644,689.5386221579321
645,689.5558863724749
646,689.5741356476268
647,689.5932356726856
648,689.6130516768393
649,689.6334494003963
650,689.6542960399794
651,689.6754611550648
652,689.6968175249397
653,689.7182419479207
654,689.7396159771697
655,689.7608265889867
656,689.7817667802993
657,689.8023360926743
658,689.8224410608848
659,689.841995585024
660,689.8609212261175
661,689.8791474258227
662,689.8966116510564
663,689.9132594645038
664,689.9290445223465
665,689.9439285015612
666,689.9578809604943
667,689.9708791374361
668,689.9829076923633
669,689.9939583973469
670,690.0040297817281
671,690.0131267391116
672,690.0212601042296
673,690.0284462081997
674,690.0347064200371
675,690.0400666805648
676,690.0445570327133
677,690.0482111503522
678,690.0510658669754
679,690.0531607061913
680,690.0545374176288
681,690.055239523182
682,690.0553118783522
683,690.0548002520281
684,690.0537509267289
685,690.0522103210703
686,690.0502246367259
687,690.047839532536
688,690.0450998281774
689,690.0420492390709
690,690.0387301432922
691,690.03518338038
692,690.0314480814955
693,690.0275615307961
694,690.0235590588991
695,690.0194739698229
696,690.0153375018305
697,690.011178820319
698,690.0070250384418
699,690.0029012595726
700,689.9988306354355
701,689.9948344345632
702,689.990932117229
703,689.9871414144195
704,689.9834784090806
705,689.9799576178365
706,689.9765920712513
707,689.9733933907894
708,689.9703718606117
709,689.967536492112
710,689.9648950791354
711,689.9624542425023
712,689.9602194635498
713,689.9581951074915
714,689.9563844381796
715,689.954789626117
716,689.953411751331
717,689.9522508023061
718,689.9513056717773
719,689.9505741497627
720,689.9500529138433
721,689.9497375166732
722,689.949622371091
723,689.9497007337014
724,689.9499646881379
725,689.9504051295249
726,689.9510117523746
727,689.9517730452347
728,689.9526762959882
729,689.9537076110219
730,689.9548519499249
731,689.9560931759414
732,689.9574141214575
733,689.9587966669822
734,689.9602218311385
735,689.9616698683999
736,689.9631203711252
737,689.9645523730078
738,689.9659444521075
739,689.9672748327791
740,689.9685214867513
741,689.9696622341304
742,689.9706748449494
743,689.9715371410157
744,689.972227096733
745,689.9727229369047
746,689.9730032293413
747,689.9730469701427
748,689.9728336596729
749,689.9723433675349
750,689.971556785285
751,689.970455266052
752,689.9690208503291
753,689.9672362768675
754,689.9650849771571
755,689.9625510520436
756,689.9596192300446
757,689.9562748088456
758,689.952503583871
759,689.9482917701089
760,689.9436259248267
761,689.9384928788713
762,689.9328796830958
763,689.9267735748842
764,689.9201619683422
765,689.9130324704308
766,689.905372923887
767,689.8971714762629
768,689.8884166732814
769,689.8790975744205
770,689.8692038891232
771,689.8587261324328
772,689.8476557982736
773,689.8359855471258
774,689.8237094035578
775,689.8108229588921
776,689.7973235750567
777,689.783210586787
778,689.7684855003772
779,689.7531521878587
780,689.7372170755605
781,689.7206893255308
782,689.7035810076344
783,689.6859072595076
784,689.6676864308147
785,689.6489402071412
786,689.6296937077425
787,689.6099755512646
788,689.5898178852128
789,689.569256377752
790,689.5483301729305
791,689.5270818115954
792,689.5055571202149
793,689.4838050693334
794,689.4618776031753
795,689.4398294421278
796,689.4177178602915
797,689.3956024409204
798,689.3735448134191
799,689.3516083763585
800,689.3298580112527
801,689.3083597913984
802,689.2871806888696
803,689.2663882809344
804,689.2460504552585
805,689.2262351121526
806,689.2070098622642
807,689.1884417190023
808,689.1705967856417
809,689.1535399369876
810,689.1373344950592
811,689.1220418979162
812,689.107721360662
813,689.0944295279382
814,689.0822201182957
815,689.0711435632026
816,689.0612466470316
817,689.0525721579825
818,689.0451585620132
819,689.0390397119246
820,689.0342446024116
821,689.0307971800007
822,689.0287162146024
823,689.028015236842
824,689.0287025424759
825,689.0307812623196
826,689.0342494935941
827,689.0391004867424
828,689.0453228807805
829,689.0529009801354
830,689.0618150663048
831,689.0720417380354
832,689.0835542738728
833,689.0963230111113
834,689.1103157354265
835,689.1254980754709
836,689.1418338961553
837,689.1592856834651
838,689.1778149131521
839,689.197382395965
840,689.217948593061
841,689.2394738964111
842,689.2619188702049
843,689.2852444506392
844,689.3094121028652
845,689.3343839348394
846,689.3601227683665
847,689.3865921684537
848,689.4137564336937
849,689.4415805523128
850,689.4700301299534
851,689.4990712957751
852,689.5286705932149
853,689.5587948613157
854,689.5894111122963
855,689.6204864108829
856,689.651987760497
857,689.6838820005601
858,689.7161357181126
859,689.7487151758578
860,689.7815862576449
861,689.8147144310475
862,689.8480647249628
863,689.8816017185331
864,689.9152895369489
865,689.9490918499707
866,689.9829718696651
867,690.0168923444537
868,690.0508155474946
869,690.0847032590002
870,690.1185167439177
871,690.1522167276817
872,690.1857633733102
873,690.219116263172
874,690.2522343883941
875,690.2850761481436
876,690.317599360134
877,690.3497612828728
878,690.3815186495317
879,690.4128277129905
880,690.44364430162
881,690.4739238856284
882,690.5036216542172
883,690.5326926041633
884,690.5610916404639
885,690.5887736891934
886,690.6156938219946
887,690.6418073910021
888,690.6670701726972
889,690.6914385193046
890,690.7148695167273
891,690.7373211481136
892,690.7587524614975
893,690.779123738791
894,690.7983966626842
895,690.8165344783682
896,690.8335021479866
897,690.8492664965432
898,690.8637963485646
899,690.8770626557106
900,690.8890386169476
901,690.8996997943689
902,690.9090242284801
903,690.9169925562074
904,690.923588133145
905,690.9287971593477
906,690.9326088059532
907,690.9350153382109
908,690.9360122291964
909,690.9355982582106
910,690.9337755889858
911,690.9305498246882
912,690.9259300381971
913,690.9199287769203
914,690.9125620418914
915,690.903849241407
916,690.8938131199089
917,690.882479663046
