frame_number,force
0,688.3519290006948
1,688.4635924526486
2,688.5738688407071
3,688.6814056059465
4,688.7849175610838
5,688.8832167183384
6,688.975238032884
7,689.0600603324706
8,689.1369219342669
9,689.2052306839274
10,689.2645684572454
11,689.3146904778932
12,689.355520018075
13,689.3871391362148
14,689.4097761194868
15,689.4237902804082
16,689.4296547089976
17,689.4279375344091
18,689.419282267101
19,689.4043878875074
20,689.383989438868
21,689.3588398633739
22,689.3296936613867
23,689.2972927247238
24,689.2623544947636
25,689.2255624804152
26,689.1875591480865
27,689.1489412163907
28,689.1102573662389
29,689.0720082821805
30,689.0346488120846
31,688.9985918806607
32,688.9642136151185
33,688.9318590227962
34,688.9018476001908
35,688.8744784070416
36,688.8500342809282
37,688.8287849571344
38,688.8109889264415
39,688.7968939075986
40,688.7867358242703
41,688.7807362075018
42,688.7790980466813
43,688.7820002622836
44,688.7895910915245
45,688.801980720024
46,688.8192335031508
47,688.8413601462905
48,688.8683102167734
49,688.8999653065982
50,688.9361331331021
51,688.976542957625
52,689.0208428793508
53,689.0685996597645
54,689.119301638459
55,689.1723650315265
56,689.2271435666212
57,689.2829411327124
58,689.3390269826489
59,689.3946529865206
60,689.4490723895738
61,689.501559425513
62,689.5514290273067
63,689.5980558635754
64,689.6408920339663
65,689.6794828734612
66,689.713480320112
67,689.742653232971
68,689.7668940811967
69,689.7862216423441
70,689.8007796348163
71,689.8108314206797
72,689.8167510353439
73,689.8190108959333
74,689.8181666393571
75,689.8148396426486
76,689.8096978955026
77,689.8034360179438
78,689.7967552880784
79,689.7903445247852
80,689.7848625628053
81,689.7809228739026
82,689.7790806462939
83,689.7798224097893
84,689.7835581792863
85,689.7906160857079
86,689.8012394714641
87,689.8155863720787
88,689.8337312230854
89,689.8556686031886
90,689.8813188403417
91,689.9105352496298
92,689.943112593349
93,689.9787961921046
94,690.017291131656
95,690.0582711932843
96,690.1013873627455
97,690.1462759485187
98,690.1925664079245
99,690.2398889205087
100,690.2878816197931
101,690.3361972948582
102,690.3845093462214
103,690.4325167930591
104,690.479948123288
105,690.5265637451972
106,690.5721568141803
107,690.6165523521057
108,690.6596048127564
109,690.7011944362825
110,690.741222790849
111,690.7796078537791
112,690.8162789185916
113,690.8511715759922
114,690.8842230113543
115,690.9153678712283
116,690.9445349442342
117,690.9716448475926
118,690.9966088226198
119,691.0193286744164
120,691.0396978700345
121,691.0576038058548
122,691.0729312410014
123,691.0855668707372
124,691.0954049567043
125,691.1023537987489
126,691.106342664637
127,691.1073286989438
128,691.1053033744838
129,691.1002981982829
130,691.0923895507955
131,691.0817026213398
132,691.0684143639347
133,691.0527553012695
134,691.0350099429988
135,691.0155155799102
136,690.9946592552957
137,690.9728728189631
138,690.9506261380308
139,690.928418699699
140,690.9067699319872
141,690.8862086059472
142,690.8672617010201
143,690.850443118419
144,690.8362426227507
145,690.8251153797037
146,690.8174723975958
147,690.8136720348891
148,690.8140125425964
149,690.8187254858071
150,690.8279699257403
151,690.8418274093458
152,690.8602979790313
153,690.8832974882949
154,690.91065649356
155,690.9421209307864
156,690.9773546886225
157,691.0159440491595
158,691.0574038158877
159,691.1011848505433
160,691.1466827160749
161,691.1932471514746
162,691.2401921917194
163,691.286806900185
164,691.3323668287857
165,691.3761463454633
166,691.4174318282871
167,691.4555354873064
168,691.4898093566477
169,691.5196588938263
170,691.5445556316786
171,691.5640483716714
172,691.5777724391919
173,691.5854565886011
174,691.5869273172037
175,691.5821106121249
176,691.5710314087938
177,691.5538111799524
178,691.5306640822338
179,691.5018920027326
180,691.4678787036706
181,691.4290831107327
182,691.386031708297
183,691.3393100092528
184,691.2895530949153
185,691.2374352411975
186,691.183658705982
187,691.1289418768788
188,691.0740071173645
189,691.0195687264436
190,690.9663214088897
191,690.9149295448954
192,690.8660173577432
193,690.8201598419505
194,690.7778741522166
195,690.739611214002
196,690.705747604019
197,690.6765780620303
198,690.6523091221725
199,690.6330542788967
200,690.618830950821
201,690.6095593579328
202,690.6050633311007
203,690.6050730928835
204,690.609230166155
205,690.6170946131988
206,690.6281546283426
207,690.6418381501987
208,690.65752583113
209,690.674564563356
210,690.6922808255752
211,690.7099933170447
212,690.7270246372092
213,690.7427120934458
214,690.7564179779706
215,690.7675397509222
216,690.7755204775026
217,690.7798596379799
218,690.7801241293672
219,690.7759589809466
220,690.7670970868338
221,690.7533671832206
222,690.7346993933027
223,690.7111278743698
224,690.6827903109769
225,690.6499241300021
226,690.6128593991173
227,690.5720084780429
228,690.527852643322
229,690.4809260990954
230,690.4317980198468
231,690.3810535090524
232,690.3292745243036
233,690.277021873721
234,690.2248193318112
235,690.1731407378518
236,690.1224006035242
237,690.0729483202147
238,690.0250656524532
239,689.9789669659034
240,689.9348016240308
241,689.8926581563261
242,689.8525700474654
243,689.8145231993117
244,689.778465173192
245,689.7443161942913
246,689.7119816540018
247,689.6813655854147
248,689.6523843980824
249,689.6249800732884
250,689.5991320113889
251,689.5748667437871
252,689.5522647810574
253,689.5314640256781
254,689.5126594801748
255,689.4960994059086
256,689.4820785276145
257,689.4709291815907
258,689.4630113678816
259,689.4587025156524
260,689.4583875185784
261,689.4624493302258
262,689.4712601621119
263,689.485173134521
264,689.5045141535259
265,689.5295738660029
266,689.5605997348491
267,689.5977884659935
268,689.6412790902266
269,689.691146895752
270,689.747398168267
271,689.8099654771274
272,689.8787031871285
273,689.9533829881765
274,690.0336894642007
275,690.1192160287068
276,690.2094618688484
277,690.3038307404163
278,690.4016324668346
279,690.5020878455528
280,690.6043374112969
281,690.7074541595234
282,690.8104599066382
283,690.912344535751
284,691.0120870836084
285,691.108677561412
286,691.2011385250202
287,691.2885455721499
288,691.3700460674505
289,691.4448755319908
290,691.5123713327897
291,691.5719835368853
292,691.623282999297
293,691.6659669005467
294,691.6998619901563
295,691.7249257025677
296,691.7412451659156
297,691.7490340637768
298,691.7486274061102
299,691.7404744299415
300,691.725129911704
301,691.7032440580197
302,691.675550944404
303,691.6428553348791
304,691.6060177285929
305,691.5659376822114
306,691.5235357942938
307,691.4797350083219
308,691.4354418977887
309,691.3915283744283
310,691.3488140518539
311,691.3080494915636
312,691.2699007215078
313,691.2349355766951
314,691.2036124371214
315,691.1762718114624
316,691.1531309857334
317,691.1342817057395
318,691.1196906930294
319,691.1092027731489
320,691.1025464651636
321,691.0993419022265
322,691.0991108665463
323,691.1012886107509
324,691.105237101146
325,691.1102593604504
326,691.1156146420418
327,691.1205341929456
328,691.1242373734232
329,691.1259479134993
330,691.1249100895747
331,691.1204046157974
332,691.1117641210445
333,691.0983881954003
334,691.0797579932234
335,691.0554501831843
336,691.0251497370502
337,690.9886608253073
338,690.9459150217708
339,690.896976082927
340,690.8420407174835
341,690.7814349876768
342,690.7156062760348
343,690.6451110706529
344,690.5705991251994
345,690.4927948085381
346,690.4124766318575
347,690.3304559605966
348,690.2475557576668
349,690.1645899473741
350,690.0823437693542
351,690.0015553759413
352,689.9228989118034
353,689.8469693792188
354,689.7742696931418
355,689.7052004184197
356,689.640052732805
357,689.5790051345521
358,689.5221242455046
359,689.4693697556186
360,689.4206032444511
361,689.3756004295318
362,689.334066306338
363,689.2956525264499
364,689.2599761590194
365,689.2266387965908
366,689.195244923816
367,689.1654185975156
368,689.136817741596
369,689.1091456776211
370,689.0821598324329
371,689.0556778160817
372,689.0295811610937
373,689.0038169145702
374,688.9783970561879
375,688.9533955655372
376,688.9289430201015
377,688.9052188239103
378,688.8824413822392
379,688.8608566397036
380,688.8407253970332
381,688.8223097888572
382,688.8058593142413
383,688.7915969044059
384,688.7797056675739
385,688.770317069725
386,688.7635012686503
387,688.7592600880578
388,688.7575228006143
389,688.7581446123988
390,688.7609075624462
391,688.765523466403
392,688.7716385385893
393,688.7788394275523
394,688.7866605642606
395,688.7945928537144
396,688.8020937444593
397,688.808598585698
398,688.8135330298127
399,688.8163261614347
400,688.8164240400124
401,688.8133033611658
402,688.8064849242248
403,688.7955465646328
404,688.7801352137454
405,688.7599777687643
406,688.734890443618
407,688.7047862343795
408,688.6696801346421
409,688.6296918242361
410,688.5850457173042
411,688.5360684295077
412,688.4831838259622
413,688.4269058049725
414,688.3678289104614
415,688.3066168466291
416,688.2439890542494
417,688.1807056785314
418,688.1175514234961
419,688.0553188549295
420,687.9947916594099
421,687.9367282559941
422,687.8818460999128
423,687.8308070735125
424,687.7842044718253
425,687.7425521339279
426,687.7062761642367
427,687.6757094463394
428,687.6510888689622
429,687.6325549701837
430,687.6201536314373
431,687.6138395148843
432,687.6134810763069
433,687.618867114984
434,687.6297148666326
435,687.6456795885298
436,687.6663654779929
437,687.6913376626484
438,687.7201349132629
439,687.7522826393497
440,687.7873056417183
441,687.824740073124
442,687.8641441496525
443,687.9051073078587
444,687.947257581202
445,687.9902669285001
446,688.033854213064
447,688.0777856416743
448,688.1218726879298
449,688.1659676946132
450,688.2099574344982
451,688.2537550091386
452,688.2972906387325
453,688.3405020705018
454,688.3833254152242
455,688.4256871984827
456,688.4674983154873
457,688.5086504204004
458,688.549015081493
459,688.588445839981
460,688.6267831596107
461,688.6638621423249
462,688.6995227790694
463,688.7336223441876
464,688.7660492859372
465,688.7967376665086
466,688.8256809755109
467,688.8529440582628
468,688.8786719917641
469,688.9030950069892
470,688.9265289474181
471,688.9493711764051
472,688.9720922117936
473,688.9952236246997
474,689.0193428880513
475,689.0450559487024
476,689.0729783842424
477,689.1037160934133
478,689.1378465027805
479,689.1759012088787
480,689.2183508043981
481,689.2655923481512
482,689.3179395453299
483,689.3756153216917
484,689.4387462720026
485,689.5073584977692
486,689.5813745316954
487,689.6606112691578
488,689.744779040321
489,689.833482126079
490,689.9262211095387
491,690.0223974494287
492,690.1213205880506
493,690.2222178081604
494,690.324246948168
495,690.4265119473254
496,690.5280810018199
497,690.6280069069696
498,690.7253490097738
499,690.8191961173216
500,690.9086896458319
501,690.9930462184949
502,691.0715788808569
503,691.1437161712684
504,691.2090184464022
505,691.2671910246117
506,691.318093790551
507,691.3617468916794
508,691.3983321114752
509,691.428189519595
510,691.4518091310873
511,691.4698175247877
512,691.482959610579
513,691.492075984174
514,691.4980766024999
515,691.501911838495
516,691.5045422226775
517,691.5069082495583
518,691.5099015410434
519,691.5143385114952
520,691.5209375024158
521,691.5303001135636
522,691.5428971754519
523,691.559059569198
524,691.5789738925072
525,691.6026827011581
526,691.6300887566341
527,691.6609625617276
528,691.6949525536058
529,691.7315975286118
530,691.7703410255401
531,691.8105474324155
532,691.8515195415512
533,691.892517211374
534,691.932776718465
535,691.9715302950034
536,692.0080252833604
537,692.0415423731471
538,692.0714125189513
539,692.0970322733698
540,692.11787731264
541,692.1335138733682
542,692.1436077463038
543,692.1479305009902
544,692.1463627873648
545,692.1388948069402
546,692.12562423314
547,692.1067518978696
548,692.0825754764826
549,692.0534813063649
550,692.0199344549561
551,691.9824672042187
552,691.9416661709389
553,691.8981583148507
554,691.8525961561552
555,691.8056426546724
556,691.7579563065487
557,691.7101769860756
558,691.6629129184408
559,691.6167290273921
560,691.5721368231387
561,691.529585956131
562,691.4894575329716
563,691.4520592866842
564,691.417622733101
565,691.3863024996385
566,691.3581780170895
567,691.333257662117
568,691.3114852112496
569,691.2927481643123
570,691.2768872200593
571,691.2637060298554
572,691.2529803461683
573,691.2444658219437
574,691.2379039972863
575,691.2330263792167
576,691.2295568785929
577,691.2272131184511
578,691.2257072041903
579,691.224746427078
580,691.2240341246727
581,691.2232707039097
582,691.222154785557
583,691.2203845336577
584,691.2176593244585
585,691.2136818554915
586,691.2081606377236
587,691.2008126964448
588,691.1913663116807
589,691.1795637079945
590,691.1651636575017
591,691.1479439511577
592,691.1277036633205
593,691.1042651313311
594,691.0774756035134
595,691.0472085668191
596,691.013364839033
597,690.975873566972
598,690.9346932634911
599,690.889812936005
600,690.8412532738604
601,690.7890678499051
602,690.7333443479497
603,690.6742058635534
604,690.611812277642
605,690.5463616061392
606,690.4780911632514
607,690.4072783769772
608,690.3342411345374
609,690.259337549318
610,690.1829649869945
611,690.1055581043762
612,690.0275856333881
613,689.9495457305505
614,689.8719598711881
615,689.7953654438334
616,689.7203073774381
617,689.6473293062089
618,689.5769649100597
619,689.5097301061703
620,689.4461166647753
621,689.3865875740136
622,689.33157412064
623,689.2814742687625
624,689.2366516384136
625,689.197434332227
626,689.1641130423518
627,689.1369381611528
628,689.1161158618282
629,689.1018032604762
630,689.0941028765963
631,689.0930567302778
632,689.0986405543376
633,689.1107587314852
634,689.1292406261636
635,689.1538388772587
636,689.1842299412099
637,689.2200168459733
638,689.2607338717926
639,689.3058527634834
640,689.3547900926292
641,689.4069155041387
642,689.4615607311003
643,689.518029337626
644,689.5756071176553
645,689.6335730350966
646,689.6912106346272
647,689.7478199185393
648,689.8027296025864
649,689.8553093839766
650,689.9049815472981
651,689.9512311345153
652,689.9936140967129
653,690.0317631941682
654,690.0653917053182
655,690.09429514317
656,690.1183511979958
657,690.1375181023208
658,690.1518316039823
659,690.1614007574194
660,690.1664027678925
661,690.1670770973159
662,690.1637189574789
663,690.1566722145236
664,690.1463216751581
665,690.1330847746491
666,690.1174027984007
667,690.0997318355925
668,690.0805336521396
669,690.0602666498264
670,690.0393771133697
671,690.0182910456821
672,689.9974070116177
673,689.9770904572745
674,689.9576698563133
675,689.9394347650926
676,689.9226355419735
677,689.9074842182039
678,689.8941559076585
679,689.8827902782197
680,689.8734929100565
681,689.8663366227571
682,689.8613628848626
683,689.8585832629138
684,689.8579807294939
685,689.8595106786835
686,689.8631016487552
687,689.8686558845135
688,689.876049906678
689,689.8851352134099
690,689.8957391666133
691,689.9076660473905
692,689.9206982590401
693,689.9345977781863
694,689.9491081655902
695,689.9639575751635
696,689.9788630910386
697,689.99353640353
698,690.0076904798677
699,690.0210466620873
700,690.0333415935298
701,690.0443335121624
702,690.0538076807654
703,690.0615809370705
704,690.067505439078
705,690.0714716569398
706,690.0734106199462
707,690.0732954129676
708,690.071141883132
709,690.0670084475406
710,690.060994863169
711,690.0532398889087
712,690.0439179021315
713,690.0332346643139
714,690.0214225168655
715,690.008735295587
716,689.9954431845828
717,689.9818276381362
718,689.968176413679
719,689.9547786729554
720,689.9419200354722
721,689.9298774534279
722,689.9189138308881
723,689.909272386175
724,689.9011708118396
725,689.8947953421493
726,689.8902949600856
727,689.887776158973
728,689.8872987822297
729,689.8888733791623
730,689.8924602947379
731,689.8979705114093
732,689.9052681380707
733,689.9141743376804
734,689.9244723613135
735,689.9359132558244
736,689.9482218035765
737,689.9611023561248
738,689.9742444003999
739,689.9873278837085
740,690.00002847524
741,690.0120230236518
742,690.0229954433046
743,690.0326431196178
744,690.0406837451211
745,690.0468623775903
746,690.0509584641012
747,690.0527925597327
748,690.0522324675716
749,690.0491985439787
750,690.0436679520844
751,690.0356776830862
752,690.0253261520905
753,690.0127730942609
754,689.9982373914077
755,689.9819924457057
756,689.9643588539991
757,689.945694418098
758,689.9263818889643
759,689.9068151919037
760,689.8873851037422
761,689.8684653666871
762,689.850400053914
763,689.8334927733241
764,689.817998098762
765,689.8041154429957
766,689.7919853943308
767,689.7816883384744
768,689.7732450483836
769,689.7666189209009
770,689.7617196559748
771,689.7584082793359
772,689.7565033623304
773,689.7557881051113
774,689.7560177895416
775,689.7569271156713
776,689.7582370902427
777,689.7596613383089
778,689.7609118947338
779,689.7617046578835
780,689.7617647140472
781,689.7608316762265
782,689.7586650798587
783,689.7550497773004
784,689.7498011483594
785,689.7427697575316
786,689.7338448938414
787,689.7229563887497
788,689.7100743339997
789,689.6952067236266
790,689.6783953951161
791,689.6597107857532
792,689.6392459670948
793,689.6171102978965
794,689.593422954238
795,689.5683065800274
796,689.5418813221086
797,689.5142595630409
798,689.4855417471495
799,689.4558137705459
800,689.4251464038373
801,689.3935971024396
802,689.3612143306447
803,689.3280442024661
804,689.2941389112278
805,689.2595662162096
806,689.2244192489516
807,689.1888260178916
808,689.1529580736977
809,689.1170377762156
810,689.0813435314543
811,689.046212315752
812,689.0120387969478
813,688.9792704197486
814,688.948398010561
815,688.9199418549198
816,688.894433792967
817,688.8723964832369
818,688.8543213643734
819,688.8406469113802
820,688.8317386384703
821,688.8278720730658
822,688.8292196551291
823,688.8358421916306
824,688.8476851260782
825,688.8645795108848
826,688.8862472519762
827,688.9123099775649
828,688.9423007970423
829,688.9756782593681
830,689.0118419347659
831,689.0501491462039
832,689.0899324397878
833,689.1305174388984
834,689.1712407850642
835,689.2114678762572
836,689.2506100243409
837,689.288140505424
838,689.323608875226
839,689.356652940006
840,689.3870078862786
841,689.4145122065758
842,689.4391101911184
843,689.4608509096763
844,689.4798837629553
845,689.496450768513
846,689.510875765269
847,689.5235507853346
848,689.5349200269044
849,689.5454621005614
850,689.5556713881427
851,689.5660393821593
852,689.5770367914978
853,689.5890970924862
854,689.6026021361058
855,689.6178703731324
856,689.6351481739823
857,689.6546045793689
858,689.6763296464075
859,689.7003363865048
860,689.7265661268771
861,689.7548969266471
862,689.7851544234474
863,689.817124251957
864,689.8505650803158
865,689.8852213752162
866,689.9208351319612
867,689.9571559240994
868,689.9939487932671
869,690.0309997705745
870,690.0681191269738
871,690.1051426722181
872,690.1419315301714
873,690.1783708475851
874,690.2143678564686
875,690.2498496138658
876,690.2847606216043
877,690.3190604152312
878,690.3527211262085
879,690.3857249837891
880,690.4180617374342
881,690.4497260333427
882,690.4807148539123
883,690.5110251978397
884,690.5406521908062
885,690.5695877504501
886,690.5978198245576
887,690.6253321331312
888,690.6521043054787
889,690.6781123287702
890,690.7033292904191
891,690.7277264186876
892,690.7512743295499
893,690.773944212274
894,690.7957085783097
895,690.8165412569062
896,690.8364164784098
897,690.8553070150388
898,690.8731814393141
899,690.8900006987532
900,690.9057144253745
901,690.9202576250086
902,690.9335485013164
903,690.9454880776314
904,690.9559620027786
905,690.9648445755427
906,690.9720046989979
907,690.9773131998711
908,690.9806507343396
909,690.9819154442094
910,690.9810296879999
911,690.9779454453886
912,690.9726482090225
913,690.9651592816208
914,690.9555364539222
915,690.9438731016711
916,690.9302957918808
917,690.9149605071839
