frame_number,force
0,688.3519290014028
1,688.3877785851454
2,688.4235246476327
3,688.4590644997382
4,688.494297104897
5,688.5291238769148
6,688.5634494454656
7,688.5971823807675
8,688.6302358699373
9,688.6625283386047
10,688.6939840127344
11,688.724533417041
12,688.7541138075787
13,688.7826695369453
14,688.8101523512101
15,688.8365216182735
16,688.8617444878865
17,688.8857959840885
18,688.9086590315333
19,688.9303244181073
20,688.9507906971456
21,688.970064033097
22,688.9881579945805
23,689.0050932986267
24,689.0208975097758
25,689.0356046978009
26,689.0492550581295
27,689.0618944994286
28,689.0735742030212
29,689.0843501587303
30,689.0942826815245
31,689.103435912981
32,689.1118773111023
33,689.1196771316552
34,689.1269079042563
35,689.1336439067701
36,689.1399606418471
37,689.1459343194855
38,689.1516413494556
39,689.1571578472677
40,689.1625591570853
41,689.1679193947248
42,689.1733110138093
43,689.1788043981925
44,689.1844674837014
45,689.1903654119451
46,689.1965602185281
47,689.2031105576457
48,689.2100714646097
49,689.2174941572669
50,689.2254258767559
51,689.2339097679263
52,689.2429847998911
53,689.2526857271263
54,689.2630430909269
55,689.274083259946
56,689.2858285072912
57,689.2982971206319
58,689.3115035411945
59,689.3254585272886
60,689.3401693378119
61,689.3556399308583
62,689.3718711722584
63,689.3888610489167
64,689.4066048822409
65,689.4250955374646
66,689.4443236248768
67,689.4642776889985
68,689.4849443821043
69,689.5063086194133
70,689.5283537144212
71,689.5510614937796
72,689.5744123917954
73,689.5983855252153
74,689.622958749554
75,689.6481086988113
76,689.673810811043
77,689.7000393428544
78,689.7267673763174
79,689.7539668219372
80,689.7816084211238
81,689.809661751193
82,689.8380952352808
83,689.8668761589299
84,689.8959706947678
85,689.9253439366573
86,689.9549599446601
87,689.9847818018931
88,690.0147716839911
89,690.0448909416581
90,690.075100196666
91,690.1053594513047
92,690.1356282105567
93,690.1658656155807
94,690.1960305869238
95,690.2260819762095
96,690.255978725516
97,690.2856800339719
98,690.3151455311009
99,690.3443354560894
100,690.3732108415933
101,690.4017337002535
102,690.4298672118722
103,690.4575759091217
104,690.4848258595506
105,690.5115848414761
106,690.5378225113494
107,690.5635105605792
108,690.5886228604924
109,690.6131355946944
110,690.6370273782901
111,690.6602793633505
112,690.6828753298923
113,690.7048017616213
114,690.7260479057898
115,690.7466058166804
116,690.7664703823543
117,690.7856393343069
118,690.8041132395834
119,690.8218954748985
120,690.8389921824329
121,690.8554122071818
122,690.8711670158983
123,690.8862705978298
124,690.9007393474957
125,690.9145919295881
126,690.9278491257993
127,690.9405336633171
128,690.9526700250735
129,690.9642842424774
130,690.9754036720574
131,690.9860567578751
132,690.9962727816236
133,691.0060816021855
134,691.0155133863735
135,691.0245983326649
136,691.0333663899416
137,691.0418469736043
138,691.0500686819521
139,691.0580590161878
140,691.0658441076326
141,691.0734484557705
142,691.0808946806836
143,691.0882032933071
144,691.0953924867382
145,691.1024779515934
146,691.1094727179886
147,691.1163870260231
148,691.1232282257854
149,691.1300007072233
150,691.1367058600056
151,691.143342063663
152,691.1499047084458
153,691.1563862472098
154,691.162776278256
155,691.169061658533
156,691.1752266460012
157,691.1812530692448
158,691.1871205216818
159,691.1928065771871
160,691.1982870236504
161,691.2035361108939
162,691.208526809492
163,691.2132310773953
164,691.2176201316408
165,691.2216647224956
166,691.2253354069967
167,691.228602818225
168,691.2314379261265
169,691.2338122855521
170,691.235698267424
171,691.2370692693174
172,691.2378999021223
173,691.2381661499702
174,691.2378455014572
175,691.2369170513442
176,691.2353615730473
177,691.2331615630306
178,691.2303012586242
179,691.2267666309154
180,691.2225453543076
181,691.2176267542346
182,691.212001734611
183,691.2056626869092
184,691.1986033831124
185,691.1908188550832
186,691.1823052632565
187,691.1730597580805
188,691.1630803381436
189,691.1523657092033
190,691.1409151482851
191,691.1287283766432
192,691.1158054447152
193,691.1021466313524
194,691.0877523589312
195,691.072623125898
196,691.0567594588766
197,691.0401618870883
198,691.0228309418682
199,691.0047671834803
200,690.9859712565914
201,690.9664439749237
202,690.9461864349136
203,690.9252001578492
204,690.9034872599069
205,690.8810506492476
206,690.8578942484269
207,690.8340232389547
208,690.809444323542
209,690.7841660008656
210,690.7581988476244
211,690.7315558030491
212,690.7042524517267
213,690.6763073014433
214,690.6477420534461
215,690.6185818627844
216,690.5888555861512
217,690.5585960140384
218,690.5278400832437
219,690.4966290650541
220,690.4650087239786
221,690.4330294419289
222,690.400746303304
223,690.3682191373746
224,690.3355125153163
225,690.3026956999904
226,690.2698425471918
227,690.2370313577842
228,690.2043446809785
229,690.1718690699633
230,690.1396947921717
231,690.1079154975452
232,690.0766278490161
233,690.0459311199273
234,690.0159267632699
235,689.9867179573708
236,689.958409131946
237,689.9311054773938
238,689.9049124392359
239,689.8799351991164
240,689.8562781439077
241,689.8340443251358
242,689.8133349118042
243,689.7942486404116
244,689.7768812662094
245,689.7613250194397
246,689.7476680696072
247,689.7359940000865
248,689.7263812948044
249,689.7189028384677
250,689.713625431736
251,689.7106093227408
252,689.7099077564434
253,689.7115665436856
254,689.7156236525557
255,689.7221088258029
256,689.7310432291655
257,689.7424391361716
258,689.7562996549351
259,689.7726185017624
260,689.7913798253583
261,689.8125580843233
262,689.8361179795712
263,689.862014442372
264,689.8901926781289
265,689.9205882658391
266,689.9531273133504
267,689.9877266686668
268,690.0242941873466
269,690.0627290552777
270,690.102922164972
271,690.1447565424398
272,690.1881078211032
273,690.2328447591345
274,690.2788297968908
275,690.3259196516589
276,690.3739659475156
277,690.4228158783983
278,690.4723129022418
279,690.5222974633647
280,690.5726077393524
281,690.623080407526
282,690.6735514247384
283,690.7238568129483
284,690.7738334421836
285,690.8233198024176
286,690.8721567563958
287,690.9201882661424
288,690.9672620865082
289,691.0132304198386
290,691.0579505267981
291,691.1012852894736
292,691.143103723934
293,691.183281440337
294,691.2217010492943
295,691.2582525134603
296,691.2928334434059
297,691.325349337192
298,691.3557137638703
299,691.383848492144
300,691.4096835660997
301,691.4331573300451
302,691.4542164043357
303,691.4728156140625
304,691.4889178728591
305,691.50249402499
306,691.5135226501279
307,691.5219898362236
308,691.5278889260209
309,691.5312202421784
310,691.5319907953537
311,691.5302139795432
312,691.5259092593565
313,691.5191018542257
314,691.5098224244252
315,691.498106763159
316,691.4839954980091
317,691.4675338039835
318,691.4487711295612
319,691.4277609367196
320,691.404560455772
321,691.3792304555412
322,691.3518350287734
323,691.3224413920177
324,691.2911196987569
325,691.2579428643876
326,691.2229864015369
327,691.1863282640309
328,691.1480486976562
329,691.1082300957339
330,691.0669568574089
331,691.024315246524
332,690.980393249145
333,690.9352804281554
334,690.8890677734167
335,690.8418475455055
336,690.7937131102944
337,690.7447587611604
338,690.6950795256107
339,690.6447709535454
340,690.5939288850689
341,690.5426491967057
342,690.4910275260186
343,690.4391589758519
344,690.3871378005989
345,690.3350570779195
346,690.2830083701014
347,690.2310813795374
348,690.1793636025167
349,690.1279399849374
350,690.0768925830373
351,690.0263002320038
352,689.9762382253565
353,689.9267780082309
354,689.8779868879968
355,689.829927765882
356,689.7826588933673
357,689.7362336569583
358,689.6907003943267
359,689.64610224377
360,689.6024770278626
361,689.5598571714422
362,689.5182696536398
363,689.4777359931152
364,689.4382722648594
365,689.3998891461741
366,689.3625919891092
367,689.3263809168217
368,689.2912509418815
369,689.2571921052973
370,689.2241896358054
371,689.1922241295291
372,689.1612717502396
373,689.1313044499794
374,689.102290209007
375,689.0741932934188
376,689.0469745288307
377,689.0205915890054
378,688.9949992988173
379,688.9701499511085
380,688.9459936368562
381,688.9224785878422
382,688.8995515309167
383,688.8771580531052
384,688.8552429771505
385,688.833750747327
386,688.8126258251351
387,688.7918130937068
388,688.7712582687243
389,688.7509083127648
390,688.7307118493968
391,688.7106195730726
392,688.6905846508588
393,688.670563112362
394,688.6505142247256
395,688.6304008500324
396,688.6101897825471
397,688.5898520629867
398,688.5693632667063
399,688.5487037626431
400,688.5278589400934
401,688.5068194006969
402,688.4855811132172
403,688.4641455289222
404,688.4425196556982
405,688.4207160894308
406,688.3987530015069
407,688.376654081546
408,688.3544484348496
409,688.3321704346915
410,688.30985953043
411,688.2875600132979
412,688.2653207423809
413,688.2431948335998
414,688.2212393146336
415,688.1995147489366
416,688.1780848324954
417,688.1570159676862
418,688.1363768192397
419,688.1162378576425
420,688.0966708952142
421,688.0777486197917
422,688.0595441307685
423,688.042130482327
424,688.0255802389327
425,688.0099650481254
426,687.995355235136
427,687.9818194229001
428,687.9694241799372
429,687.9582336976312
430,687.9483094979096
431,687.9397101721635
432,687.9324911523134
433,687.9267045149505
434,687.9223988192515
435,687.9196189788385
436,687.9184061670795
437,687.9187977546801
438,687.9208272778321
439,687.9245244346129
440,687.9299151067924
441,687.9370214038853
442,687.9458617263346
443,687.9564508449731
444,687.9687999939869
445,687.9829169743537
446,687.9988062645401
447,688.0164691355084
448,688.0359037677017
449,688.057105368189
450,688.0800662864381
451,688.1047761275531
452,688.131221862422
453,688.1593879348565
454,688.1892563661977
455,688.2208068579542
456,688.2540168929332
457,688.2888618350571
458,688.3253150276788
459,688.3633478898606
460,688.4029300098695
461,688.444029235055
462,688.4866117572052
463,688.5306421922484
464,688.5760836526564
465,688.6228978102573
466,688.6710449467193
467,688.7204839889451
468,688.7711725270977
469,688.8230668139616
470,688.8761217456745
471,688.9302908252691
472,688.9855261116691
473,689.0417781576373
474,689.0989959406766
475,689.1571267911584
476,689.2161163222052
477,689.2759083660571
478,689.3364449216677
479,689.3976661179581
480,689.4595101964973
481,689.521913516324
482,689.5848105822392
483,689.648134096514
484,689.7118150330897
485,689.7757827331662
486,689.8399650213246
487,689.9042883416913
488,689.9686779139889
489,690.0330579095234
490,690.0973516471408
491,690.1614818088993
492,690.2253706747407
493,690.2889403749314
494,690.3521131585451
495,690.4148116756961
496,690.4769592705518
497,690.538480281467
498,690.5993003441052
499,690.6593466931886
500,690.7185484583944
501,690.776836949789
502,690.8341459282066
503,690.8904118563631
504,690.9455741271865
505,690.9995752665649
506,691.0523611082143
507,691.1038809386076
508,691.1540876100576
509,691.2029376203865
510,691.2503911582992
511,691.2964121145043
512,691.3409680596116
513,691.3840301908187
514,691.4255732504981
515,691.4655754209535
516,691.5040182005118
517,691.540886266444
518,691.5761673300349
519,691.609851988724
520,691.6419335797162
521,691.672408038708
522,691.7012737664669
523,691.7285315051872
524,691.7541842257986
525,691.7782370264488
526,691.8006970413239
527,691.8215733583395
528,691.8408769443089
529,691.8586205766128
530,691.874818780661
531,691.8894877723773
532,691.902645404659
533,691.9143111164291
534,691.9245058825588
535,691.9332521625944
536,691.9405738459734
537,691.9464961914954
538,691.9510457592133
539,691.9542503333628
540,691.9561388351435
541,691.9567412241004
542,691.9560883867629
543,691.9542120114452
544,691.9511444487948
545,691.946918558607
546,691.9415675441802
547,691.9351247758137
548,691.9276236050073
549,691.9190971708464
550,691.9095782001996
551,691.8990988036929
552,691.8876902697533
553,691.875382859255
554,691.8622056036312
555,691.8481861097931
556,691.8333503755628
557,691.8177226192684
558,691.8013251267176
559,691.7841781182938
560,691.7662996386031
561,691.7477054708648
562,691.7284090779938
563,691.7084215721288
564,691.6877517142648
565,691.6664059455647
566,691.6443884516801
567,691.6217012608159
568,691.598344375305
569,691.5743159352461
570,691.5496124116246
571,691.5242288255512
572,691.4981589899073
573,691.471395769791
574,691.4439313586856
575,691.4157575680875
576,691.3868661291192
577,691.3572490051505
578,691.3268987144467
579,691.2958086613053
580,691.2639734732351
581,691.231389340936
582,691.1980543575894
583,691.1639688542001
584,691.1291357279574
585,691.0935607604158
586,691.0572529218516
587,691.0202246578675
588,690.9824921544304
589,690.9440755778967
590,690.9049992869082
591,690.8652920132154
592,690.8249870086286
593,690.7841221555483
594,690.7427400389117
595,690.7008879778751
596,690.6586180161092
597,690.6159868701083
598,690.573055835258
599,690.5298906495563
600,690.4865613150181
601,690.4431418771616
602,690.39971016354
603,690.3563474827915
604,690.3131382859268
605,690.2701697916749
606,690.2275315778816
607,690.1853151413084
608,690.1436134286289
609,690.1025203417666
610,690.0621302208353
611,690.0225373079372
612,689.9838351952246
613,689.9461162610635
614,689.909471098744
615,689.8739879427989
616,689.8397520985627
617,689.8068453811247
618,689.7753455701777
619,689.7453258872921
620,689.7168545017038
621,689.6899940697915
622,689.6648013121334
623,689.6413266306258
624,689.6196137670162
625,689.5996995037017
626,689.5816134078262
627,689.565377620173
628,689.5510066906473
629,689.5385074621311
630,689.5278790043393
631,689.5191125991975
632,689.5121917791886
633,689.5070924200313
634,689.5037828887426
635,689.502224247363
636,689.5023705113373
637,689.5041689601313
638,689.5075604965173
639,689.5124800502491
640,689.5188570215344
641,689.5266157597408
642,689.5356760729471
643,689.5459537639432
644,689.5573611880092
645,689.5698078275434
646,689.5832008786573
647,689.5974458450214
648,689.6124471340197
649,689.628108649508
650,689.6443343746782
651,689.6610289383983
652,689.6780981591784
653,689.6954495622005
654,689.712992866012
655,689.7306404362132
656,689.748307703879
657,689.7659135467576
658,689.7833806316484
659,689.8006357168367
660,689.8176099139433
661,689.8342389088816
662,689.8504631417774
663,689.8662279458006
664,689.8814836450873
665,689.8961856124471
666,689.9102942882284
667,689.9237751622383
668,689.9365987208694
669,689.9487403617953
670,689.960180278924
671,689.970903320792
672,689.9808988260991
673,689.9901604403452
674,689.9986859172803
675,690.0064769081265
676,690.0135387405841
677,690.0198801888225
678,690.0255132353145
679,690.030452825703
680,690.0347166186912
681,690.0383247335841
682,690.0412994980632
683,690.0436651981441
684,690.0454478316848
685,690.046674866703
686,690.0473750060196
687,690.0475779599286
688,690.0473142284968
689,690.0466148947579
690,690.045511429652
691,690.0440355091572
692,690.0422188438532
693,690.0400930213438
694,690.0376893624218
695,690.0350387920921
696,690.0321717261054
697,690.0291179725925
698,690.0259066472345
699,690.0225660996574
700,690.0191238485937
701,690.0156065237137
702,690.0120398127017
703,690.0084484127811
704,690.0048559861821
705,690.0012851190025
706,689.9977572828357
707,689.9942927985469
708,689.9909108015556
709,689.9876292078426
710,689.9844646799
711,689.9814325921308
712,689.9785469956847
713,689.9758205832013
714,689.973264654266
715,689.9708890824917
716,689.9687022850038
717,689.9667111948984
718,689.9649212370387
719,689.9633363073453
720,689.9619587555443
721,689.9607893713091
722,689.9598273739006
723,689.9590704056191
724,689.9585145295324
725,689.9581542320707
726,689.9579824313987
727,689.9579904929687
728,689.958168253912
729,689.9585040576086
730,689.9589847990427
731,689.9595959808833
732,689.9603217797841
733,689.9611451220154
734,689.9620477670982
735,689.9630103977445
736,689.9640127143241
737,689.965033532331
738,689.9660508818093
739,689.9670421082279
740,689.9679839747237
741,689.9688527658753
742,689.9696243930971
743,689.9702745013409
744,689.9707785763011
745,689.9711120510029
746,689.9712504105753
747,689.9711692940299
748,689.9708445919413
749,689.9702525390542
750,689.9693698010485
751,689.9681735548916
752,689.9666415622557
753,689.9647522353257
754,689.9624846941165
755,689.9598188144562
756,689.9567352662579
757,689.9532155425958
758,689.9492419812173
759,689.9447977811842
760,689.9398670180111
761,689.9344346606998
762,689.9284865935393
763,689.9220096448195
764,689.9149916239625
765,689.9074213679838
766,689.8992887975347
767,689.8905849820884
768,689.8813022133114
769,689.8714340855362
770,689.8609755824829
771,689.8499231695704
772,689.8382748908983
773,689.8260304693088
774,689.8131914073529
775,689.7997610869102
776,689.7857448655767
777,689.7711501684655
778,689.7559865745512
779,689.7402658970177
780,689.7240022571146
781,689.7072121508252
782,689.6899145073498
783,689.6721307381384
784,689.6538847748711
785,689.6352030942952
786,689.61611472732
787,689.5966512497456
788,689.5768467527785
789,689.5567377928029
790,689.53636332105
791,689.5157645943667
792,689.4949850682751
793,689.4740702733011
794,689.4530676754671
795,689.4320265219562
796,689.4109976731778
797,689.3900334227675
798,689.3691873074579
799,689.3485139091279
800,689.3280686514806
801,689.3079075935981
802,689.2880872220684
803,689.2686642425421
804,689.2496953706943
805,689.2312371220615
806,689.2133456002817
807,689.1960762836808
808,689.1794838104429
809,689.1636217625704
810,689.1485424486336
811,689.1342966851505
812,689.1209335763825
813,689.1085002924513
814,689.0970418461644
815,689.086600870025
816,689.0772173965346
817,689.0689286465597
818,689.0617688314904
819,689.055768974938
820,689.0509567590834
821,689.0473563998967
822,689.0449885544136
823,689.0438702620556
824,689.044014920636
825,689.0454322963483
826,689.0481285658492
827,689.0521063876712
828,689.0573649997307
829,689.0639003396273
830,689.0717051845903
831,689.080769308084
832,689.0910796501375
833,689.1026204985403
834,689.1153736781438
835,689.1293187455053
836,689.144433185839
837,689.1606926088323
838,689.1780709396415
839,689.1965406015281
840,689.2160726870441
841,689.2366371152171
842,689.2582027727369
843,689.2807376377772
844,689.304208885741
845,689.328582976662
846,689.3538257242511
847,689.3799023469691
848,689.406777502247
849,689.4344153058722
850,689.4627793392256
851,689.491832647301
852,689.5215377303348
853,689.5518565316789
854,689.5827504244521
855,689.6141801994403
856,689.6461060565283
857,689.678487601569
858,689.7112838501085
859,689.7444532388936
860,689.7779536455859
861,689.8117424164869
862,689.8457764012815
863,689.8800119930617
864,689.9144051715577
865,689.9489115476289
866,689.9834864073765
867,690.0180847545238
868,690.0526613501304
869,690.0871707494446
870,690.1215673365357
871,690.155805357944
872,690.1898389568398
873,690.2236222092095
874,690.2571091634151
875,690.2902538841331
876,690.3230105012599
877,690.3553332639872
878,690.3871765999485
879,690.4184951791785
880,690.4492439826295
881,690.4793783751022
882,690.508854182638
883,690.5376277745809
884,690.5656561505263
885,690.5928970321368
886,690.6193089594668
887,690.6448513911432
888,690.6694848076047
889,690.6931708166518
890,690.7158722607309
891,690.7375533254203
892,690.7581796482808
893,690.7777184266924
894,690.7961385229675
895,690.8134105651911
896,690.8295070427047
897,690.8444023955224
898,690.8580730972451
899,690.8704977314464
900,690.8816570621698
901,690.8915340998618
902,690.90011416441
903,690.9073849467013
904,690.9133365693244
905,690.9179616460217
906,690.9212553385768
907,690.9232154090417
908,690.9238422646208
909,690.9231389924095
910,690.9211113817215
911,690.9177679326096
912,690.9131198498911
913,690.9071810223621
914,690.8999679871227
915,690.8914998791877
916,690.8817983667768
