acceleration,velocity,displacement
-0.021972687301233536,0.0,0.0
-0.02143453323953343,-1.0851805135191743e-05,-2.712951283797936e-09
-0.02089808112597236,-2.143495872656819e-05,-1.078464224923792e-08
-0.02036501863705442,-3.175073366732489e-05,-2.408106534771119e-08
-0.019837005116119598,-4.1801239605618395e-05,-4.246905866594701e-08
-0.01931565791664923,-5.15894053638106e-05,-6.581671990830427e-08
-0.01880253932336478,-6.11189546738141e-05,-9.399380991771044e-08
-0.01829914420212373,-7.039437555518622e-05,-1.2687214247496053e-07
-0.017806888511292706,-7.942088373354033e-05,-1.6432595729714216e-07
-0.017327098787371466,-8.820438055820638e-05,-2.0623227337007883e-07
-0.016861002692804366,-9.675140592825033e-05,-2.52471219991693e-07
-0.016409720687552892,-0.00010506908677333965,-3.0292634316709053e-07
-0.01597425886426638,-0.00011316508166129446,-3.5748488527574907e-07
-0.015555502971420778,-0.00012104752212021625,-4.1603803622112677e-07
-0.015154213636756666,-0.00012872495127226063,-4.78481154569246e-07
-0.01477102279271063,-0.00013620626037962746,-5.44713957482218e-07
-0.014406431296303613,-0.00014350062390188102,-6.146406785525952e-07
-0.014060807726657696,-0.00015061743365762134,-6.881701929424708e-07
-0.013734388330543506,-0.00015756623267192165,-7.652161095248565e-07
-0.013427278069612804,-0.00016435664927196074,-8.456968300108271e-07
-0.013139452706824423,-0.00017099833196607004,-9.295355753203349e-07
-0.012870761859888528,-0.00017750088560774827,-1.0166603797137895e-06
-0.01262093294840314,-0.00018387380930982118,-1.1070040534431818e-06
-0.012389575964575471,-0.00019012643653806583,-1.2005041149051535e-06
-0.012176189000047523,-0.00019626787777922157,-1.2971026934844753e-06
-0.011980164460110397,-0.00020230696614426105,-1.396746404465346e-06
-0.011800795891329735,-0.00020825220623212109,-1.4993861975594415e-06
-0.011637285341845917,-0.000214111726540415,-1.6049771807525755e-06
-0.011488751170272765,-0.00021989323566844467,-1.7134784213047906e-06
-0.011354236220788386,-0.00022560398251620997,-1.8248527258509543e-06
-0.011232716286583535,-0.00023125072064305295,-1.93906640164077e-06
-0.011123108790677358,-0.00023683967691236817,-2.0560890010296253e-06
-0.011024281622370138,-0.00024237652451563005,-2.175893051386625e-06
-0.010935062074605645,-0.000247866360439874,-2.298453772625501e-06
-0.010854245826815727,-0.0002533136874152293,-2.4237487845892767e-06
-0.010780605911689705,-0.00025872240034985566,-2.551757806530548e-06
-0.01071290159976214,-0.00026409577722771865,-2.6824623509249415e-06
-0.010649887134804022,-0.0002694364744113602,-2.8158454138347113e-06
-0.010590320253982067,-0.0002747465262585567,-2.9518911640021906e-06
-0.010532970429796383,-0.00028002734892950136,-3.090584632799205e-06
-0.010476626775997712,-0.0002852797482309499,-3.231911407089318e-06
-0.010420105564572138,-0.00029050393131609234,-3.3758573269760786e-06
-0.010362257302252247,-0.00029569952203279846,-3.522408190313301e-06
-0.010301973314095282,-0.00030086557968688534,-3.671549465743222e-06
-0.010238191782841018,-0.0003060006209611194,-3.823266015905223e-06
-0.010169903198350505,-0.00031110264470641727,-3.977541832322107e-06
-0.010096155178732079,-0.0003161691593006879,-4.1343597833238835e-06
-0.010016056631413294,-0.0003211972122532243,-4.293701376212361e-06
-0.00992878123010743,-0.00032618342171860445,-4.455546534705319e-06
-0.009833570194315229,-0.00033112400957471013,-4.619873392528647e-06
-0.009729734367313935,-0.00033601483571511743,-4.786658103851104e-06
-0.00961665559063562,-0.0003408514332046048,-4.955874671081035e-06
-0.009493787370073475,-0.0003456290439447821,-5.127494790368382e-06
-0.009360654829098699,-0.00035034265449457514,-5.3014877149782215e-06
-0.009216853956411291,-0.0003549870316909526,-5.477820136524604e-06
-0.009062050174149437,-0.0003595567577235928,-5.65645608387824e-06
-0.008895976275999893,-0.00036404626433613016,-5.837356839393171e-06
-0.008718429803090767,-0.00036844986585590284,-6.020480871941179e-06
-0.008529269935882914,-0.0003727617907906463,-6.2057837861028165e-06
-0.008328413984222136,-0.00037697621177067256,-6.393218286743146e-06
-0.008115833561112491,-0.00038108727365700624,-6.582734158100065e-06
-0.00789155053142247,-0.00038508911968013996,-6.774278256434352e-06
-0.0076556328318652285,-0.0003889759155209619,-6.967794515234627e-06
-0.007408190257693626,-0.0003927418712933516,-7.163223961938206e-06
-0.007149370303283658,-0.0003963812614335959,-7.360504745119943e-06
-0.0068793541341758396,-0.0003998884425429608,-7.559572171114082e-06
-0.006598352763981422,-0.0004032578692675001,-7.760358749066697e-06
-0.006306603508795673,-0.0004064841083356944,-7.962794243467496e-06
-0.006004366784891665,-0.00040956185090911624,-8.166805733278699e-06
-0.005691923298156131,-0.00041248592342987817,-8.372317676863448e-06
-0.005369571652319094,-0.000415251297167497,-8.579251982012793e-06
-0.005037626385570004,-0.00041785309667696926,-8.787528080473909e-06
-0.004696416432637619,-0.0004202866073815212,-8.997063006488531e-06
-0.0043462839983131095,-0.0004225472824892589,-9.207771478956226e-06
-0.003987583817252846,-0.0004246307494431504,-9.419565986939329e-06
-0.0036206827638755254,-0.0004265328160884325,-9.632356878322225e-06
-0.0032459597646648055,-0.00042824947672056755,-9.846052451524474e-06
-0.0028638059537885265,-0.00042977691815018087,-1.0060559050242162e-05
-0.0024746250049338895,-0.00043111152588986147,-1.0275781161252172e-05
-0.0020788335697975303,-0.0004322498905335443,-1.0491621515358024e-05
-0.0016768617567457734,-0.00043318881436518015,-1.0707981191582704e-05
-0.0012691535909554463,-0.00043392531820210544,-1.0924759724724526e-05
-0.0008561674091466054,-0.00043445664845213097,-1.1141855216388084e-05
-0.000438376153523671,-0.00043478028434279856,-1.1359164449586817e-05
-1.6267535650477046e-05,-0.0004348939452650921,-1.157658300698879e-05
0.0004096559582522245,-0.00043479559815944166,-1.1794005392844922e-05
0.0008388772484370955,-0.00043448346485776935,-1.2011325158599225e-05
0.0012708650521841029,-0.00043395602928261403,-1.2228435032134321e-05
0.0017050745000406768,-0.00043321204439455784,-1.2445227050553614e-05
0.002140947989741474,-0.0004322505387721123,-1.2661592696345282e-05
0.0025779162874990935,-0.00043107082270280213,-1.287742303671401e-05
0.00301539987974693,-0.00042967249366099064,-1.3092608865804958e-05
0.003452810564905658,-0.0004280554410498275,-1.3307040849482662e-05
0.0038895532619787933,-0.0004262198500931064,-1.3520609672268395e-05
0.004325028009646613,-0.00042416620477520007,-1.3733206185985471e-05
0.004758632135557535,-0.00042189528973889904,-1.3944721559613995e-05
0.005189762583969117,-0.00041940819105901737,-1.4155047429813473e-05
0.005617818395587596,-0.0004167062958141282,-1.436407605153176e-05
0.006042203333469502,-0.00041379129038186395,-1.4571700448080758e-05
0.006462328642046276,-0.000410665157387985,-1.477781456002322e-05
0.006877615916020765,-0.0004073301712484683,-1.4982313392182334e-05
0.007287500047415235,-0.0004037888922576093,-1.5185093158058854e-05
0.00769143221493152,-0.00040004415919202264,-1.538605142092126e-05
0.008088882878173814,-0.0003960990804187463,-1.5585087230823954e-05
0.00847934473710386,-0.00039195702351492684,-1.5782101256807374e-05
0.008862335613753635,-0.0003876216034272125,-1.597699591354291e-05
0.009237401212945745,-0.00038309666922053763,-1.6169675481704846e-05
0.009604117725972026,-0.0003783862894858082,-1.636004622138143e-05
0.009962094253848263,-0.0003734947364908531,-1.6548016477875598e-05
0.010310975037265774,-0.0003684264691680746,-1.673349677929033e-05
0.010650441483905823,-0.0003631861150377817,-1.6916399925341794e-05
0.010980213982169407,-0.0003577784511712629,-1.7096641066894055e-05
0.011300053487998653,-0.00035220838430372086,-1.72741377757628e-05
0.011609762870992378,-0.0003464809302139731,-1.7448810104392225e-05
0.011909188007655992,-0.000340601192494311,-1.7620580635069295e-05
0.012198218612440302,-0.00033457434083928694,-1.7789374518402695e-05
0.01247678879936097,-0.00032840558898633663,-1.7955119500859102e-05
0.012744877366852906,-0.00032210017244478314,-1.8117745941216883e-05
0.013002507796761506,-0.00031566332615387956,-1.827718681586655e-05
0.013249747957924957,-0.00030910026221520797,-1.8433377712958822e-05
0.013486709507121452,-0.00030241614784894637,-1.858625681547486e-05
0.013713546983632531,-0.00029561608372625787,-1.873576487336866e-05
0.01393045659670157,-0.00028870508283117437,-1.8881845165008018e-05
0.014137674707791682,-0.00028168805000505103,-1.9024443448217074e-05
0.014335476010444636,-0.00027456976232549196,-1.916350790129971e-05
0.014524171407228231,-0.00026735485047107375,-1.929898905449885e-05
0.014704105578094834,-0.000260047781224743,-1.9430839712422807e-05
0.014875654233207832,-0.00025265284127191733,-1.9559014868046973e-05
0.015039221049468168,-0.0002451741224512483,-1.9683471608977766e-05
0.015195234301919536,-0.0002376155086134014,-1.9804169016743928e-05
0.015344143213881507,-0.00022998066423445112,-1.9921068059955893e-05
0.015486414057647347,-0.0002222730249165689,-2.0034131482243646e-05
0.015622526038512802,-0.00021449578989252887,-2.014332368594592e-05
0.015752966992339856,-0.0002066519166348157,-2.0248610612577756e-05
0.015878228925839462,-0.00019874411765527088,-2.0349959621150278e-05
0.01599880343041412,-0.0001907748595662075,-2.0447339365455648e-05
0.01611517700407093,-0.00018274636445758622,-2.0540719671461598e-05
0.01622782632256137,-0.00017466061362592816,-2.0630071415982476e-05
0.0163372135105712,-0.000166519353667645,-2.071536640780587e-05
0.01644378147245511,-0.00015832410492188842,-2.0796577272453254e-05
0.016547949346239828,-0.00015007617221721468,-2.087367734173803e-05
0.01665010814533047,-0.0001417766578443221,-2.0946640549253415e-05
0.016750616651359372,-0.00013342647664514964,-2.1015441332875784e-05
0.01684979761924001,-0.00012502637307749978,-2.1080054545306448e-05
0.016947934352061732,-0.00011657694008467435,-2.1140455373596992e-05
0.017045267699055695,-0.00010807863957189499,-2.1196619268511133e-05
0.01714199352233086,-9.953182426654835e-05,-2.1248521884470745e-05
0.017238260665332267,-9.093676071963256e-05,-2.129613903071729e-05
0.01733416944020408,-8.229365319324848e-05,-2.1339446634195513e-05
0.017429770638923325,-7.360266817346662e-05,-2.137842071453719e-05
0.01752506506922917,-6.48639592464285e-05,-2.1413037371392164e-05
0.017620003619473325,-5.607769207425287e-05,-2.1443272784222336e-05
0.017714487859442928,-4.724406920452381e-05,-2.146910322454203e-05
0.017808371181994426,-3.836335444416447e-05,-2.1490505080454202e-05
0.017901460483379074,-2.943589652782109e-05,-2.15074548931972e-05
0.01799351837074195,-2.0462151814290832e-05,-2.1519929405282727e-05
0.01808426587422885,-1.1442705753048132e-05,-2.152790561967456e-05
0.01817338562800873,-2.3782928774887372e-06,-2.1531360869332193e-05
0.018260525471184317,6.730184897309523e-06,-2.153027289632724e-05
0.01834530240976554,1.5881641867546987e-05,-2.1524619939636026e-05
0.018427306875595746,2.5074794188887307e-05,-2.1514380830621918e-05
0.018506107216494476,3.430814771190986e-05,-2.149953509514672e-05
0.01858125435415829,4.3579988104573055e-05,-2.1480063061192598e-05
0.01865228655307154,5.288837333138051e-05,-2.1455945970833608e-05
0.018718734250842004,6.22311285323589e-05,-2.1427166095367674e-05
0.018780124901656585,7.160584332048356e-05,-2.1393706852404462e-05
0.018835987777568796,8.10098714902899e-05,-2.135555292370177e-05
0.01888585866085354,9.044033309989548e-05,-2.1312690372554224e-05
0.018929284351133613,9.989411885289227e-05,-2.126510675956603e-05
0.01896582690837944,0.00010936789666777052,-2.1212791255685863e-05
0.01899506755736328,0.0001188581202842062,-2.115573475144787e-05
0.01901661018618918,0.0001283610397200943,-2.1093929961446794e-05
0.01903008437862318,0.0001378727133612974,-2.1027371523176448e-05
0.019035147929473206,0.0001473890214383215,-2.0956056089476543e-05
0.019031488808061818,0.00015690568062270524,-2.0879982413961285e-05
0.019018826555997716,0.0001664182594637201,-2.0799151428939678e-05
0.018996913126455815,0.00017592219438433349,-2.0713566315477667e-05
0.018965533186949723,0.00018541280596268486,-2.062323256539091e-05
0.01892450391517819,0.00019488531523821685,-2.0528158035090687e-05
0.01887367431994076,0.0002043348597969966,-2.0428352991331885e-05
0.018812924118100934,0.00021375650940650703,-2.032383014903101e-05
0.018742162196748485,0.0002231452809852194,-2.0214604701433078e-05
0.018661324691346952,0.00023249615270724326,-2.0100694343009962e-05
0.018570372716560757,0.00024180407705922017,-1.9982119285568347e-05
0.018469289792989195,0.00025106399268660766,-1.985890226813189e-05
0.018358079018553245,0.00026027083488949326,-1.9731068561237865e-05
0.018236760040053215,0.0002694195446541449,-1.9598645966351957e-05
0.018105365890038503,0.0002785050761366678,-1.9461664811154253e-05
0.017963939763594283,0.00028752240255007597,-1.9320157941482566e-05
0.017812531814921453,0.0002964665204447049,-1.917416071073387e-05
0.017651196052663253,0.0003053324524116011,-1.9023710967519795e-05
0.017479987406147066,0.00031411524827630366,-1.886884904234782e-05
0.017298959022495255,0.00032280998488346424,-1.870961773405788e-05
0.01710815983897335,0.0003314117645988314,-1.8546062296687304e-05
0.016907632462507823,0.0003399157126742017,-1.8378230427369045e-05
0.016697411387345245,0.000348316973636665,-1.8206172255791328e-05
0.01647752159255881,0.000356610706881641,-1.802994033566175e-05
0.01624797757251948,0.0003647920816729106,-1.784958963852311e-05
0.016008782854225016,0.0003728562717795967,-1.7665177550159983e-05
0.0157599300445362,0.000380798450004287,-1.7476763869714013e-05
0.01550140143494255,0.00038861378287415667,-1.7284410811494403e-05
0.01523317017596572,0.00039629742577688374,-1.7088183009331644e-05
0.014955202020487597,0.0004038445188259971,-1.6888147523180922e-05
0.014667457628788412,0.00041125018373831606,-1.6684373847539844e-05
0.014369895427014726,0.00041850952200226684,-1.64769339211047e-05
0.014062475006044534,0.00042561761461053167,-1.62659021369515e-05
0.013745161030867153,0.0004325695236197596,-1.6051355352393926e-05
0.013417927604390966,0.0004393602957785741,-1.5833372897544344e-05
0.01308076300551647,0.000445984968431051,-1.5612036581491937e-05
0.012733674708224382,0.00045243857785948617,-1.5387430694919304e-05
0.01237669458720148,0.00045871617018334264,-1.5159642007908597e-05
0.012009884222568741,0.0004648128148857852,-1.4928759761641316e-05
0.011633340229001901,0.00047072362099867787,-1.46948756526702e-05
0.011247199549935725,0.00047644375594341226,-1.4458083808434677e-05
0.010851644670184745,0.00048196846699844235,-1.4218480752699213e-05
0.010446908704907654,0.00048729310534221544,-1.397616535961405e-05
0.010033280318180222,0.0004924131525979874,-1.3731238795128998e-05
0.009611108412988303,0.0004973242497807796,-1.3483804444534306e-05
0.009180806519911376,0.0005020222285140045,-1.3233967824960609e-05
0.008742856798294563,0.0005065031443435559,-1.298183648174622e-05
0.008297813555166783,0.0005107633119319213,-1.2727519867677351e-05
0.007846306187227281,0.0005147993418675198,-1.2471129204227491e-05
0.007389041461268181,0.0005186081787796437,-1.22127773240657e-05
0.006926805065395764,0.0005221871404113097,-1.1952578494267961e-05
0.006460462380736268,0.0005255339572728427,-1.1690648219846923e-05
0.0059909584367150645,0.0005286468124772055,-1.1427103027409411e-05
0.005519317024200874,0.0005315243813424345,-1.1162060228954501e-05
0.005046638953388461,0.0005341658703368319,-1.0895637666034686e-05
0.004574099458343531,0.0005365710549397649,-1.0627953434715537e-05
0.004102944767445414,0.0005387403159962121,-1.0359125591981542e-05
0.0036344878784460135,0.000540674674157685,-1.0089271844443069e-05
0.0031701035964693132,0.0005423758220264138,-9.818509220397043e-06
0.002711222908752754,0.0005438461536527194,-9.54695372647726e-06
0.002259326778953881,0.0005450887910746461,-9.274719990295419e-06
0.0018159394464790752,0.0005461076076310043,-9.001920890619007e-06
0.00138262131147378,0.0005469072478204925,-8.728667176756133e-06
0.000960961472652456,0.0005474931435165241,-8.45506707892188e-06
0.0005525699657848214,0.0005478715263761334,-8.181225911448714e-06
0.0001590697325655058,0.000548049436300721,-7.9072456707795e-06
-0.00021791165971397217,0.0005480347258189339,-7.633224630249587e-06
-0.0005767505248083398,0.0005478360602728034,-7.359256933726652e-06
-0.0009158357555119994,0.0005474629137027233,-7.085432190232771e-06
-0.0012335776620839933,0.0005469255603483242,-6.811835071720009e-06
-0.0015284168870349417,0.0005462350617110445,-6.538544916205167e-06
-0.0017988333275247956,0.0005454032491574046,-6.265635338488054e-06
-0.0020433550023089674,0.0005444427020749462,-5.993173850679967e-06
-0.00226056681275702,0.0005433667216211797,-5.721221494755935e-06
-0.002449119161231583,0.0005421893001276826,-5.449832489318719e-06
-0.002607736400339977,0.0005409250862372897,-5.179053892727476e-06
-0.002735225091444995,0.0005395893458643435,-4.908925284702068e-06
-0.0028304820518542627,0.0005381979190785187,-4.639478468466352e-06
-0.0028925021699120184,0.0005367671730230772,-4.370737195440953e-06
-0.0029203859652255134,0.0005353139509892928,-4.102716914437861e-06
-0.0029133468643344775,0.0005338555177819028,-3.835424547245062e-06
-0.00287071814759749,0.0005324095015289198,-3.568858292417356e-06
-0.002791959502268691,0.0005309938321164532,-3.3030074590060127e-06
-0.002676663095485183,0.0005296266764670147,-3.0378523318601456e-06
-0.002524559067616686,0.0005283263709262392,-2.773364070011832e-06
-0.002335520346783015,0.0005271113510726393,-2.5095046395121126e-06
-0.002109566697878232,0.000526000079311474,-2.246226781916084e-06
-0.0018468679379581563,0.000525010970652515,-1.983474019425087e-06
-0.0015477462696137183,0.000524162317100622,-1.7211806974868026e-06
-0.0012126777031171002,0.0005234722111074393,-1.4592720654347872e-06
-0.0008422925545859205,0.0005229584685430135,-1.1976643955221741e-06
-0.0004373750180445176,0.000522638551649856,-9.362651404739567e-07
1.1381884172109652e-06,0.0005225294924424491,-6.749731294508804e-07
0.00047216010556397657,0.0005226478170159444,-4.136788020862821e-07
0.0009744567514449947,0.0005230094712301966,-1.5226448002474682e-07
0.0015066512781900891,0.0005236297482376054,1.0939532484220369e-07
0.0020672290566659075,0.0005245232183213194,3.714335664819349e-07
0.0026545436578021262,0.0005257036614999364,6.339902864372489e-07
0.003266823679912989,0.0005271840033343652,8.972122026458243e-07
0.0039021803606863153,0.0005289762543445151,1.1612522670655444e-06
0.0045586159115405655,0.0005310914534125718,1.4262691940048163e-06
0.005234032517753803,0.0005335396155198954,1.6924269612379332e-06
0.0059262419581063664,0.0005363296841388605,1.959894286152622e-06
0.0066329758090562805,0.0005394694885806511,2.2288440793325e-06
0.007351896204103387,0.000542965706583941,2.499452878123648e-06
0.008080607114871113,0.0005468238324136845,2.7719002628730546e-06
0.008816666108276515,0.0005510481507194715,3.046368258656344e-06
0.00955759651710608,0.0005556417163758171,3.323040725430166e-06
0.010300899940105284,0.00056060634049012,3.6021027396466504e-06
0.011044068962982328,0.0005659425827158919,3.883739970448153e-06
0.011784599967998332,0.0005716497499486371,4.168138053614285e-06
0.012520005884455697,0.0005777259014117505,4.455481966454382e-06
0.013247828730716688,0.0005841678600655437,4.745955406823706e-06
0.013965651807939839,0.0005909712302002078,5.039740179390144e-06
0.014671111418397335,0.000598130421006792,5.337015592191893e-06
0.015361907992853177,0.0006056386758596046,5.637957866408492e-06
0.016035816524571377,0.0006134881069889608,5.942739562120634e-06
0.01669069622504372,0.0006216697351763646,6.251529022661965e-06
0.017324499336436438,0.0006301735340667347,6.56448983997274e-06
0.0179352790549583,0.0006389884786645834,6.88178034315557e-06
0.018521196535953258,0.0006481025975623113,7.203553112212294e-06
0.019080526962768816,0.0006575030284369918,7.5299545187121195e-06
0.019611664665775706,0.000667176076344128,7.8611242949074e-06
