frame_number,force
0,688.3519290140249
1,688.3897751881652
2,688.4275016712658
3,688.4649897759409
4,688.5021228073604
5,688.5387870236685
6,688.574872555771
7,688.6102742758663
8,688.6448926053945
9,688.678634254469
10,688.7114128866109
11,688.7431497044537
12,688.7737739536158
13,688.803223343029
14,688.8314443808547
15,688.8583926258682
16,688.8840328548425
17,688.9083391471144
18,688.9312948884135
19,688.9528926972151
20,688.9731342780105
21,688.9920302065703
22,689.0095996523588
23,689.0258700430281
24,689.0408766757398
25,689.0546622801437
26,689.0672765382193
27,689.0787755666562
28,689.0892213676863
29,689.0986812541627
30,689.10722725436
31,689.1149355014884
32,689.1218856122616
33,689.1281600583696
34,689.1338435347518
35,689.1390223290006
36,689.1437836965445
37,689.1482152463238
38,689.1524043416019
39,689.1564375203446
40,689.1603999392291
41,689.1643748450049
42,689.168443076832
43,689.1726826032854
44,689.1771680976304
45,689.1819705545875
46,689.1871569512803
47,689.1927899546055
48,689.1989276767123
49,689.2056234795307
50,689.2129258286349
51,689.220878196582
52,689.2295190160753
53,689.2388816832397
54,689.2489946105384
55,689.2598813274648
56,689.2715606255464
57,689.2840467428875
58,689.2973495827506
59,689.3114749603959
60,689.3264248721648
61,689.3421977803904
62,689.3587889073613
63,689.3761905316263
64,689.3943922805095
65,689.4133814133794
66,689.4331430905121
67,689.4536606224368
68,689.4749156951416
69,689.4968885677285
70,689.5195582406179
71,689.5429025936248
72,689.5668984941151
73,689.5915218762253
74,689.6167477929181
75,689.6425504434162
76,689.6689031793699
77,689.6957784939123
78,689.7231479983235
79,689.7509823911929
80,689.7792514247583
81,689.8079238725452
82,689.8369675016063
83,689.8663490518504
84,689.896034224518
85,689.9259876818088
86,689.9561730596197
87,689.9865529950102
88,690.017089169541
89,690.047742369326
90,690.0784725624819
91,690.1092389941907
92,690.1400002986419
93,690.1707146262233
94,690.20133978411
95,690.2318333888212
96,690.2621530299133
97,690.292256444377
98,690.3221017013068
99,690.3516473959318
100,690.3808528513733
101,690.4096783258987
102,690.4380852231501
103,690.4660363027175
104,690.493495888264
105,690.5204300701851
106,690.5468068997588
107,690.5725965722521
108,690.5977715973381
109,690.62230695592
110,690.6461802427033
111,690.669371793748
112,690.6918647980634
113,690.7136453922747
114,690.734702737507
115,690.7550290778288
116,690.7746197797481
117,690.7934733522451
118,690.8115914467013
119,690.828978836054
120,690.8456433726676
121,690.8615959246578
122,690.876850290618
123,690.891423092884
124,690.9053336495294
125,690.9186038250608
126,690.93125785941
127,690.9433221747366
128,690.9548251599866
129,690.9657969339927
130,690.9762690887937
131,690.9862744154134
132,690.9958466144003
133,691.0050199932557
134,691.0138291527991
135,691.0223086646429
136,691.0304927422015
137,691.0384149081303
138,691.0461076617672
139,691.0536021507626
140,691.0609278513783
141,691.0681122619867
142,691.0751806142314
143,691.0821556061446
144,691.0890571612734
145,691.0959022175591
146,691.1027045491828
147,691.1094746236952
148,691.1162194956389
149,691.1229427370057
150,691.1296444046003
151,691.1363210446013
152,691.1429657348145
153,691.149568164959
154,691.1561147548373
155,691.1625888095806
156,691.1689707103799
157,691.1752381381939
158,691.181366326987
159,691.187328342358
160,691.193095381053
161,691.1986370867393
162,691.203921877576
163,691.2089172815922
164,691.213590276385
165,691.2179076297402
166,691.2218362372867
167,691.225343452491
168,691.2283974036247
169,691.2309672921575
170,691.2330236673407
171,691.2345386722453
172,691.2354862570132
173,691.2358423557538
174,691.2355850246258
175,691.2346945401381
176,691.2331534581722
177,691.2309466352752
178,691.2280612143029
179,691.224486576662
180,691.2202142633323
181,691.215237866716
182,691.2095528954821
183,691.2031566149842
184,691.1960478662937
185,691.1882268672749
186,691.1796949996071
187,691.1704545863344
188,691.1605086651898
189,691.1498607633129
190,691.1385146789103
191,691.1264742749369
192,691.1137432890127
193,691.100325162696
194,691.0862228923578
195,691.0714389038383
196,691.0559749538136
197,691.0398320616139
198,691.0230104752786
199,691.0055096748783
200,690.9873284150455
201,690.9684648075656
202,690.9489164439788
203,690.9286805576827
204,690.9077542249577
205,690.8861346039951
206,690.8638192098279
207,690.8408062212197
208,690.8170948138741
209,690.7926855134061
210,690.7675805614335
211,690.7417842886352
212,690.7153034895271
213,690.6881477947815
214,690.66033003781
215,690.6318666126491
216,690.6027778198628
217,690.5730881963705
218,690.5428268240858
219,690.5120276113029
220,690.4807295401677
221,690.4489768735752
222,690.4168193155432
223,690.3843121203026
224,690.3515161465688
225,690.318497854396
226,690.2853292428089
227,690.2520877272859
228,690.2188559572322
229,690.1857215747928
230,690.1527769177293
231,690.1201186704634
232,690.0878474684749
233,690.0560674618808
234,690.0248858442043
235,689.9944123520052
236,689.9647587400968
237,689.9360382357099
238,689.9083649736962
239,689.881853414207
240,689.8566177444552
241,689.832771267021
242,689.8104257782818
243,689.7896909414723
244,689.770673659208
245,689.7534774499094
246,689.7382018316756
247,689.7249417161892
248,689.7137868145139
249,689.7048210563084
250,689.6981220238996
251,689.6937604026789
252,689.691799449423
253,689.6922944806257
254,689.6952923839517
255,689.7008311573856
256,689.7089394821437
257,689.7196363363499
258,689.7329306564498
259,689.7488210524591
260,689.7672955818393
261,689.7883315854
262,689.8118955872856
263,689.8379432599414
264,689.8664194542097
265,689.8972582945383
266,689.9303833395306
267,689.9657078082834
268,690.0031348727173
269,690.0425580151605
270,690.0838614489907
271,690.1269205987728
272,690.1716026355791
273,690.21776706311
274,690.2652663506369
275,690.3139466095116
276,690.3636483107842
277,690.4142070418657
278,690.46545429988
279,690.5172183184978
280,690.5693249238433
281,690.6215984135739
282,690.6738624514971
283,690.7259409684165
284,690.7776590588211
285,690.8288438629147
286,690.879325424151
287,690.9289375133359
288,690.9775184111695
289,691.0249116420277
290,691.0709666530103
291,691.1155394336835
292,691.1584930732986
293,691.1996982534312
294,691.2390336747799
295,691.2763864171661
296,691.3116522318821
297,691.3447357659668
298,691.3755507190225
299,691.4040199344603
300,691.4300754279137
301,691.4536583556975
302,691.4747189259584
303,691.4932162551243
304,691.5091181727281
305,691.5224009788267
306,691.53304915982
307,691.5410550697419
308,691.5464185842513
309,691.5491467337672
310,691.5492533213657
311,691.5467585309559
312,691.5416885317225
313,691.5340750852123
314,691.5239551612601
315,691.5113705681175
316,691.4963676008776
317,691.4789967108969
318,691.4593121978073
319,691.437371925152
320,691.4132370604597
321,691.386971840162
322,691.3586433589395
323,691.3283213821846
324,691.2960781796847
325,691.2619883783799
326,691.2261288318907
327,691.1885785042814
328,691.1494183652926
329,691.1087312941097
330,691.0666019885831
331,691.0231168767637
332,690.978364027873
333,690.9324330602875
334,690.8854150442088
335,690.8374023960727
336,690.7884887607844
337,690.738768877241
338,690.6883384226215
339,690.6372938314827
340,690.5857320866104
341,690.5337504798058
342,690.4814463422766
343,690.428916745909
344,690.3762581782269
345,690.3235661952002
346,690.270935057061
347,690.2184573526731
348,690.1662236176569
349,690.114321950722
350,690.0628376320134
351,690.0118527469917
352,689.96144581943
353,689.9116914574294
354,689.8626600167782
355,689.8144172863043
356,689.7670242000145
357,689.7205365806321
358,689.6750049183676
359,689.6304741874268
360,689.5869837013876
361,689.5445670076527
362,689.503251820645
363,689.4630599927212
364,689.4240075207699
365,689.3861045855019
366,689.3493556200382
367,689.3137594046577
368,689.2793091853177
369,689.2459928145491
370,689.2137929143473
371,689.1826870614304
372,689.152647995411
373,689.1236438498403
374,689.0956384050515
375,689.0685913609656
376,689.0424586280631
377,689.0171926353995
378,688.992742655197
379,688.9690551437732
380,688.9460740983935
381,688.9237414293451
382,688.9019973464038
383,688.8807807590723
384,688.8600296904098
385,688.8396817045922
386,688.8196743480406
387,688.7999456029419
388,688.7804343506426
389,688.7610808412363
390,688.7418271648925
391,688.7226177200962
392,688.7033996739568
393,688.684123410129
394,688.6647429605569
395,688.6452164178213
396,688.6255063249873
397,688.6055800395046
398,688.5854100673062
399,688.5649743631717
400,688.5442565937002
401,688.5232463595987
402,688.5019393742557
403,688.4803375958178
404,688.4584493103958
405,688.4362891645208
406,688.4138781453595
407,688.3912435075113
408,688.3684186456729
409,688.3454429132643
410,688.3223613881925
411,688.2992245880525
412,688.2760881378869
413,688.2530123940068
414,688.2300620275156
415,688.2073055714363
416,688.1848149359748
417,688.1626648973551
418,688.1409325664983
419,688.1196968442175
420,688.0990378694721
421,688.0790364668284
422,688.0597735990136
423,688.0413298305773
424,688.0237848089565
425,688.007216769208
426,687.9917020680011
427,687.9773147512362
428,687.9641261582134
429,687.9522045640795
430,687.9416148615817
431,687.9324182829655
432,687.9246721629409
433,687.9184297436813
434,687.9137400225326
435,687.9106476424308
436,687.9091928241672
437,687.9094113388115
438,687.9113345178586
439,687.9149892979324
440,687.920398296202
441,687.9275799122605
442,687.9365484522938
443,687.9473142717227
444,687.9598839326081
445,687.9742603718054
446,687.9904430756155
447,688.0084282570455
448,688.0282090326003
449,688.0497755962094
450,688.0731153882753
451,688.0982132583194
452,688.1250516205027
453,688.1536106021357
454,688.1838681858086
455,688.2158003459054
456,688.2493811801354
457,688.284583036375
458,688.3213766346316
459,688.3597311834934
460,688.3996144901636
461,688.4409930630678
462,688.483832205941
463,688.5280961020082
464,688.5737478862142
465,688.6207497026196
466,688.6690627435103
467,688.7186472667355
468,688.7694625884258
469,688.8214670495128
470,688.8746179562094
471,688.9288714964291
472,688.9841826356918
473,689.0405049971739
474,689.0977907312092
475,689.155990379915
476,689.2150527429362
477,689.2749247505728
478,689.3355513505735
479,689.3968754144744
480,689.4588376685
481,689.521376652683
482,689.5844287100596
483,689.6479280060064
484,689.7118065766538
485,689.7759944050803
486,689.8404195243172
487,689.9050081466634
488,689.9696848192419
489,690.0343726060044
490,690.0989932963581
491,690.1634676402256
492,690.2277156087365
493,690.2916566790923
494,690.3552101414874
495,690.4182954252431
496,690.4808324404192
497,690.5427419302795
498,690.6039458293569
499,690.6643676215766
500,690.7239326927229
501,690.7825686713669
502,690.8402057523886
503,690.896776997713
504,690.9522186097716
505,691.0064701741246
506,691.0594748683206
507,691.1111796343732
508,691.1615353124181
509,691.2104967335489
510,691.2580227707023
511,691.3040763476627
512,691.3486244075165
513,691.3916378431559
514,691.4330913938442
515,691.4729635133483
516,691.5112362162945
517,691.547894909818
518,691.5829282173423
519,691.616327800796
520,691.6480881868838
521,691.6782066020469
522,691.7066828195511
523,691.7335190210836
524,691.7587196742556
525,691.7822914261653
526,691.8042430117873
527,691.8245851751402
528,691.8433306012639
529,691.8604938575783
530,691.8760913435352
531,691.8901412473939
532,691.9026635085824
533,691.913679783674
534,691.923213413565
535,691.9312893889883
536,691.9379343111801
537,691.9431763446199
538,691.9470451592849
539,691.9495718604484
540,691.9507889043138
541,691.9507299976892
542,691.9494299798048
543,691.9469246846896
544,691.9432507834317
545,691.9384456068497
546,691.9325469501059
547,691.9255928612191
548,691.9176214153953
549,691.9086704770066
550,691.8987774512481
551,691.8879790279552
552,691.8763109205028
553,691.8638076030356
554,691.8505020497237
555,691.8364254803696
556,691.8216071171922
557,691.8060739575442
558,691.7898505667818
559,691.772958894909
560,691.7554181202254
561,691.737244522914
562,691.7184513912149
563,691.6990489625837
564,691.6790444021299
565,691.658441820541
566,691.637242333386
567,691.6154441629407
568,691.5930427824305
569,691.570031101023
570,691.5463996864437
571,691.5221370210779
572,691.4972297869812
573,691.4716631753612
574,691.4454212167893
575,691.4184871294514
576,691.3908436837816
577,691.362473582461
578,691.3333598547579
579,691.3034862634604
580,691.2728377214667
581,691.2414007140596
582,691.2091637225601
583,691.1761176453413
584,691.142256212471
585,691.1075763900122
586,691.0720787694238
587,691.0357679371164
588,690.9986528193459
589,690.9607469980854
590,690.9220689939203
591,690.8826425122177
592,690.8424966489794
593,690.801666053096
594,690.7601910421876
595,690.7181176698227
596,690.6754977426069
597,690.6323887862783
598,690.5888539603795
599,690.5449619212349
600,690.5007866331207
601,690.456407127967
602,690.4119072146403
603,690.3673751394941
604,690.3229032001786
605,690.2785873148076
606,690.2345265487895
607,690.1908226020762
608,690.1475792601472
609,690.1049018124879
610,690.0628964424606
611,690.0216695924519
612,689.9813273083713
613,689.941974568131
614,689.9037145995248
615,689.8666481937249
616,689.8308730213597
617,689.796482958817
618,689.7635674328787
619,689.7322107918372
620,689.7024917106885
621,689.674482636824
622,689.6482492809924
623,689.6238501564982
624,689.6013361681524
625,689.5807502518718
626,689.5621270660721
627,689.5454927366377
628,689.5308646576566
629,689.5182513501218
630,689.5076523806335
631,689.4990583420173
632,689.4924508977148
633,689.4878028917178
634,689.4850785254482
635,689.4842336020038
636,689.4852158365587
637,689.4879652298947
638,689.4924145005837
639,689.4984895704407
640,689.5061100974854
641,689.5151900507124
642,689.5256383212164
643,689.5373593642323
644,689.5502538663109
645,689.5642194315317
646,689.5791512807303
647,689.594942957945
648,689.6114870380035
649,689.6286758281941
650,689.6464020559362
651,689.6645595341993
652,689.6830437974357
653,689.7017527024595
654,689.7205869902094
655,689.7394508052788
656,689.7582521706164
657,689.7769034151877
658,689.7953215528415
659,689.8134286112299
660,689.83115191024
661,689.8484242898151
662,689.865184287232
663,689.8813762640107
664,689.8969504829058
665,689.9118631360811
666,689.9260763264274
667,689.9395580046378
668,689.9522818649721
669,689.9642272028793
670,689.9753787380615
671,689.9857264071717
672,689.9952651309892
673,690.0039945612351
674,690.0119188118382
675,690.0190461784715
676,690.0253888489237
677,690.0309626058
678,690.0357865225842
679,690.0398826545049
680,690.0432757266692
681,690.0459928227407
682,690.048063077361
683,690.0495173746847
684,690.050388054623
685,690.0507086282486
686,690.0505135041271
687,690.0498377275834
688,690.0487167347642
689,690.0471861229277
690,690.0452814378358
691,690.0430379786067
692,690.0404906201104
693,690.0376736532318
694,690.034620643921
695,690.0313643122498
696,690.0279364320976
697,690.024367750714
698,690.0206879259096
699,690.0169254776682
700,690.0131077507828
701,690.0092608855977
702,690.005409794818
703,690.0015781451687
704,689.9977883430731
705,689.9940615234758
706,689.9904175408374
707,689.9868749613585
708,689.9834510554589
709,689.980161789378
710,689.9770218147652
711,689.974044455517
712,689.9712416917545
713,689.9686241414647
714,689.9662010407867
715,689.9639802240603
716,689.9619681046006
717,689.9601696568972
718,689.9585884006834
719,689.9572263870582
720,689.9560841866028
721,689.9551608794142
722,689.9544540471938
723,689.9539597678231
724,689.9536726130497
725,689.9535856500889
726,689.9536904483656
727,689.953977093263
728,689.9544342090927
729,689.9550489930825
730,689.9558072612443
731,689.9566935061172
732,689.9576909658127
733,689.9587817032955
734,689.9599466942651
735,689.961165921536
736,689.9624184737014
737,689.9636826462065
738,689.9649360435856
739,689.9661556823075
740,689.967318094239
741,689.9683994310451
742,689.9693755697594
743,689.9702222192349
744,689.9709150265446
745,689.9714296820009
746,689.9717420213505
747,689.9718281237388
748,689.971664404123
749,689.9712276989897
750,689.9704953444946
751,689.9694452463988
752,689.968055941239
753,689.9663066479678
754,689.9641773090347
755,689.9616486199187
756,689.9587020467345
757,689.9553198326827
758,689.9514849955659
759,689.9471813199646
760,689.9423933485381
761,689.9371063769572
762,689.9313064562805
763,689.9249804056489
764,689.9181158373349
765,689.9107011954077
766,689.9027258084172
767,689.8941799556005
768,689.885054945432
769,689.875343205176
770,689.8650383803903
771,689.8541354435762
772,689.8426308108309
773,689.8305224644778
774,689.8178100788876
775,689.804495146596
776,689.7905811022958
777,689.7760734429602
778,689.7609798429775
779,689.7453102635994
780,689.7290770560567
781,689.7122950574228
782,689.6949816779189
783,689.6771569779843
784,689.6588437330062
785,689.6400674829504
786,689.6208565634748
787,689.6012421150639
788,689.5812580677245
789,689.5609411004855
790,689.5403305764552
791,689.5194684549147
792,689.4983991818993
793,689.4771695604459
794,689.4558286015616
795,689.4344273571172
796,689.4130187361461
797,689.3916573064248
798,689.3703990837234
799,689.3493013115996
800,689.3284222347854
801,689.3078208689577
802,689.287556768959
803,689.2676897964491
804,689.2482798868258
805,689.229386814591
806,689.2110699564205
807,689.1933880517335
808,689.1763989609404
809,689.160159421512
810,689.1447248017466
811,689.1301488519106
812,689.1164834523601
813,689.103778358413
814,689.0920809423702
815,689.0814359345007
816,689.0718851669384
817,689.0634673265913
818,689.0562177244236
819,689.0501680884933
820,689.0453463873189
821,689.0417766889967
822,689.0394790601564
823,689.0384695072934
824,689.038759961284
825,689.0403583041475
826,689.043268435592
827,689.0474903757511
828,689.0530203999158
829,689.0598512009842
830,689.0679720755662
831,689.0773691298856
832,689.0880255017055
833,689.0999215945981
834,689.1130353210228
835,689.1273423506684
836,689.1428163601723
837,689.1594292798043
838,689.177151532389
839,689.1959522599343
840,689.2157995340198
841,689.2366605466973
842,689.2585017793783
843,689.2812891480032
844,689.3049881236321
845,689.329563828179
846,689.354981105341
847,689.3812045672829
848,689.4081986185952
849,689.4359274602089
850,689.4643550768114
851,689.4934452116269
852,689.5231613322862
853,689.553466591261
854,689.5843237842014
855,689.6156953094369
856,689.6475431316469
857,689.6798287522222
858,689.7125131882016
859,689.7455569610265
860,689.7789200957051
861,689.8125621301674
862,689.8464421335618
863,689.8805187312729
864,689.9147501339999
865,689.9490941684038
866,689.9835083072281
867,690.0179496971649
868,690.0523751832864
869,690.0867413298149
870,690.1210044380963
871,690.1551205634087
872,690.1890455325744
873,690.2227349643738
874,690.2561442945404
875,690.2892288066715
876,690.3219436698544
877,690.354243983303
878,690.3860848279136
879,690.4174213244424
880,690.4482086980136
881,690.4784023488112
882,690.5079579290575
883,690.5368314265944
884,690.564979255391
885,690.592358353002
886,690.6189262845581
887,690.6446413524903
888,690.6694627110037
889,690.69335048438
890,690.7162658884139
891,690.7381713543427
892,690.7590306542334
893,690.7788090260916
894,690.7974732965245
895,690.8149919989961
896,690.8313354863172
897,690.8464760364972
898,690.8603879514338
899,690.8730476484541
900,690.8844337455737
901,690.894527142231
902,690.9033110976943
903,690.9107713090107
904,690.9168959893293
905,690.9216759461111
906,690.9251046575342
907,690.9271783443894
908,690.9278960339911
909,690.9272596124707
910,690.925273862505
911,690.9219464846626
912,690.9172881014574
913,690.9113122436789
914,690.9040353188693
915,690.8954765621406
916,690.8856579698053
917,690.8746042164404
918,690.8623425560805
