frame_number,force
0,688.3519290186251
1,688.3897751927975
2,688.427501675918
3,688.4649897806006
4,688.5021228120146
5,688.5387870283045
6,688.5748725603753
7,688.6102742804252
8,688.6448926098933
9,688.678634258893
10,688.7114128909456
11,688.7431497086844
12,688.7737739577284
13,688.8032233470097
14,688.8314443846904
15,688.8583926295465
16,688.8840328583524
17,688.9083391504457
18,688.9312948915574
19,688.9528927001637
20,688.9731342807567
21,688.9920302091076
22,689.0095996546814
23,689.0258700451311
24,689.0408766776187
25,689.0546622817951
26,689.067276539641
27,689.0787755678473
28,689.0892213686467
29,689.0986812548936
30,689.1072272548639
31,689.1149355017692
32,689.1218856123247
33,689.1281600582215
34,689.1338435343996
35,689.1390223284518
36,689.143783695807
37,689.1482152454057
38,689.1524043405124
39,689.1564375190933
40,689.160399937826
41,689.1643748434605
42,689.1684430751568
43,689.1726826014894
44,689.1771680957236
45,689.1819705525785
46,689.1871569491775
47,689.1927899524168
48,689.1989276744445
49,689.2056234771898
50,689.2129258262264
51,689.2208781941113
52,689.2295190135468
53,689.2388816806571
54,689.2489946079045
55,689.2598813247816
56,689.2715606228157
57,689.2840467401112
58,689.2973495799303
59,689.3114749575333
60,689.3264248692616
61,689.3421977774484
62,689.3587889043825
63,689.3761905286129
64,689.3943922774633
65,689.4133814103022
66,689.4331430874054
67,689.4536606193024
68,689.4749156919818
69,689.4968885645467
70,689.519558237418
71,689.5429025904112
72,689.5668984908923
73,689.5915218729978
74,689.6167477896901
75,689.6425504401918
76,689.6689031761532
77,689.6957784907079
78,689.7231479951364
79,689.750982388029
80,689.7792514216234
81,689.8079238694448
82,689.8369674985464
83,689.8663490488372
84,689.8960342215574
85,689.9259876789065
86,689.9561730567805
87,689.9865529922386
88,690.0170891668406
89,690.0477423666998
90,690.078472559932
91,690.1092389917183
92,690.1400002962471
93,690.1707146239058
94,690.2013397818687
95,690.231833386654
96,690.2621530278178
97,690.2922564423509
98,690.3221016993475
99,690.3516473940365
100,690.3808528495389
101,690.4096783241218
102,690.4380852214281
103,690.4660363010473
104,690.4934958866427
105,690.5204300686097
106,690.5468068982266
107,690.5725965707602
108,690.5977715958837
109,690.6223069545
110,690.6461802413143
111,690.6693717923863
112,690.6918647967252
113,690.7136453909561
114,690.734702736204
115,690.7550290765372
116,690.774619778464
117,690.7934733509649
118,690.8115914454221
119,690.8289788347735
120,690.8456433713835
121,690.8615959233679
122,690.8768502893201
123,690.8914230915753
124,690.9053336482068
125,690.9186038237206
126,690.931257858048
127,690.9433221733482
128,690.9548251585667
129,690.9657969325357
130,690.976269087294
131,690.986274413865
132,690.9958466127972
133,691.0050199915917
134,691.0138291510681
135,691.0223086628392
136,691.0304927403203
137,691.0384149061672
138,691.0461076597192
139,691.053602148628
140,691.0609278491569
141,691.0681122596794
142,691.0751806118404
143,691.082155603673
144,691.0890571587246
145,691.0959022149367
146,691.1027045464904
147,691.1094746209363
148,691.1162194928174
149,691.1229427341257
150,691.129644401666
151,691.1363210416172
152,691.1429657317848
153,691.149568161888
154,691.1561147517301
155,691.1625888064424
156,691.168970707216
157,691.17523813501
158,691.1813663237888
159,691.1873283391515
160,691.1930953778447
161,691.1986370835359
162,691.2039218743848
163,691.208917278421
164,691.213590273242
165,691.2179076266332
166,691.2218362342235
167,691.2253434494788
168,691.2283974006702
169,691.2309672892666
170,691.2330236645188
171,691.2345386694973
172,691.2354862543433
173,691.2358423531653
174,691.2355850221218
175,691.2346945377212
176,691.2331534558449
177,691.2309466330397
178,691.2280612121609
179,691.224486574615
180,691.2202142613808
181,691.21523786486
182,691.209552893721
183,691.2031566133172
184,691.1960478647197
185,691.1882268657927
186,691.1796949982152
187,691.1704545850313
188,691.1605086639747
189,691.1498607621853
190,691.13851467787
191,691.1264742739838
192,691.1137432881465
193,691.1003251619156
194,691.0862228916623
195,691.0714389032256
196,691.0559749532817
197,691.0398320611605
198,691.0230104749012
199,691.0055096745746
200,690.9873284148135
201,690.9684648074041
202,690.9489164438864
203,690.928680557659
204,690.9077542250028
205,690.8861346041094
206,690.8638192100121
207,690.8408062214744
208,690.8170948141992
209,690.7926855138011
210,690.7675805618964
211,690.7417842891631
212,690.7153034901163
213,690.6881477954277
214,690.6603300385078
215,690.6318666133925
216,690.6027778206455
217,690.573088197187
218,690.5428268249311
219,690.5120276121728
220,690.4807295410583
221,690.4489768744833
222,690.4168193164656
223,690.3843121212366
224,690.3515161475113
225,690.3184978553444
226,690.2853292437603
227,690.2520877282379
228,690.2188559581825
229,690.1857215757391
230,690.1527769186695
231,690.1201186713953
232,690.0878474693964
233,690.0560674627898
234,690.024885845099
235,689.9944123528844
236,689.9647587409594
237,689.9360382365547
238,689.9083649745222
239,689.8818534150129
240,689.8566177452396
241,689.8327712677831
242,689.810425779021
243,689.789690942188
244,689.7706736598999
245,689.7534774505773
246,689.7382018323193
247,689.7249417168081
248,689.7137868151075
249,689.7048210568759
250,689.6981220244401
251,689.6937604031921
252,689.6917994499091
253,689.6922944810857
254,689.6952923843874
255,689.7008311577997
256,689.70893948254
257,689.7196363367324
258,689.7329306568224
259,689.748821052826
260,689.767295582204
261,689.7883315857662
262,689.8118955876567
263,689.8379432603211
264,689.8664194546009
265,689.8972582949438
266,689.9303833399523
267,689.9657078087228
268,690.0031348731756
269,690.0425580156384
270,690.0838614494885
271,690.1269205992901
272,690.1716026361146
273,690.2177670636618
274,690.2652663512021
275,690.3139466100866
276,690.3636483113654
277,690.414207042449
278,690.4654543004611
279,690.5172183190724
280,690.5693249244069
281,690.6215984141227
282,690.6738624520275
283,690.7259409689253
284,690.7776590593058
285,690.8288438633733
286,690.8793254245822
287,690.9289375137387
288,690.9775184115432
289,691.0249116423721
290,691.0709666533252
291,691.115539433969
292,691.1584930735553
293,691.1996982536599
294,691.239033674982
295,691.2763864173436
296,691.3116522320373
297,691.3447357661029
298,691.3755507191432
299,691.4040199345701
300,691.4300754280176
301,691.4536583558008
302,691.4747189260664
303,691.4932162552419
304,691.5091181728603
305,691.5224009789782
306,691.5330491599955
307,691.5410550699451
308,691.5464185844852
309,691.549146734034
310,691.5492533216672
311,691.5467585312931
312,691.5416885320953
313,691.5340750856201
314,691.5239551617017
315,691.5113705685915
316,691.4963676013824
317,691.4789967114311
318,691.4593121983697
319,691.4373719257414
320,691.4132370610748
321,691.3869718408012
322,691.3586433596006
323,691.3283213828648
324,691.2960781803805
325,691.2619883790871
326,691.2261288326046
327,691.1885785049963
328,691.1494183660026
329,691.1087312948088
330,691.0666019892653
331,691.0231168774236
332,690.9783640285053
333,690.9324330608868
334,690.8854150447694
335,690.8374023965893
336,690.7884887612521
337,690.7387688776552
338,690.6883384229786
339,690.6372938317805
340,690.5857320868482
341,690.5337504799837
342,690.4814463423957
343,690.4289167459712
344,690.3762581782349
345,690.3235661951576
346,690.2709350569716
347,690.2184573525413
348,690.1662236174875
349,690.1143219505195
350,690.0628376317817
351,690.0118527467338
352,689.961445819148
353,689.911691457125
354,689.8626600164522
355,689.8144172859568
356,689.7670241996459
357,689.7205365802434
358,689.67500491796
359,689.6304741870016
360,689.5869837009458
361,689.5445670071952
362,689.5032518201722
363,689.4630599922332
364,689.4240075202663
365,689.3861045849819
366,689.3493556195007
367,689.3137594041015
368,689.2793091847414
369,689.245992813951
370,689.2137929137259
371,689.1826870607842
372,689.1526479947386
373,689.1236438491404
374,689.0956384043234
375,689.0685913602084
376,689.0424586272767
377,689.0171926345846
378,688.9927426543554
379,688.9690551429076
380,688.9460740975072
381,688.9237414284419
382,688.901997345488
383,688.8807807581479
384,688.8600296894804
385,688.8396817036604
386,688.8196743471083
387,688.7999456020096
388,688.7804343497103
389,688.761080840303
390,688.741827163957
391,688.722617719158
392,688.7033996730154
393,688.6841234091842
394,688.6647429596088
395,688.6452164168707
396,688.6255063240349
397,688.605580038551
398,688.5854100663526
399,688.5649743622197
400,688.5442565927517
401,688.5232463586555
402,688.5019393733191
403,688.4803375948894
404,688.4584493094773
405,688.4362891636135
406,688.413878144465
407,688.3912435066308
408,688.3684186448073
409,688.3454429124142
410,688.3223613873585
411,688.299224587235
412,688.2760881370863
413,688.2530123932236
414,688.2300620267498
415,688.2073055706878
416,688.1848149352431
417,688.1626648966396
418,688.1409325657988
419,688.1196968435337
420,688.099037868804
421,688.0790364661757
422,688.0597735983758
423,688.0413298299533
424,688.0237848083444
425,688.0072167686051
426,687.9917020674039
427,687.9773147506406
428,687.9641261576144
429,687.952204563471
430,687.941614860957
431,687.9324182823176
432,687.9246721622624
433,687.9184297429639
434,687.9137400217675
435,687.9106476416091
436,687.90919282328
437,687.9094113378501
438,687.9113345168139
439,687.9149892967954
440,687.9203982949638
441,687.9275799109125
442,687.9365484508285
443,687.9473142701333
444,687.9598839308892
445,687.9742603699525
446,687.990443073625
447,688.0084282549142
448,688.0282090303257
449,688.0497755937896
450,688.0731153857098
451,688.0982132556097
452,688.1250516176519
453,688.1536105991487
454,688.1838681826921
455,688.2158003426678
456,688.2493811767858
457,688.2845830329233
458,688.3213766310877
459,688.3597311798676
460,688.3996144864664
461,688.4409930593097
462,688.4838322021322
463,688.5280960981593
464,688.5737478823354
465,688.6207496987217
466,688.6690627396041
467,688.718647262832
468,688.7694625845359
469,688.8214670456474
470,688.8746179523791
471,688.9288714926442
472,688.9841826319619
473,689.0405049935077
474,689.0977907276153
475,689.1559903764014
476,689.2150527395097
477,689.274924747239
478,689.3355513473373
479,689.3968754113404
480,689.4588376654721
481,689.5213766497644
482,689.5844287072529
483,689.6479280033129
484,689.7118065740734
485,689.7759944026118
486,689.8404195219586
487,689.9050081444117
488,689.9696848170937
489,690.0343726039558
490,690.0989932944049
491,690.1634676383622
492,690.2277156069571
493,690.29165667739
494,690.3552101398552
495,690.4182954236738
496,690.4808324389066
497,690.5427419288177
498,690.6039458279403
499,690.6643676201995
500,690.7239326913798
501,690.7825686700522
502,690.8402057510962
503,690.8967769964364
504,690.9522186085043
505,691.0064701728597
506,691.0594748670514
507,691.1111796330928
508,691.1615353111192
509,691.2104967322246
510,691.2580227693456
511,691.3040763462676
512,691.3486244060774
513,691.3916378416676
514,691.4330913923019
515,691.4729635117482
516,691.5112362146339
517,691.5478949080953
518,691.5829282155569
519,691.6163277989483
520,691.6480881849759
521,691.6782066000818
522,691.7066828175333
523,691.7335190190191
524,691.7587196721519
525,691.7822914240301
526,691.8042430096289
527,691.8245851729677
528,691.8433305990868
529,691.8604938554063
530,691.8760913413781
531,691.8901412452615
532,691.9026635064844
533,691.9136797816201
534,691.9232134115646
535,691.9312893870499
536,691.9379343093119
537,691.9431763428295
538,691.9470451575794
539,691.9495718588342
540,691.9507889027965
541,691.950729996273
542,691.949429978492
543,691.9469246834815
544,691.9432507823282
545,691.93844560585
546,691.9325469492087
547,691.9255928604221
548,691.9176214146954
549,691.9086704764
550,691.8987774507297
551,691.8879790275196
552,691.8763109201442
553,691.8638076027479
554,691.8505020495005
555,691.8364254802046
556,691.8216071170791
557,691.8060739574767
558,691.7898505667536
559,691.7729588949137
560,691.7554181202566
561,691.7372445229661
562,691.7184513912824
563,691.6990489626617
564,691.6790444022142
565,691.658441820628
566,691.6372423334722
567,691.6154441630232
568,691.5930427825072
569,691.570031101092
570,691.5463996865038
571,691.5221370211282
572,691.4972297870208
573,691.4716631753898
574,691.4454212168064
575,691.4184871294559
576,691.3908436837725
577,691.362473582437
578,691.3333598547174
579,691.3034862634019
580,691.2728377213884
581,691.2414007139599
582,691.2091637224369
583,691.1761176451924
584,691.1422562122947
585,691.1075763898061
586,691.0720787691854
587,691.0357679368439
588,690.9986528190382
589,690.9607469977419
590,690.9220689935408
591,690.882642511802
592,690.8424966485279
593,690.80166605261
594,690.7601910416695
595,690.7181176692764
596,690.6754977420371
597,690.6323887856905
598,690.5888539597797
599,690.5449619206292
600,690.5007866325161
601,690.4564071273702
602,690.4119072140577
603,690.367375138932
604,690.3229031996428
605,690.2785873143034
606,690.2345265483214
607,690.1908226016476
608,690.1475792597611
609,690.1049018121464
610,690.0628964421653
611,690.0216695922041
612,689.9813273081721
613,689.9419745679816
614,689.9037145994265
615,689.866648193679
616,689.830873021368
617,689.7964829588817
618,689.763567433002
619,689.7322107920212
620,689.7024917109351
621,689.6744826371352
622,689.6482492813695
623,689.6238501569422
624,689.6013361686637
625,689.5807502524498
626,689.5621270667159
627,689.5454927373457
628,689.5308646584267
629,689.5182513509516
630,689.5076523815203
631,689.4990583429578
632,689.4924508987056
633,689.4878028927557
634,689.4850785265306
635,689.4842336031282
636,689.485215837723
637,689.4879652310967
638,689.4924145018217
639,689.4984895717131
640,689.5061100987901
641,689.5151900520472
642,689.5256383225787
643,689.5373593656192
644,689.550253867719
645,689.5642194329575
646,689.5791512821698
647,689.5949429593934
648,689.6114870394549
649,689.6286758296419
650,689.6464020573728
651,689.664559535617
652,689.6830437988267
653,689.7017527038159
654,689.7205869915239
655,689.739450806544
656,689.7582521718251
657,689.7769034163327
658,689.7953215539162
659,689.8134286122284
660,689.8311519111576
661,689.8484242906476
662,689.8651842879765
663,689.8813762646652
664,689.8969504834691
665,689.9118631365533
666,689.9260763268092
667,689.9395580049309
668,689.9522818651787
669,689.9642272030029
670,689.9753787381065
671,689.9857264071435
672,689.9952651308942
673,690.0039945610804
674,690.0119188116319
675,690.0190461782219
676,690.0253888486391
677,690.030962605489
678,690.0357865222558
679,690.0398826541675
680,690.0432757263305
681,690.0459928224074
682,690.0480630770387
683,690.049517374378
684,690.0503880543354
685,690.0507086279827
686,690.0505135038853
687,690.0498377273683
688,690.0487167345788
689,690.047186122775
690,690.0452814377192
691,690.0430379785296
692,690.0404906200763
693,690.0376736532443
694,690.0346206439839
695,690.0313643123671
696,690.0279364322738
697,690.0243677509536
698,690.0206879262175
699,690.0169254780499
700,690.0131077512435
701,690.0092608861426
702,690.0054097954513
703,690.0015781458936
704,689.9977883438918
705,689.9940615243892
706,689.9904175418452
707,689.9868749624594
708,689.9834510566507
709,689.9801617906572
710,689.9770218161273
711,689.9740444569566
712,689.9712416932657
713,689.968624143041
714,689.9662010424202
715,689.9639802257416
716,689.9619681063191
717,689.9601696586412
718,689.9585884024409
719,689.9572263888165
720,689.9560841883489
721,689.955160881135
722,689.9544540488768
723,689.9539597694559
724,689.9536726146213
725,689.9535856515896
726,689.953690449787
727,689.9539770945986
728,689.9544342103377
729,689.9550489942338
730,689.9558072623007
731,689.956693507079
732,689.9576909666813
733,689.9587817040734
734,689.9599466949559
735,689.9611659221436
736,689.96241847423
737,689.9636826466606
738,689.9649360439693
739,689.9661556826248
740,689.9673180944935
741,689.9683994312401
742,689.9693755698979
743,689.9702222193196
744,689.9709150265777
745,689.971429681984
746,689.9717420212846
747,689.971828123625
748,689.9716644039615
749,689.9712276987804
750,689.9704953442368
751,689.9694452460918
752,689.9680559408819
753,689.9663066475596
754,689.9641773085739
755,689.9616486194038
756,689.9587020461634
757,689.955319832053
758,689.9514849948755
759,689.9471813192117
760,689.9423933477217
761,689.9371063760764
762,689.9313064553344
763,689.9249804046372
764,689.918115836258
765,689.910701194267
766,689.9027258072149
767,689.8941799543396
768,689.8850549441165
769,689.875343203811
770,689.8650383789819
771,689.8541354421316
772,689.842630809358
773,689.830522462985
774,689.8178100773839
775,689.8044951450904
776,689.7905811007971
777,689.7760734414765
778,689.7609798415164
779,689.7453102621683
780,689.7290770546626
781,689.7122950560725
782,689.6949816766189
783,689.6771569767403
784,689.6588437318233
785,689.6400674818327
786,689.6208565624257
787,689.6012421140862
788,689.5812580668206
789,689.5609410996572
790,689.5403305757039
791,689.5194684542414
792,689.4983991813045
793,689.4771695599296
794,689.4558286011242
795,689.4344273567596
796,689.4130187358697
797,689.3916573062313
798,689.3703990836142
799,689.349301311576
800,689.3284222348489
801,689.3078208691088
802,689.2875567691975
803,689.2676897967742
804,689.2482798872367
805,689.2293868150867
806,689.2110699570007
807,689.1933880523977
808,689.1763989616888
809,689.160159422345
810,689.1447248026651
811,689.1301488529155
812,689.1164834534524
813,689.1037783595938
814,689.0920809436401
815,689.0814359358596
816,689.071885168385
817,689.0634673281231
818,689.0562177260364
819,689.0501680901818
820,689.0453463890775
821,689.0417766908189
822,689.0394790620346
823,689.0384695092191
824,689.0387599632477
825,689.040358306139
826,689.0432684376002
827,689.0474903777646
828,689.053020401923
829,689.0598512029738
830,689.067972077527
831,689.0773691318066
832,689.0880255035765
833,689.0999215964094
834,689.113035322765
835,689.1273423523321
836,689.1428163617488
837,689.159429281285
838,689.1771515337658
839,689.1959522611999
840,689.2157995351675
841,689.2366605477217
842,689.258501780275
843,689.2812891487689
844,689.304988124265
845,689.3295638286783
846,689.3549811057067
847,689.3812045675152
848,689.4081986186948
849,689.4359274601766
850,689.4643550766477
851,689.4934452113321
852,689.5231613318607
853,689.5534665907052
854,689.5843237835159
855,689.6156953086225
856,689.647543130705
857,689.6798287511541
858,689.7125131870085
859,689.7455569597096
860,689.7789200942649
861,689.812562128604
862,689.846442131875
863,689.8805187294629
864,689.9147501320671
865,689.9490941663491
866,689.9835083050531
867,690.0179496948713
868,690.0523751808765
869,690.0867413272915
870,690.1210044354623
871,690.1551205606671
872,690.1890455297284
873,690.2227349614271
874,690.2561442914966
875,690.2892288035343
876,690.3219436666269
877,690.3542439799884
878,690.3860848245158
879,690.4174213209664
880,690.4482086944648
881,690.4784023451961
882,690.5079579253824
883,690.5368314228658
884,690.5649792516164
885,690.5923583491897
886,690.6189262807168
887,690.6446413486289
888,690.6694627071313
889,690.6933504805062
890,690.7162658845482
891,690.7381713504944
892,690.7590306504118
893,690.7788090223058
894,690.7974732927836
895,690.8149919953088
896,690.8313354826919
897,690.8464760329418
898,690.8603879479564
899,690.8730476450621
900,690.8844337422748
901,690.8945271390329
902,690.9033110946048
903,690.9107713060382
904,690.9168959864832
905,690.9216759434006
906,690.9251046549684
907,690.9271783419772
908,690.9278960317408
909,690.92725961039
910,690.9252738606007
911,690.9219464829408
912,690.9172880999238
913,690.9113122423383
914,690.9040353177259
915,690.8954765611971
916,690.8856579690633
917,690.8746042159006
