frame_number,force
0,618.2882100002145
1,618.2913308683343
2,618.293914962435
3,618.2954384299992
4,618.2954037398389
5,618.2933537595889
6,618.2888862805751
7,618.2816683226775
8,618.2714492261665
9,618.2580714392955
10,618.2414780973468
11,618.2217168810027
12,618.1989400510042
13,618.1734008107991
14,618.1454462136544
15,618.1155068180636
16,618.0840833463252
17,618.051730755244
18,618.0190403203756
19,617.9866204856437
20,617.9550773021253
21,617.9249952824227
22,617.8969194612985
23,617.8713394030752
24,617.8486758206298
25,617.829270334633
26,617.8133787027658
27,617.8011676209422
28,617.792714946551
29,617.7880129017576
30,617.7869735357265
31,617.7894355722514
32,617.7951718090105
33,617.8038964264758
34,617.8152718063072
35,617.8289146747003
36,617.8444015847798
37,617.8612739731936
38,617.8790432233039
39,617.8971962215303
40,617.9152017600903
41,617.9325179147397
42,617.9486003487787
43,617.962911421259
44,617.9749299649536
45,617.9841616051308
46,617.9901495389669
47,617.9924857945614
48,617.9908230431499
49,617.9848869356293
50,617.9744886519106
51,617.9595369536942
52,617.940048648324
53,617.9161561827676
54,617.888111225969
55,617.8562835381022
56,617.8211550026302
57,617.7833092414032
58,617.7434176337429
59,617.7022227557011
60,617.6605202510366
61,617.619140024227
62,617.5789274973163
63,617.5407255251747
64,617.5053574143296
65,617.4736113520667
66,617.4462264262909
67,617.4238802674156
68,617.4071781692833
69,617.3966434170397
70,617.3927085338373
71,617.3957072581445
72,617.405867219575
73,617.4233033993511
74,617.4480124859044
75,617.4798682158126
76,617.5186178389481
77,617.5638800287785
78,617.615144813847
79,617.6717762795785
80,617.7330187521029
81,617.7980069262246
82,617.8657800428958
83,617.9352998678296
84,618.0054719292491
85,618.0751692666882
86,618.1432578433346
87,618.2086227566753
88,618.2701943751946
89,618.326973499924
90,618.3780546444835
91,618.4226465996454
92,618.4600896154693
93,618.4898687946664
94,618.5116235941266
95,618.5251535572302
96,618.5304204760827
97,618.5275471826154
98,618.5168131977161
99,618.4986475276986
100,618.4736189162606
101,618.4424238029425
102,618.405872129348
103,618.3648710324038
104,618.3204064429541
105,618.2735227068888
106,618.225300541962
107,618.1768338619895
108,618.1292061453847
109,618.0834670518739
110,618.0406099457883
111,618.0015509222625
112,617.967109855976
113,617.9379939145591
114,617.91478394916
115,617.8979241932167
116,617.8877157024367
117,617.8843138949136
118,617.8877303783986
119,617.8978389867015
120,617.914385625319
121,617.9370012362524
122,617.9652170407394
123,617.9984812242928
124,618.0361762887918
125,618.0776363250534
126,618.122163492601
127,618.1690431127379
128,618.2175569982797
129,618.2669949012338
130,618.3166641979291
131,618.3658981094483
132,618.4140628242585
133,618.4605638016304
134,618.5048513276387
135,618.5464252178425
136,618.5848385404535
137,618.619700363561
138,618.6506777124397
139,618.6774970658281
140,618.699945746037
141,618.7178734079781
142,618.7311935407785
143,618.7398846161727
144,618.7439904056555
145,618.7436190708448
146,618.7389408239264
147,618.7301841587212
148,618.7176308047535
149,618.701609629996
150,618.6824897232312
151,618.6606728663245
152,618.6365856024776
153,618.6106711324989
154,618.5833813156
155,618.555169084915
156,618.5264815758884
157,618.4977542040856
158,618.4694058425175
159,618.4418351427424
160,618.4154179155119
161,618.3905053586514
162,618.3674228152321
163,618.3464686753222
164,618.3279130321727
165,618.3119958026851
166,618.2989242135023
167,618.2888697904644
168,618.281965195918
169,618.2783013621836
170,618.2779253695893
171,618.2808394677276
172,618.2870015327019
173,618.2963270357878
174,618.3086923050827
175,618.323938643333
176,618.341876856446
177,618.3622919316313
178,618.3849478180916
179,618.409592339586
180,618.4359621807586
181,618.4637877507519
182,618.4927976583714
183,618.5227225506997
184,618.5532981061971
185,618.5842669786884
186,618.6153794675107
187,618.6463926943934
188,618.677068159469
189,618.7071677730745
190,618.7364488216901
191,618.7646587353576
192,618.7915307940315
193,618.8167818788227
194,618.8401130315503
195,618.8612130756361
196,618.8797650583558
197,618.8954549201598
198,618.9079816163704
199,618.9170678958477
200,618.9224710375504
201,618.9239929947848
202,618.9214895405867
203,618.9148781185066
204,618.9041441733996
205,618.8893457627021
206,618.8706162368804
207,618.8481647595748
208,618.8222744515577
209,618.7932980048895
210,618.7616507288162
211,618.7278011579556
212,618.6922595579383
213,618.6555648630854
214,618.6182707175593
215,618.5809313068286
216,618.5440875504563
217,618.508254056612
218,618.4739071267913
219,618.441474092086
220,618.4113242961997
221,618.3837620310225
222,618.3590216750358
223,618.3372652128552
224,618.3185821889392
225,618.3029919171989
226,618.2904474889723
227,618.2808409520753
228,618.2740090766532
229,618.2697393221515
230,618.2677758214041
231,618.2678253102381
232,618.269562989068
233,618.2726383787475
234,618.276681317376
235,618.281308265986
236,618.2861290345143
237,618.2907539792893
238,618.2948017096855
239,618.2979073240247
240,618.2997310951887
241,618.2999673324758
242,618.298352916554
243,618.2946748314241
244,618.2887759850775
245,618.2805587624965
246,618.2699860785507
247,618.257080097365
248,618.2419190934356
249,618.2246330301126
250,618.205398332701
251,618.1844321322866
252,618.1619860720887
253,618.1383396844094
254,618.113793351059
255,618.0886608858815
256,618.0632618081642
257,618.0379134575793
258,618.0129232566348
259,617.988581584501
260,617.9651557741677
261,617.9428856408017
262,617.9219807364678
263,617.9026192682162
264,617.8849483712894
265,617.869085260778
266,617.8551187540124
267,617.8431107809807
268,617.8330977118032
269,617.825091495447
270,617.8190806372703
271,617.8150309903575
272,617.8128863121542
273,617.81256858214
274,617.8139781169228
275,617.8169935047022
276,617.8214713723797
277,617.8272460858554
278,617.8341296500057
279,617.8419121974674
280,617.8503634499907
281,617.8592354446373
282,617.8682667319958
283,617.8771881973419
284,617.8857305717078
285,617.8936335380195
286,617.9006561145945
287,617.9065877884914
288,617.9112597587764
289,617.9145556612228
290,617.9164212135671
291,617.9168722640339
292,617.9160007637325
293,617.9139782740706
294,617.9110567212425
295,617.9075661352097
296,617.9039091063919
297,617.9005518079249
298,617.898011723435
299,617.8968425909741
300,617.8976173568557
301,617.900910006167
302,617.9072769921024
303,617.917238743839
304,617.9312615803834
305,617.9497404241519
306,617.9729829371123
307,618.001195895072
308,618.0344746324547
309,618.0727962389049
310,618.1160169117555
311,618.1638734811224
312,618.2159887037196
313,618.2718796136206
314,618.3309681212867
315,618.3925931515507
316,618.4560238196407
317,618.5204733623501
318,618.5851136970825
319,618.6490905559907
320,618.7115391719235
321,618.7716005144723
322,618.8284380681024
323,618.8812550754296
324,618.9293120638589
325,618.9719443775876
326,619.0085793269933
327,619.0387524008926
328,619.0621217982193
329,619.0784804072548
330,619.0877643352135
331,619.0900571787025
332,619.0855894409904
333,619.074732814713
334,619.0579893742874
335,619.0359760311628
336,619.0094049360018
337,618.9790608437436
338,618.9457766881177
339,618.9104086824026
340,618.8738122078689
341,618.8368196193097
342,618.8002208781315
343,618.7647475963322
344,618.7310607141412
345,618.6997417773985
346,618.6712876559826
347,618.6461084419076
348,618.6245281095943
349,618.6067873544234
350,618.5930479104223
351,618.5833975951776
352,618.5778553514625
353,618.5763756946146
354,618.5788522452273
355,618.5851203516665
356,618.5949590727195
357,618.6080929352064
358,618.6241939028181
359,618.6428839110372
360,618.663738161954
361,618.686289165519
362,618.7100313269943
363,618.7344257965245
364,618.7589053455526
365,618.7828791786102
366,618.8057377780565
367,618.8268580646428
368,618.8456092631154
369,618.86135982264
370,618.873485568622
371,618.881379052707
372,618.8844599346963
373,618.8821862111291
374,618.8740661354158
375,618.8596706710606
376,618.8386462643948
377,618.8107276430987
378,618.775750253821
379,618.7336618225363
380,618.6845323405976
381,618.6285616130025
382,618.5660834653681
383,618.4975658365971
384,618.4236062444409
385,618.3449224499934
386,618.2623385343359
387,618.1767670156112
388,618.0891880321689
389,618.0006268839799
390,617.9121312446699
391,617.824749142813
392,617.7395084847702
393,617.6573985507166
394,617.5793535896953
395,617.5062384210324
396,617.4388358668053
397,617.3778358890962
398,617.3238264091015
399,617.2772858415663
400,617.2385773601064
401,617.2079448831124
402,617.1855107935307
403,617.1712754542588
404,617.1651186088044
405,617.1668027775759
406,617.1759788045349
407,617.1921937370122
408,617.2149011496982
409,617.2434738452489
410,617.2772186764014
411,617.3153931157511
412,617.3572231195332
413,617.4019217514616
414,617.4487079980482
415,617.4968252493761
416,617.5455589634814
417,617.5942530066213
418,617.6423241060638
419,617.68927384533
420,617.734697685029
421,617.7782905600072
422,617.8198486712623
423,617.8592672189367
424,617.896534068095
425,617.9317196554704
426,617.9649637235873
427,617.9964596683416
428,618.0264374553727
429,618.0551462305405
430,618.0828378649253
431,618.1097526252655
432,618.1361078824227
433,618.1620903350323
434,618.1878517872924
435,618.2135081585508
436,618.2391411190847
437,618.2648015905111
438,618.290514383039
439,618.3162834022723
440,618.3420969978956
441,618.3679330786061
442,618.3937636338985
443,618.4195583448658
444,618.4452870432926
445,618.4709209032533
446,618.496432444164
447,618.5217946428077
448,618.5469795890888
449,618.5719571250446
450,618.5966938174209
451,618.6211524879244
452,618.6452923938996
453,618.6690700399072
454,618.6924405381144
455,618.7153594356984
456,618.7377849524564
457,618.7596805595363
458,618.7810177747162
459,618.8017790085788
460,618.8219603071796
461,618.8415738803519
462,618.8606503496815
463,618.879240689056
464,618.8974178491851
465,618.9152780104464
466,618.932941279551
467,618.950551507425
468,618.9682748572678
469,618.9862968185523
470,619.0048175051677
471,619.0240452588907
472,619.0441887947036
473,619.0654483503566
474,619.0880064682202
475,619.1120190800526
476,619.1376075215136
477,619.1648520666653
478,619.1937875450333
479,619.224401464468
480,619.2566347325738
481,619.2903846494589
482,619.3255095161551
483,619.3618340386103
484,619.3991546848432
485,619.4372442814562
486,619.4758554405744
487,619.514722839285
488,619.5535647955172
489,619.5920848350407
490,619.6299739179004
491,619.6669137223364
492,619.7025810322323
493,619.7366530101236
494,619.7688130378847
495,619.7987568385673
496,619.8261986507285
497,619.8508772206067
498,619.8725613245274
499,619.8910545414468
500,619.9061991284005
501,619.917879045455
502,619.9260223060556
503,619.9306028203807
504,619.9316417703749
505,619.9292083940602
506,619.9234199609879
507,619.9144407020812
508,619.9024794470984
509,619.8877857009383
510,619.8706439327182
511,619.8513660317379
512,619.8302821776631
513,619.8077306671838
514,619.7840474180392
515,619.7595558933548
516,619.734558106995
517,619.7093272623703
518,619.6841024733861
519,619.6590858851874
520,619.6344423130603
521,619.6103012644153
522,619.586760963567
523,619.5638938104719
524,619.5417525885367
525,619.5203767050906
526,619.4997978061451
527,619.4800442323686
528,619.4611439486778
529,619.4431257722174
530,619.4260189096894
531,619.409850939796
532,619.3946444409747
533,619.3804125497146
534,619.3671538849479
535,619.3548474160564
536,619.3434478929659
537,619.3328823958013
538,619.3230484557421
539,619.3138140889082
540,619.3050199930082
541,619.2964840850592
542,619.2880084453319
543,619.2793884715749
544,619.2704236368113
545,619.2609288588218
546,619.2507453339317
547,619.2397498146739
548,619.2278616134594
549,619.2150469455123
550,619.2013205006381
551,619.1867443394909
552,619.1714243497581
553,619.1555045817607
554,619.1391598242085
555,619.1225867803197
556,619.1059941883642
557,619.0895922662501
558,619.0735819708801
559,619.0581446766818
560,619.0434329012301
561,619.0295626154018
562,619.0166075002923
563,619.0045952789488
564,618.9935059956167
565,618.9832719253124
566,618.9737787491151
567,618.9648677093854
568,618.9563385837166
569,618.9479534296879
570,618.939441136148
571,618.9305028622562
572,618.9208184571581
573,618.9100539340387
574,618.897869983722
575,618.8839313145509
576,618.8679163472875
577,618.849526603526
578,618.8284950856332
579,618.8045930350779
580,618.7776346265986
581,618.7474794035834
582,618.7140325813596
583,618.6772436604331
584,618.6371039709242
585,618.5936437503658
586,618.5469292012789
587,618.4970597909441
588,618.444165909932
589,618.3884069074512
590,618.3299694501875
591,618.2690660939664
592,618.2059339171064
593,618.1408330303163
594,618.0740447230137
595,618.0058689411042
596,617.9366208003041
597,617.8666259932019
598,617.7962151909217
599,617.7257177448934
600,617.6554551213414
601,617.5857345876202
602,617.5168437040555
603,617.4490461083226
604,617.3825789175016
605,617.3176518713555
606,617.2544481489116
607,617.1931266453507
608,617.133825417588
609,617.076665969611
610,617.0217579992509
611,616.969204163828
612,616.9191044039204
613,616.8715594277659
614,616.8266730676476
615,616.7845533206058
616,616.7453119657379
617,616.7090627396082
618,616.6759181745279
619,616.6459853300078
620,616.619360720047
621,616.5961247521869
622,616.5763359835612
623,616.5600254782651
624,616.5471915097496
625,616.5377948065288
626,616.5317545318693
627,616.528945236683
628,616.5291951001844
629,616.5322858290695
630,616.5379545750098
631,616.5458980931685
632,616.5557790846418
633,616.5672343446304
634,616.5798841357229
635,616.5933421807392
636,616.6072257443708
637,616.6211653607443
638,616.6348138469996
639,616.647854311625
640,616.6600068925261
641,616.6710339680284
642,616.6807436475777
643,616.688991481784
644,616.6956804684155
645,616.7007595188027
646,616.704220582626
647,616.7060946106867
648,616.7064464661066
649,616.7053688057598
650,616.7029749189854
651,616.699390609075
652,616.6947454342748
653,616.6891638598581
654,616.6827569585365
655,616.6756152260193
656,616.6678029935484
657,616.6593549336693
658,616.6502752221159
659,616.6405398821624
660,616.6301025920405
661,616.6189038183879
662,616.6068826899631
663,616.5939906819353
664,616.5802060075343
665,616.5655476156202
666,616.5500878358429
667,616.5339629151018
668,616.5173808264632
669,616.5006257125345
670,616.4840581933179
671,616.468110729195
672,616.4532774953329
673,616.4400987945709
674,616.4291407006567
675,616.4209711770093
676,616.4161342804528
677,616.4151242240399
678,616.4183610401399
679,616.4261693865803
680,616.438761722179
681,616.4562266690452
682,616.4785229274644
683,616.5054787260578
684,616.5367965419596
685,616.5720626544047
686,616.6107609221159
687,616.6522900256278
688,616.6959833727668
689,616.741130925246
690,616.7870022495233
691,616.832870042306
692,616.878033288455
693,616.9218391913992
694,616.9637031166786
695,617.0031259597437
696,617.0397085098123
697,617.0731624861232
698,617.1033179707879
699,617.1301269720853
700,617.1536628731766
701,617.1741156383094
702,617.1917828942674
703,617.2070572986606
704,617.2204108303208
705,617.2323767387954
706,617.2435298973323
707,617.2544662721009
708,617.2657821871198
709,617.2780540384955
710,617.2918190956058
711,617.3075580272173
712,617.3256797845172
713,617.346509399893
714,617.3702790873723
715,617.3971228026738
716,617.4270742241363
717,617.4600680143052
718,617.4959442077037
719,617.534455556938
720,617.5752775683499
721,617.6180207628531
722,617.6622444675112
723,617.7074712589109
724,617.7532011333055
725,617.7989246280437
726,617.8441344054593
727,617.888335100315
728,617.931051437998
729,617.9718347460847
730,618.0102680428208
731,618.0459699512033
732,618.0785978013057
733,618.1078504121575
734,618.1334710741297
735,618.1552510971594
736,618.1730339942519
737,618.1867200742768
738,618.1962710290866
739,618.2017140258096
740,618.2031448147073
741,618.2007294083338
742,618.1947039740134
743,618.1853727030377
744,618.1731035541026
745,618.1583218826917
746,618.1415020344521
747,618.1231569946008
748,618.1038261890736
749,618.0840616121601
750,618.0644126719868
751,618.0454104463412
752,618.0275522625208
753,618.0112875246709
754,617.9970055425334
755,617.9850259020052
756,617.9755917364733
757,617.9688660943731
758,617.9649314399426
759,617.9637921859382
760,617.9653800376199
761,617.969561812671
762,617.9761492967493
763,617.9849106044403
764,617.995582431502
765,618.0078825173988
766,618.0215216290557
767,618.0362144567159
768,618.0516889723707
769,618.067694016325
770,618.0840051201532
771,618.1004287909219
772,618.1168055898383
773,618.1330122834678
774,618.1489631668807
775,618.1646104767232
776,618.1799437338055
777,618.1949878999637
778,618.2098003551389
779,618.2244668216185
780,618.2390964139039
781,618.2538159694012
782,618.2687637903748
783,618.2840829672601
784,618.2999145379906
785,618.3163907982291
786,618.3336290789564
787,618.3517262855243
788,618.3707545047286
789,618.3907580306819
790,618.4117521592282
791,618.4337239935988
792,618.4566353008391
793,618.480427198778
794,618.5050261854248
795,618.5303508295649
796,618.5563183996371
797,618.5828507967897
798,618.6098792715401
799,618.6373474769487
800,618.6652124936071
801,618.6934436433033
802,618.7220191907119
803,618.7509213013427
804,618.7801297740004
805,618.8096151108099
806,618.8393314858671
807,618.8692101141769
808,618.8991533891932
809,618.9290300321803
810,618.9586714819616
811,618.9878698399258
812,619.016377777731
813,619.0439108358997
814,619.0701524638278
815,619.0947619881657
816,619.1173854819576
817,619.1376692740592
818,619.1552756046502
819,619.1698997195066
820,619.1812875390939
821,619.1892529482211
822,619.1936936865815
823,619.1946047506518
824,619.192088189008
825,619.1863582644767
826,619.1777412029917
827,619.1666691373541
828,619.153668340347
829,619.1393423391519
830,619.1243509007467
831,619.1093861116209
832,619.0951468550803
833,619.0823129458779
834,619.0715200299898
835,619.0633361390545
836,619.0582405990674
837,619.0566059170937
838,619.058683300526
839,619.0645924956306
840,619.0743165510376
841,619.0877018779914
842,619.1044636374962
843,619.1241961281479
844,619.1463875730874
845,619.170438549312
846,619.1956832188602
847,619.2214124400424
848,619.2468977717685
849,619.2714154001269
850,619.2942691152623
851,619.3148115958202
852,619.3324633875096
853,619.3467290847943
854,619.3572103503111
855,619.3636155591657
856,619.3657660194204
857,619.36359884319
858,619.3571666091955
859,619.3466339842903
860,619.332271458495
861,619.3144463159294
862,619.2936109759569
863,619.2702889190247
864,619.2450585115699
865,619.2185351270912
866,619.1913520523457
867,619.1641408022292
868,619.1375116208638
869,619.1120350475559
870,619.0882254082475
871,619.0665269546071
872,619.0473031904527
873,619.0308297598968
874,619.0172910850856
875,619.0067806797283
876,618.9993047638426
877,618.9947885461457
878,618.9930843885951
879,618.9939810777048
880,618.9972136013896
881,619.0024730701658
882,619.0094166157596
883,619.0176772347256
884,619.0268736478279
885,619.0366202765908
886,619.0465373439077
887,619.0562609347784
888,619.0654527072305
889,619.0738088636693
890,619.081067954552
891,619.0870170599974
892,619.0914958946188
893,619.0943984515135
894,619.0956719525319
895,619.0953130638812
896,619.0933615431236
897,619.089891712692
898,619.0850023917511
899,619.0788061042315
900,619.0714184598467
901,619.0629485670412
902,619.053491201885
903,619.0431212352082
904,619.0318905199567
905,619.0198271016911
906,619.0069363092239
907,618.9932030836268
908,618.978594866523
909,618.9630645121799
910,618.9465529683807
911,618.9289917707197
912,618.9103055798449
913,618.8904150024035
914,618.8692398219448
915,618.846702622613
916,618.8227326983546
917,618.7972701517368
