frame_number,force
0,584.5041500000277
1,584.607724832931
2,584.70602375444
3,584.7942927940235
4,584.8687212826678
5,584.9267001343081
6,584.9669069718274
7,584.9892436064372
8,584.9946627958424
9,584.9849247044563
10,584.962324914154
11,584.9294261980739
12,584.8888085637135
13,584.8428441100676
14,584.7935134162091
15,584.7422950140275
16,584.6901574563577
17,584.637658237594
18,584.5851207828124
19,584.5328391420646
20,584.481256909824
21,584.4310815982864
22,584.3833247109185
23,584.339287837951
24,584.3005256580248
25,584.2687987834096
26,584.2459979144706
27,584.2340029993159
28,584.2344542801408
29,584.248453187199
30,584.2762583794603
31,584.317065476474
32,584.3689397405097
33,584.4289199951127
34,584.4932614001044
35,584.5577586675442
36,584.6180922726203
37,584.6701599663711
38,584.7103795316966
39,584.7359522742927
40,584.7450506308969
41,584.7368640329922
42,584.7114462865687
43,584.6693702484279
44,584.6112810738822
45,584.5374941654077
46,584.447773185347
47,584.3413505571273
48,584.2171566268653
49,584.0741607497304
50,583.9117294582946
51,583.7299508385798
52,583.5299124555901
53,583.313925808336
54,583.0856711570995
55,582.8502201277691
56,582.6138988176792
57,582.3839747004309
58,582.1681718505673
59,581.9740442928337
60,581.808277417642
61,581.6760291072455
62,581.5804323904284
63,581.5223449788631
64,581.5003657305309
65,581.5110760458916
66,581.5494320279042
67,581.6092379835237
68,581.6836546225923
69,581.7657088773368
70,581.8487695877923
71,581.9269496457373
72,581.9954025417497
73,582.0504950528168
74,582.0898509493336
75,582.1122733555692
76,582.1175662116526
77,582.1062862772301
78,582.079465384086
79,582.0383454868756
80,581.9841626064664
81,581.9180022502758
82,581.8407370846301
83,581.7530537518837
84,581.6555751223684
85,581.5490735805446
86,581.4347419164488
87,581.3144526232245
88,581.1909225583136
89,581.067725508957
90,580.9491434333877
91,580.8398858414921
92,580.7447229224435
93,580.6680797951229
94,580.6136363600802
95,580.5839732060934
96,580.5803010442958
97,580.6023124146748
98,580.6481968077695
99,580.7148487218484
100,580.7982596272925
101,580.8940300017708
102,580.9978986757037
103,581.1061899427833
104,581.2161191168223
105,581.3259420211002
106,581.4349548369191
107,581.5433479695315
108,581.6519156594582
109,581.761646445408
110,581.8732672927391
111,581.9868530329994
112,582.1016020525491
113,582.215814619788
114,582.3270390228845
115,582.4323258281224
116,582.528553768529
117,582.6128181344866
118,582.6828704180847
119,582.7375709485583
120,582.777284341692
121,582.8041244095331
122,582.8219528586611
123,582.8360668579217
124,582.8525751854421
125,582.8775450553192
126,582.9160729178163
127,582.9714627694941
128,583.0446722730634
129,583.1341209533625
130,583.2358697713577
131,583.344105981948
132,583.4518252288482
133,583.5515993679703
134,583.6363413832624
135,583.7000119979022
136,583.7382360790165
137,583.748790875911
138,583.7318999710133
139,583.6902563638356
140,583.6287360993784
141,583.5538370101965
142,583.4729425238788
143,583.3935339977339
144,583.3224550469497
145,583.2652942058822
146,583.2259240644644
147,583.2062171237596
148,583.2059385150869
149,583.2227951634118
150,583.2526161402258
151,583.2896530268656
152,583.3270011754336
153,583.3571313230899
154,583.3724895670276
155,583.36609855022
156,583.3320981940889
157,583.2661956814673
158,583.1660204666701
159,583.031381450312
160,582.8644092280716
161,582.669551018851
162,582.4533813876803
163,582.2242126704575
164,581.9915330560659
165,581.7653415301918
166,581.5554651145969
167,581.370934736529
168,581.219472570528
169,581.1071151903608
170,581.0379720129224
171,581.0141076480844
172,581.0355411943284
173,581.1003600162402
174,581.2049350062766
175,581.3442045201284
176,581.5119855574914
177,581.7012841896359
178,581.9046049741154
179,582.114285666802
180,582.3228924992617
181,582.5236897638741
182,582.711151116004
183,582.8814346916014
184,583.0327230398743
185,583.1653412844972
186,583.2816147018744
187,583.3854964663843
188,583.4820500436047
189,583.5768733825755
190,583.6755105292989
191,583.7828608889852
192,583.9026115429557
193,584.0367700370056
194,584.185402480478
195,584.3466443440179
196,584.5169729984707
197,584.6916675727035
198,584.8653620889554
199,585.0326085379451
200,585.1883815631652
201,585.3284679241842
202,585.4497011354471
203,585.5500296571532
204,585.628439339394
205,585.6847786937745
206,585.7195517184223
207,585.7337418198615
208,585.7287115744717
209,585.7061904235275
210,585.6683207998193
211,585.6176973527429
212,585.5573330497754
213,585.4905359467971
214,585.4207492080942
215,585.3514335226026
216,585.2860298110601
217,585.227968372087
218,585.1806479996493
219,585.1473223197947
220,585.1308801290712
221,585.133551623613
222,585.1565933603035
223,585.2000126844309
224,585.2623981659921
225,585.340913126093
226,585.4314721280577
227,585.5290748506793
228,585.6282476469224
229,585.7235389878495
230,585.8100079942499
231,585.883633149433
232,585.9415750602932
233,585.9822657187544
234,586.005346994872
235,586.0115120521148
236,586.0023046463353
237,585.9799153010447
238,585.9469958446872
239,585.9065019480669
240,585.8615676931464
241,585.8154135453066
242,585.7712836624995
243,585.7323967741506
244,585.7018816620467
245,585.6826667324672
246,585.6773121673754
247,585.6878035746691
248,585.7153482959491
249,585.7602195998785
250,585.8216854948083
251,585.8980465764856
252,585.9867900348177
253,586.0848407618794
254,586.1888660344802
255,586.2955819604815
256,586.402012122157
257,586.5056513819854
258,586.6045034643195
259,586.6970028864791
260,586.7818788611145
261,586.8580364678427
262,586.9245105511227
263,586.9805059977073
264,587.0254967232936
265,587.059339162048
266,587.0823702396565
267,587.0954773319148
268,587.1001218726743
269,587.0982828337666
270,587.0922953451159
271,587.0845968322337
272,587.0774258451963
273,587.0725233664715
274,587.0708734261747
275,587.0725094767178
276,587.0764078075636
277,587.0804851762493
278,587.0817188999011
279,587.0764129578072
280,587.0606257810437
281,587.0307382994567
282,586.9840827275731
283,586.919504377173
284,586.8377195259595
285,586.7413683680047
286,586.6347317441923
287,586.5231681056608
288,586.412410427921
289,586.3079091697082
290,586.2143922723719
291,586.1357374242659
292,586.0751410429582
293,586.035462697975
294,586.019562637985
295,586.0304568317595
296,586.0711851776073
297,586.1443938185856
298,586.2517274132774
299,586.3931811115407
300,586.5665753308497
301,586.7673034428116
302,586.9884619828382
303,587.2213909852641
304,587.456536621358
305,587.6844500979623
306,587.8967128608346
307,588.0866313193816
308,588.249624489363
309,588.3832956492812
310,588.4872315852394
311,588.5626120123111
312,588.6117266405606
313,588.637483211941
314,588.6429595009711
315,588.6310262629373
316,588.6040582351671
317,588.5637530867281
318,588.5110827385188
319,588.4463985599526
320,588.3696930837867
321,588.2809820822395
322,588.1807278561179
323,588.0702059832082
324,587.9517327650034
325,587.8287028275033
326,587.7054207182881
327,587.5867447899595
328,587.4775949648542
329,587.382401937128
330,587.3045874552417
331,587.2461600083813
332,587.2074863993845
333,587.187259141577
334,587.1826354874485
335,587.1895022288818
336,587.2028342036618
337,587.21713986514
338,587.2269856502908
339,587.2275525168278
340,587.215133447994
341,587.1874708107886
342,587.1438705480122
343,587.0850942722227
344,587.0130877502727
345,586.9306329654828
346,586.8410033158025
347,586.7476664800154
348,586.6540401127124
349,586.5632846107909
350,586.4781212899967
351,586.4006800521598
352,586.3323914291756
353,586.2739417980782
354,586.2253105680952
355,586.1858983122912
356,586.1547333543243
357,586.130722413544
358,586.1128964731574
359,586.1005969927968
360,586.0935575392018
361,586.0918657804833
362,586.0958225786322
363,586.1057306401702
364,586.1216542333315
365,586.1432074207338
366,586.1694367866563
367,586.1988420155332
368,586.2295272154136
369,586.2594261744582
370,586.2865202783474
371,586.308975751718
372,586.3251648900873
373,586.3335929497855
374,586.3328024347343
375,586.3213411853272
376,586.297851712523
377,586.2612842345045
378,586.2111837813711
379,586.1479718851328
380,586.0731376046363
381,585.9892692043439
382,585.8999002271296
383,585.80920328648
384,585.7216088620238
385,585.6414237522541
386,585.5724818898822
387,585.5178232435445
388,585.479402828538
389,585.4578717174779
390,585.4524959181788
391,585.461253645461
392,585.4810938559515
393,585.5082898937123
394,585.538806358391
395,585.5686151510561
396,585.5939347719732
397,585.6114063156303
398,585.6182424325399
399,585.6123826352921
400,585.5926610878364
401,585.558953995672
402,585.5122478050434
403,585.4545805338661
404,585.3888546242358
405,585.3185687263126
406,585.247535693487
407,585.1796409826737
408,585.1186657438521
409,585.0681636079429
410,585.0313476998227
411,585.0109348746756
412,585.0089250018665
413,585.0263469508828
414,585.0630365193476
415,585.1175041419956
416,585.1869217703032
417,585.2672347445882
418,585.3533911921137
419,585.4396761377376
420,585.5201380394791
421,585.5890904554013
422,585.6416507558563
423,585.6742520717743
424,585.6850559870721
425,585.6742076447152
426,585.643894349187
427,585.5981762975025
428,585.5425641681279
429,585.4833484480156
430,585.4267424505094
431,585.3779598939097
432,585.3403817500963
433,585.3149620325082
434,585.2999804320965
435,585.2911890076705
436,585.28233818378
437,585.2660080181606
438,585.2346164047475
439,585.1814394138347
440,585.1014754917838
441,584.9920218220548
442,584.8529000818814
443,584.6863466906748
444,584.4966439499722
445,584.2895986358144
446,584.0719709989723
447,583.8509275640109
448,583.6335496465397
449,583.4263940884058
450,583.2350953805819
451,583.0640249740337
452,582.9160532401564
453,582.7924549698292
454,582.6929638822128
455,582.6159507343305
456,582.5586962284971
457,582.517743539029
458,582.4893173686426
459,582.4697737259442
460,582.4560132611011
461,582.4457749802032
462,582.4377405026736
463,582.4314287817118
464,582.4269369403612
465,582.4246429158426
466,582.4249853799658
467,582.4283755203714
468,582.4352183289477
469,582.445972271608
470,582.4611685308556
471,582.4813366929382
472,582.5068317403887
473,582.5376108443419
474,582.5730423769259
475,582.611823230741
476,582.6520385222129
477,582.6913519430724
478,582.7272929842667
479,582.7576021655202
480,582.7805853142246
481,582.7954134293095
482,582.8023030043695
483,582.8025278189989
484,582.7982421153138
485,582.7921377943826
486,582.7870100714104
487,582.7853396546278
488,582.7889850802295
489,582.7990233048369
490,582.815724866592
491,582.8386351835827
492,582.8667453455066
493,582.8987451429084
494,582.9333417883322
495,582.9695994415544
496,583.007223856283
497,583.0467103058153
498,583.0893029621144
499,583.1367660679715
500,583.191018294475
501,583.2537129825598
502,583.3258534520542
503,583.4075244895851
504,583.4978044695396
505,583.5948877441224
506,583.6963930288732
507,583.7997841154952
508,583.9028067085188
509,584.0038483531538
510,584.1021502940819
511,584.1978445772288
512,584.2918505984403
513,584.3857092273652
514,584.4814288893639
515,584.5813739834625
516,584.6881758337074
517,584.8046179568273
518,584.9334511982682
519,585.0771251593345
520,585.2374598126326
521,585.415301057726
522,585.610202369086
523,585.8201702424639
524,586.0415150451416
525,586.2688516568022
526,586.495288817011
527,586.7128352939355
528,586.9130279441279
529,587.0877404087453
530,587.2300756064752
531,587.335212478813
532,587.4010801687274
533,587.4287567097456
534,587.4225189585218
535,587.3895041812242
536,587.3389912518165
537,587.2813806384311
538,587.2270332015186
539,587.185174281866
540,587.163045210025
541,587.1654009111274
542,587.1943576664418
543,587.2495256414659
544,587.3283236438301
545,587.4263715758664
546,587.5378940345489
547,587.656125935293
548,587.7737451233606
549,587.8833481801631
550,587.9779544021285
551,588.0514964073618
552,588.0992438092892
553,588.1181101103047
554,588.1068113859551
555,588.0658701057663
556,587.9974792741668
557,587.9052573891037
558,587.793928346842
559,587.6689500764068
560,587.5361049096147
561,587.4010691070957
562,587.2689950806385
563,587.144152202641
564,587.0296714022917
565,586.9274272214441
566,586.8380748138125
567,586.7612374511197
568,586.6958074173576
569,586.640288721521
570,586.5930968332876
571,586.5527485559477
572,586.5179088512831
573,586.4872942750089
574,586.459465773707
575,586.4325817825318
576,586.4042151585547
577,586.3713390530473
578,586.330538730818
579,586.2784249909772
580,586.2121567464255
581,586.1299564283685
582,586.0315151479248
583,585.9182178290725
584,585.7931622832684
585,585.6609825492792
586,585.527497131802
587,585.3992019296315
588,585.2826496156979
589,585.183799490212
590,585.10744538141
591,585.0568138587253
592,585.0333884748823
593,585.0369806185349
594,585.0660341570479
595,585.1181055426148
596,585.190406185895
597,585.2802620410712
598,585.385369593238
599,585.5038047651041
600,585.6338317728412
601,585.7736177579887
602,585.9209668696795
603,586.0731559692425
604,586.2269099477909
605,586.3785216372482
606,586.5241074600694
607,586.659982782265
608,586.7831197873744
609,586.8916097594371
610,586.9850127799004
611,587.0644800427514
612,587.1325972602112
613,587.1929889198889
614,587.2497799209103
615,587.3070101461722
616,587.3680733537271
617,587.4352400489555
618,587.5093210307018
619,587.5895152492599
620,587.6734611220547
621,587.757486469971
622,587.8370358250647
623,587.9072416232052
624,587.9635883632308
625,588.0025900385441
626,588.0223685448871
627,588.0230071039178
628,588.0065823814979
629,587.9768560702196
630,587.9387023604469
631,587.8974131888554
632,587.8580262743837
633,587.8247724077507
634,587.8006781531371
635,587.7873207577285
636,587.7847192455591
637,587.7913452770792
638,587.8042347297229
639,587.8191764169528
640,587.8309615297366
641,587.8337009299943
642,587.8212382025829
643,587.7876803349117
644,587.7280321913196
645,587.6388727569837
646,587.5189742975102
647,587.3697588617089
648,587.195507200039
649,587.0032622403846
650,586.8023947693728
651,586.6038362696116
652,586.419038251735
653,586.2587718420442
654,586.1319162974588
655,586.0443945415446
656,585.9984021608713
657,585.9920504130355
658,586.0195029624492
659,586.0716200957754
660,586.1370353320617
661,586.2035089806063
662,586.2593648738973
663,586.2948199761804
664,586.3030417010891
665,586.2808107839845
666,586.2287330792492
667,586.1510159472399
668,586.0548792794378
669,585.9497016820294
670,585.8460172874833
671,585.7544828014279
672,585.6849246793444
673,585.6455477137262
674,585.6423436888982
675,585.6787042523567
676,585.7552354308299
677,585.8697803694411
678,586.0176491763531
679,586.1920216414878
680,586.3844586153105
681,586.5854572655256
682,586.785006411186
683,586.9731169900866
684,587.1403120984932
685,587.2780680342294
686,587.3792046135854
687,587.4382279868037
688,587.4516331009575
689,587.4181704745819
690,587.3390632303044
691,587.2181311939025
692,587.061760795712
693,586.8786650138559
694,586.6794012166212
695,586.4756486402111
696,586.2792898038733
697,586.1013874261741
698,585.9511878185144
699,585.8352979687013
700,585.7571698562253
701,585.7169883644434
702,585.7120048657852
703,585.7372841114558
704,585.7867428732636
705,585.8542811311459
706,585.9347696942219
707,586.0246805294576
708,586.1222337895326
709,586.2270676128685
710,586.3395635569386
711,586.4600362497968
712,586.5880035138595
713,586.7216995221515
714,586.8579019941902
715,586.9920541225027
716,587.1186113747184
717,587.2315422531052
718,587.3249334566981
719,587.3936585174412
720,587.4340550992413
721,587.4445345177761
722,587.4260328790078
723,587.3822124747434
724,587.319339804399
725,587.2458089991469
726,587.1713432034882
727,587.1059746596004
728,587.0589556461396
729,587.0377706698149
730,587.0473976495459
731,587.0899084086694
732,587.1644278263359
733,587.2674117714603
734,587.3931695307956
735,587.534540884029
736,587.6836296284528
737,587.832498268915
738,587.9737569162862
739,588.101026040407
740,588.2092846238388
741,588.2951111284862
742,588.3568008137884
743,588.3943331532332
744,588.4091823982509
745,588.4039985454996
746,588.3822115956459
747,588.3476189839863
748,588.3040102749816
749,588.2548717214536
750,588.2031937816597
751,588.1513746084402
752,588.1011840803699
753,588.0537472017421
754,588.009531288631
755,587.96836371681
756,587.929534498742
757,587.8920236613056
758,587.8548431200792
759,587.8174323572599
760,587.7800231688063
761,587.7438895286142
762,587.7114186709315
763,587.6859805033143
764,587.6716224442172
765,587.6726464986151
766,587.6931180214397
767,587.7363291103006
768,587.8042337000998
769,587.8969085983385
770,588.0121501328667
771,588.1453357892308
772,588.2896347482006
773,588.4365622401858
774,588.5767847587081
775,588.7010290743895
776,588.8009422020345
777,588.869788108994
778,588.9029260479522
779,588.8980663727241
780,588.8553272264613
781,588.7771216383964
782,588.6679047883791
783,588.5338172423926
784,588.3822642716416
785,588.221462065455
786,588.0599646211643
787,587.9061765653349
788,587.7678636118924
789,587.6516874253355
790,587.5628050468192
791,587.5045751733354
792,587.4783983852674
793,587.4836909800607
794,587.5179695013989
795,587.577019857464
796,587.6551396228118
797,587.7454600605631
798,587.840358877774
799,587.9319589301709
800,588.0126825175536
801,588.0758130170316
802,588.1160105596356
803,588.1297286134384
804,588.1154797119545
805,588.0739080093164
806,588.0076503604209
807,587.9210005936486
808,587.8194203019111
809,587.7089568775975
810,587.5956408414569
811,587.4849451047077
812,587.3813878592455
813,587.2883317395947
814,587.2079798834098
815,587.1415196164445
816,587.0893354868986
817,587.0512091205
818,587.0264426378618
819,587.0138836712625
820,587.0118834101901
821,587.0182583944538
822,587.0303261950163
823,587.0450485223325
824,587.0592720684205
825,587.0700283198357
826,587.0748385219382
827,587.0719664032878
828,587.0605733350394
829,587.040756339582
830,587.0134748282545
831,586.9803850702806
832,586.9436048503067
833,586.9054364818915
834,586.8680904114796
835,586.8334674130422
836,586.8030599737816
837,586.7780086268771
838,586.7592943040655
839,586.7479833287188
840,586.7454035510845
841,586.7531442538535
842,586.7728356723215
843,586.8057488661091
844,586.8523269506602
845,586.9117855966683
846,586.9818986091776
847,587.0590329960802
848,587.1384433549462
849,587.2147875681824
850,587.2827796573504
851,587.3378554172521
852,587.3767146130521
853,587.397635102489
854,587.4005136172916
855,587.3866448893335
856,587.3582911815079
857,587.3181222550791
858,587.2686245789517
859,587.2115839757706
860,587.1477347155484
861,587.0766400375181
862,586.9968238690124
863,586.906116660638
864,586.8021276547485
865,586.6827339426687
866,586.5464945740848
867,586.3929463766066
868,586.222787619475
869,586.0379736655324
870,585.8417313238149
871,585.6384768155664
872,585.4336227076607
873,585.2332764137051
874,585.0438506138563
875,584.8716180391039
876,584.7222476754868
877,584.6003564957133
878,584.5091064222611
879,584.4498767862722
880,584.4220481523986
881,584.4229389522093
882,584.4479320021749
883,584.4908052377688
884,584.5442475521038
885,584.6005139622159
886,584.6521578493873
887,584.6927639741004
888,584.7175960584161
889,584.7240738651984
890,584.7120048255189
891,584.6835130491116
892,584.642645152051
893,584.5946931444405
894,584.545339815683
895,584.499774018333
896,584.4619308124511
897,584.4339839265025
898,584.4161560333243
899,584.4068298294715
900,584.4028736550857
901,584.4000733644133
902,584.3935924857943
903,584.3784337524316
904,584.3499058681658
905,584.3040969130315
906,584.2383366321512
907,584.1516082696762
908,584.0448475000129
909,583.9210505936464
910,583.7851269297532
911,583.643477362533
912,583.5033416214645
913,583.372015202156
914,583.256075570938
915,583.1607611023225
916,583.0896014119281
917,583.0443209989381
