frame_number,force
0,646.9634400000655
1,646.9298848320278
2,646.8990242005227
3,646.8735971398543
4,646.8563526444037
5,646.849896441262
6,646.8564355470206
7,646.8774774484087
8,646.913549142951
9,646.9639891657574
10,647.0268519288918
11,647.0989543966901
12,647.1760876524207
13,647.2534041300155
14,647.325963793724
15,647.389375420001
16,647.4404218302465
17,647.4775394734829
18,647.5010434636815
19,647.5130369720908
20,647.5170021416437
21,647.5171282529927
22,647.5174857941386
23,647.521195252694
24,647.5297549794235
25,647.5426689188059
26,647.5574479466794
27,647.5699659986407
28,647.5750689054089
29,647.5672909418766
30,647.5415411710304
31,647.4936639135885
32,647.4208302870077
33,647.3217629355584
34,647.196824599228
35,647.0480072134923
36,646.8788422058717
37,646.6942264275358
38,646.5001439531757
39,646.3032809016345
40,646.1105707379671
41,645.9287356153786
42,645.763880957588
43,645.6211712362061
44,645.5045948699176
45,645.4168216513568
46,645.3591505212516
47,645.3315279743031
48,645.3325990740643
49,645.3597552019843
50,645.4091715134916
51,645.4758661686765
52,645.5538399762627
53,645.6363543488036
54,645.7163720114397
55,645.7871274822738
56,645.8427397491912
57,645.8787576013234
58,645.892549727018
59,645.8835021539397
60,645.8530339013646
61,645.804461864035
62,645.7427364549934
63,645.6740528937296
64,645.6053448606569
65,645.5436925649916
66,645.4957072324058
67,645.4669686439349
68,645.4615868426052
69,645.4819352771427
70,645.5285667519516
71,645.6002938325607
72,645.6944051028339
73,645.8069889684547
74,645.9333357661517
75,646.0683873162134
76,646.2071993452552
77,646.3453718765376
78,646.4793930895906
79,646.6068468366864
80,646.726456209468
81,646.8379682930919
82,646.9419191895817
83,647.039341847816
84,647.1314809681181
85,647.2195620891216
86,647.3046427261148
87,647.3875592095168
88,647.4689618033833
89,647.5493962531169
90,647.6293614616352
91,647.7092812026767
92,647.789381145666
93,647.869529395021
94,647.9491291968992
95,648.0271267615803
96,648.1021429045729
97,648.172690474581
98,648.237414697738
99,648.2952960191633
100,648.3457837219992
101,648.3888614951844
102,648.4250589250893
103,648.4554182687002
104,648.4814214414869
105,648.504886018434
106,648.5278489302033
107,648.5524647235725
108,648.5809405052946
109,648.6155072554752
110,648.6583978026331
111,648.7117831502798
112,648.7776206320557
113,648.8573924531156
114,648.9517640797491
115,649.0602554978825
116,649.1810535814575
117,649.3110632353018
118,649.4462100827941
119,649.5819225735531
120,649.7136792772716
121,649.8375080639031
122,649.9503488735636
123,650.0502324053302
124,650.1362805547536
125,650.2085829702976
126,650.2680166038754
127,650.3160420488326
128,650.354468991386
129,650.3851815857887
130,650.409853598198
131,650.4297178105347
132,650.4454482134513
133,650.4571723416148
134,650.4645883031503
135,650.467143170612
136,650.4642358589929
137,650.4554222595135
138,650.4406083327323
139,650.4202088555053
140,650.3952300959035
141,650.3672276124032
142,650.3381177927031
143,650.30987524576
144,650.2841934845954
145,650.2622006407383
146,650.2443104812841
147,650.2302591543471
148,650.2193245261606
149,650.210655611773
150,650.2035918737736
151,650.1978636589379
152,650.1936312349357
153,650.191391312862
154,650.1918109534312
155,650.1955406225499
156,650.2030398291103
157,650.2144336496799
158,650.2294044928738
159,650.2471171375455
160,650.2661838230734
161,650.2846865499984
162,650.3002649713422
163,650.3102545664915
164,650.311848210449
165,650.3022685014379
166,650.2789605132551
167,650.2398192479178
168,650.183449301755
169,650.1094315321743
170,650.0185538985698
171,649.9129516051319
172,649.796096601989
173,649.672586113591
174,649.547712691895
175,649.42685131021
176,649.3147496559143
177,649.2148339970081
178,649.1286496537853
179,649.0555555920918
180,648.992773261847
181,648.9358253658683
182,648.8792998529973
183,648.8177851267977
184,648.7467861531491
185,648.6634503383863
186,648.5669813999671
187,648.458678587923
188,648.3415999385402
189,648.2199072631502
190,648.0980069375466
191,647.9796529129626
192,647.8672067730369
193,647.7612232196509
194,647.660442634774
195,647.5621599341033
196,647.4628475881177
197,647.3588694075813
198,647.2471356600279
199,647.1256012996761
200,646.9935643705217
201,646.8517586812376
202,646.7022559632248
203,646.5482085311575
204,646.3934785452421
205,646.2422143605572
206,646.0984430746005
207,645.9657409772769
208,645.8470168672804
209,645.7444097333754
210,645.659278721683
211,645.592253455332
212,645.5433089263618
213,645.5118253416485
214,645.49659491665
215,645.4957591013903
216,645.506703727972
217,645.5259802231765
218,645.5493263812941
219,645.5718285363962
220,645.5882231071627
221,645.5932995980784
222,645.5823446881822
223,645.551561011708
224,645.4984098066291
225,645.4218591362466
226,645.3225450875691
227,645.2028458584433
228,645.0668318343501
229,644.9200277228463
230,644.7689428575692
231,644.6203916946761
232,644.4807001280819
233,644.3549336841671
234,644.2462796646771
235,644.1556832975554
236,644.0817948326379
237,644.0212332458192
238,643.9691140359234
239,643.919739026272
240,643.8673271190883
241,643.806681772861
242,643.7337286470112
243,643.6458984448649
244,643.542362158306
245,643.4241337744724
246,643.2940370288826
247,643.1565143793049
248,643.0172680973284
249,642.8827607872822
250,642.7596342550385
251,642.6541138516402
252,642.5714601283901
253,642.5155253381187
254,642.4884683010978
255,642.4906641285312
256,642.5208067090342
257,642.5761544240758
258,642.6528416062575
259,642.7461884933331
260,642.8509848766929
261,642.9617712256373
262,643.0731617213684
263,643.1802257499107
264,643.2788860465946
265,643.3662512073796
266,643.4408082147495
267,643.5024436492355
268,643.5523114485167
269,643.5926025376186
270,643.6262805485293
271,643.6568154156345
272,643.6878975583679
273,643.7231039941233
274,643.7655309538209
275,643.8174578338025
276,643.8801148295514
277,643.9535961467521
278,644.03692645449
279,644.128265869816
280,644.2252252933481
281,644.3252569015633
282,644.4260783472691
283,644.5260735368629
284,644.6245943817057
285,644.722092570594
286,644.8200476314396
287,644.9207042628127
288,645.0266657182889
289,645.1404130685333
290,645.2638407132364
291,645.397909188081
292,645.5424964580543
293,645.6964692610146
294,645.8579222254463
295,646.0244853235936
296,646.1935957895153
297,646.3626636444686
298,646.5291232995842
299,646.690430026942
300,646.8440801962215
301,646.9876927866837
302,647.1191311477968
303,647.2366171515879
304,647.3387997905455
305,647.4247661765845
306,647.4940094196883
307,647.5463866860749
308,647.5821049118923
309,647.6017588758715
310,647.6064217258047
311,647.5977624908855
312,647.5781489773148
313,647.5506916726451
314,647.5191968608665
315,647.4880260373238
316,647.4618900566164
317,647.4456154123412
318,647.4439011042472
319,647.4610592546752
320,647.5007218910705
321,647.565504099384
322,647.6566386585655
323,647.7736380523666
324,647.9140819566815
325,648.0736414079514
326,648.2464124718869
327,648.4255500895813
328,648.6040991029754
329,648.7758531650733
330,648.9360642567937
331,649.0818810381148
332,649.2124818911187
333,649.3289382783115
334,649.433863875697
335,649.5308844914391
336,649.6239477995808
337,649.7165223530191
338,649.8108062972459
339,649.9071215473725
340,650.0036552630869
341,650.0966242793266
342,650.1808209260419
343,650.2503996528591
344,650.2997176404523
345,650.3240619849926
346,650.3201671622127
347,650.2865103202423
348,650.2234260017901
349,650.1330891579933
350,650.0193900913591
351,649.8876960427599
352,649.7444886316063
353,649.5968939344899
354,649.4521611091374
355,649.3171596788216
356,649.1979437703692
357,649.0993974566999
358,649.0249558101673
359,648.9763989489248
360,648.9537317482503
361,648.9551708697198
362,648.9772526090276
363,649.0150632705751
364,649.0625936013937
365,649.1132166537358
366,649.1602612700341
367,649.1976093986019
368,649.2202205189161
369,649.2245023788531
370,649.2084876052772
371,649.1718101199698
372,649.115497836105
373,649.0416221222056
374,648.9528696679835
375,648.8521152978738
376,648.7420702400764
377,648.625063525127
378,648.5029861706512
379,648.3773872402086
380,648.2496642617967
381,648.1212589906773
382,647.993774384208
383,647.868970020042
384,647.7486495696186
385,647.6344977110336
386,647.5279358400061
387,647.4300461029575
388,647.3415771957815
389,647.2630061594241
390,647.1945973074135
391,647.1363929421258
392,647.088109084937
393,647.0489744257875
394,647.0175923622897
395,646.9918955234991
396,646.9692198738825
397,646.9464875960202
398,646.9204653859935
399,646.8880509099023
400,646.8465367087957
401,646.7938158222764
402,646.7285257149746
403,646.6501616599566
404,646.5592059206103
405,646.4573022669081
406,646.3474615347776
407,646.2342297258764
408,646.1237084017524
409,646.023314471325
410,645.9412190228842
411,645.8854992374114
412,645.8631330525743
413,645.8790215532746
414,645.9352210152731
415,646.0305135124202
416,646.1603657562857
417,646.317250585043
418,646.4912588820589
419,646.6709136119553
420,646.8440956009769
421,646.9989937770538
422,647.1250063664027
423,647.2135442806012
424,647.2587082485136
425,647.257807902509
426,647.2116607479343
427,647.1245798598242
428,647.0039777571163
429,646.8595953016189
430,646.7024648789803
431,646.5437779567363
432,646.3938307119413
433,646.261184909918
434,646.1521244379022
435,646.0704302955214
436,646.017456051425
437,645.9924599947277
438,645.9931248891367
439,646.0161713924848
440,646.0579620963682
441,646.1150083563792
442,646.1843231423126
443,646.2635932914593
444,646.3511654738796
445,646.4458576079151
446,646.5466302111954
447,646.65218226111
448,646.7605671351961
449,646.8689418169753
450,646.9735509358167
451,647.0700002875465
452,647.153801764165
453,647.2210952788826
454,647.2693982176502
455,647.2982137934002
456,647.309348087663
457,647.3068391101255
458,647.2964836972467
459,647.2850406024555
460,647.2792621518547
461,647.2849405135324
462,647.306143805628
463,647.3447698740379
464,647.4004692796619
465,647.4708955798623
466,647.5521630076431
467,647.6393717223956
468,647.7271093101492
469,647.809915778214
470,647.8827522470216
471,647.9415060586124
472,647.9835020486512
473,648.0079150160543
474,648.0159473452377
475,648.0106760906356
476,647.9965665485885
477,647.9787461116068
478,647.9621962490758
479,647.9510433588334
480,647.948108368535
481,647.9548038053897
482,647.9713581317496
483,647.9972407713788
484,648.0316043977838
485,648.0735822126887
486,648.1223661208426
487,648.1770951363823
488,648.2366493999907
489,648.2994603506534
490,648.3634253994612
491,648.425967301086
492,648.4842187066
493,648.5352706323863
494,648.5764230444964
495,648.6054039765579
496,648.6205441281762
497,648.620889957141
498,648.6062299741566
499,648.5770237900005
500,648.5342615089231
501,648.4793142782725
502,648.4138389988648
503,648.3397711268111
504,648.2593977384722
505,648.1754668534004
506,648.09127168178
507,648.010656718285
508,647.9379174749789
509,647.8775878963123
510,647.8341226953036
511,647.8114979683024
512,647.8127816548888
513,647.8397533237327
514,647.8926517005434
515,647.9700838819525
516,648.0690703709895
517,648.1851753482913
518,648.312697838044
519,648.4449401813968
520,648.5745819770867
521,648.6941635089086
522,648.7966471601511
523,648.8760024212321
524,648.9277526312318
525,648.9494186185644
526,648.9407928792616
527,648.9039868392729
528,648.8432224968406
529,648.764389418308
530,648.6744408590291
531,648.5807262670647
532,648.4903401066953
533,648.4095351668059
534,648.3432332237567
535,648.2946703873403
536,648.2652208038779
537,648.2544327454237
538,648.260279129527
539,648.2795779341083
540,648.3084946226959
541,648.34301917129
542,648.3793280873538
543,648.4139899997125
544,648.4440259268092
545,648.4668683055266
546,648.4802695142289
547,648.4822006726151
548,648.4707710114089
549,648.4441940259094
550,648.4008227548453
551,648.3392644429784
552,648.2585632363781
553,648.1584165079753
554,648.0393777912595
555,647.9030013765959
556,647.7518962463445
557,647.5896769075189
558,647.4208217513911
559,647.2504628862981
560,647.0841228026578
561,646.9273922818882
562,646.7855381157962
563,646.6630519055783
564,646.563188253226
565,646.4875696825053
566,646.4359393862179
567,646.4061123272816
568,646.3941233955757
569,646.3945316981044
570,646.4008341785291
571,646.4059579597634
572,646.4028105931343
573,646.3848592011162
574,646.346698513195
575,646.2845651020814
576,646.1967460545754
577,646.0838075434626
578,645.9485632283221
579,645.7957456556416
580,645.6314199290946
581,645.4622453729206
582,645.2947236115054
583,645.134565466281
584,644.9862661861395
585,644.8529148431496
586,644.7362048207973
587,644.636576536164
588,644.5534211131425
589,644.4853019030913
590,644.4301817317153
591,644.3856461720866
592,644.349089858436
593,644.3178185169213
594,644.2890427837215
595,644.2597962813195
596,644.2268645878304
597,644.1868238286319
598,644.1362446668419
599,644.0720454525136
600,643.9919184284198
601,643.8947297309987
602,643.7808109604724
603,643.6521062003687
604,643.5121874698667
605,643.366175637309
606,643.2205932906345
607,643.0831411393333
608,642.9623521743866
609,642.8670672917656
610,642.8057140933622
611,642.78545036751
612,642.8113158082085
613,642.8855689977134
614,643.0073483497937
615,643.1727117141323
616,643.3750274716043
617,643.6056363194705
618,643.854676551786
619,644.1119583933005
620,644.3677792757974
621,644.613589894311
622,644.8424518823144
623,645.0492712642638
624,645.230838405419
625,645.3857373108767
626,645.5141896306254
627,645.6178778097699
628,645.6997704163513
629,645.7639568954553
630,645.8154740640734
631,645.8600744403678
632,645.903872929511
633,645.9528301079636
634,646.0120832302771
635,646.0852061834315
636,646.1735419336552
637,646.2757735925621
638,646.3878655457199
639,646.5034231471627
640,646.6144201416386
641,646.7121700359061
642,646.788397865275
643,646.8362893903135
644,646.851419995174
645,646.8324749595506
646,646.7816714956796
647,646.7047967850682
648,646.610800766235
649,646.5109373836633
650,646.4175296301605
651,646.3425214025347
652,646.296043163649
653,646.2852323654087
654,646.3135016862386
655,646.3803498644243
656,646.4816948922886
657,646.6106143622321
658,646.7583238742758
659,646.9152174419019
660,647.071829040506
661,647.2196313697219
662,647.351636668944
663,647.4627886605388
664,647.5501401178069
665,647.6128135404781
666,647.651758946878
667,647.669358440994
668,647.6689671428986
669,647.6544956261505
670,647.630112650864
671,647.6000898621618
672,647.5687524174582
673,647.540465800695
674,647.5195858456142
675,647.5103201215935
676,647.5164839486638
677,647.5411717869798
678,647.5863937651941
679,647.6527404360274
680,647.7391368411971
681,647.8427388666008
682,647.9590166949107
683,648.082053396981
684,648.205052823735
685,648.321008459327
686,648.4234481076223
687,648.5071437957895
688,648.5686655726016
689,648.6066732860402
690,648.6218937112184
691,648.6168135731975
692,648.5951964744538
693,648.5615618835504
694,648.5207338658818
695,648.4775034145155
696,648.4363942420099
697,648.4015016729194
698,648.3763823888944
699,648.3639878336794
700,648.3666377950187
701,648.3860222650296
702,648.4232113337034
703,648.478650634635
704,648.5521214041901
705,648.642652426365
706,648.7483911607578
707,648.8664685439363
708,648.9929150251965
709,649.1226912829898
710,649.2498734733118
711,649.367985831578
712,649.4704341425394
713,649.550985422245
714,649.6042519614618
715,649.6261504769778
716,649.614311415803
717,649.5684064766899
718,649.4903454565324
719,649.3842845022066
720,649.2564072705395
721,649.114485545711
722,648.9672731275174
723,648.8238147985303
724,648.6927557771227
725,648.5817235865536
726,648.4968291807088
727,648.4423018636423
728,648.4202494407507
729,648.4305379334776
730,648.4708053187616
731,648.5366331269677
732,648.6218812608178
733,648.7191538697099
734,648.820335618628
735,648.9171435511554
736,649.0016755897982
737,649.0669672471282
738,649.1075598324082
739,649.1200340510138
740,649.1034020750203
741,649.0592244428481
742,648.9913615271656
743,648.9053780032444
744,648.8077376186084
745,648.7049835050566
746,648.6030653302112
747,648.5068822029384
748,648.4200222445372
749,648.3446349856613
750,648.2813722313286
751,648.2293620645297
752,648.1862248085636
753,648.1481811701025
754,648.11031796805
755,648.0670507649999
756,648.0127653622075
757,647.942560957807
758,647.8529793072055
759,647.7425900989703
760,647.6123140957742
761,647.4654090125049
762,647.3071138593261
763,647.1440246731822
764,646.9833374282921
765,646.8321237254698
766,646.6967796826702
767,646.5827055688155
768,646.4941726506119
769,646.4342717980105
770,646.4048437381692
771,646.4063473333912
772,646.4376895047873
773,646.4960835274828
774,646.5770116328266
775,646.674352232512
776,646.7807001052284
777,646.8878660470301
778,646.9875046151471
779,647.0717966236703
780,647.1341029624656
781,647.1695015080504
782,647.1751282170968
783,647.1502772111459
784,647.0962648940197
785,647.0161117875043
786,646.9141278938787
787,646.7954919481448
788,646.6658888242656
789,646.5312250589021
790,646.397402350636
791,646.270109990129
792,646.1546018844139
793,646.0554447854284
794,645.976255605479
795,645.9194811627602
796,645.8862942301018
797,645.8766595435202
798,645.8895596176291
799,645.9232982193482
800,645.9757688433325
801,646.0446077200698
802,646.1272202412782
803,646.2207300445815
804,646.3219248031364
805,646.4272656191231
806,646.5330011686067
807,646.6353901353693
808,646.7309931342562
809,646.81696558782
810,646.8912813803647
811,646.952838882911
812,647.0014294224828
813,647.0375783865514
814,647.0623044441558
815,647.0768710832182
816,647.0826029840287
817,647.0808009040619
818,647.0727325955339
819,647.0596341038696
820,647.0426481731382
821,647.022657776412
822,647.0000301587124
823,646.9743523357628
824,646.9442840044726
825,646.9076392022617
826,646.8617261197345
827,646.8038759454781
828,646.732038964998
829,646.6453330388856
830,646.5444640773032
831,646.4319679483764
832,646.3122405341562
833,646.1913321093182
834,646.0764894538158
835,645.9754498913969
836,645.8955456248015
837,645.8427530685226
838,645.8208720136012
839,645.8310038448996
840,645.8714217112795
841,645.9378244466848
842,646.0238787634354
843,646.1219124031159
844,646.223641721586
845,646.3208840994831
846,646.406264931292
847,646.4739271046589
848,646.5201856386574
849,646.5439999673447
850,646.5471281349492
851,646.5338946164261
852,646.5106034810641
853,646.4847120762389
854,646.4639264042324
855,646.4553800487931
856,646.4650084374484
857,646.4971492495832
858,646.5543344072031
859,646.6372214185502
860,646.7446331508913
861,646.8737040119405
862,647.0201437998688
863,647.1786219226324
864,647.3432473840942
865,647.5080871537959
866,647.6676511920136
867,647.8172903006621
868,647.9534889017241
869,648.0740604732588
870,648.1782552861812
871,648.2667792203802
872,648.3417144051394
873,648.406329374801
874,648.4647668504442
875,648.5216087619783
876,648.5813464910146
877,648.6478189289271
878,648.7237017516957
879,648.8101297536208
880,648.9065182172911
881,649.0106228729262
882,649.1188332148843
883,649.2266391713454
884,649.3291788266681
885,649.421782620744
886,649.5004582685038
887,649.5622843444097
888,649.6056921581278
889,649.6306202461875
890,649.6385285463501
891,649.6322664636706
892,649.615806181916
893,649.5938733187061
894,649.571515233641
895,649.5536371279643
896,649.5445212120403
897,649.5473461887946
898,649.5637513436988
899,649.5935214116103
900,649.6344729711467
901,649.6825924265513
902,649.7324282371555
903,649.7776923578342
904,649.8119827863973
905,649.8295088514243
906,649.8256997629932
907,649.7976122639463
908,649.744108132354
909,649.6658193500675
910,649.5649459977494
911,649.4449448866818
912,649.3101676313136
913,649.1654884218058
914,649.0159317417241
915,648.8662969356379
916,648.7207924185843
917,648.5827159038147
918,648.4542268120985
