frame_number,force
0,689.6749900067763
1,689.5868729594088
2,689.4989852063671
3,689.4115545861603
4,689.3248060380648
5,689.238960183502
6,689.1542319443179
7,689.0708292095333
8,688.988951561349
9,688.9087890702866
10,688.8305211683154
11,688.7543156076614
12,688.6803275116431
13,688.6086985224621
14,688.5395560495683
15,688.4730126211496
16,688.4091653403611
17,688.3480954470571
18,688.2898679852566
19,688.2345315764576
20,688.1821182987068
21,688.1326436706319
22,688.0861067389218
23,688.0424902677578
24,688.0017610294811
25,687.9638701967862
26,687.9287538375687
27,687.8963335138867
28,687.8665169857543
29,687.8391990186226
30,687.8142622911841
31,687.7915783982895
32,687.7710089422275
33,687.7524067041275
34,687.7356168857785
35,687.7204784106306
36,687.7068252708576
37,687.6944879050993
38,687.6832945893993
39,687.6730728228254
40,687.6636506897498
41,687.6548581823406
42,687.6465284686566
43,687.6384990934652
44,687.6306131005083
45,687.6227200664904
46,687.6146770385755
47,687.6063493689134
48,687.5976114420506
49,687.5883472939576
50,687.5784511240383
51,687.5678277031865
52,687.556392681627
53,687.5440728002773
54,687.5308060090339
55,687.5165414949621
56,687.5012396228021
57,687.4848717897152
58,687.467420196268
59,687.4488775365513
60,687.4292466117887
61,687.4085398733463
62,687.3867789022405
63,687.363993832772
64,687.3402227278872
65,687.3155109137145
66,687.2899102808042
67,687.2634785597629
68,687.2362785788259
69,687.2083775104201
70,687.1798461135182
71,687.1507579790876
72,687.1211887871036
73,687.0912155850937
74,687.0609160996605
75,687.0303680933638
76,686.9996487789026
77,686.9688343003984
78,686.9379992881527
79,686.9072164893697
80,686.8765564738627
81,686.8460874113473
82,686.8158749155292
83,686.785981949343
84,686.7564687851553
85,686.7273930135309
86,686.6988095941693
87,686.6707709425518
88,686.6433270453273
89,686.6165255964144
90,686.5904121446898
91,686.5650302440861
92,686.5404215984555
93,686.5166261959174
94,686.4936824293035
95,686.4716272001368
96,686.4504960034584
97,686.4303229903185
98,686.4111410046031
99,686.3929815916309
100,686.375874977712
101,686.3598500222186
102,686.344934146105
103,686.3311532427435
104,686.3185315781229
105,686.307091687722
106,686.2968542766185
107,686.2878381278038
108,686.2800600217287
109,686.2735346683262
110,686.2682746514554
111,686.2642903848928
112,686.2615900783607
113,686.260179711487
114,686.2600630132824
115,686.2612414448423
116,686.2637141832137
117,686.2674781043775
118,686.2725277631737
119,686.2788553678461
120,686.2864507464918
121,686.2953013021584
122,686.3053919533129
123,686.316705057421
124,686.3292203172063
125,686.3429146713856
126,686.3577621740226
127,686.373733868774
128,686.3907976657307
129,686.408918228844
130,686.4280568811299
131,686.448171533595
132,686.4692166429368
133,686.4911432026208
134,686.5138987713244
135,686.5374275415119
136,686.5616704491606
137,686.5865653236699
138,686.6120470750027
139,686.6380479135901
140,686.6644975980674
141,686.6913237066444
142,686.7184519291488
143,686.7458063776178
144,686.7733099134982
145,686.8008844894904
146,686.828451504094
147,686.8559321668561
148,686.8832478722084
149,686.9103205800027
150,686.9370732015242
151,686.9634299904296
152,686.9893169382079
153,687.01466217336
154,687.0393963627223
155,687.0634531123618
156,687.0867693645623
157,687.1092857869619
158,687.1309471498206
159,687.1517026872649
160,687.1715064381493
161,687.1903175623934
162,687.2081006294796
163,687.2248258766934
164,687.2404694351269
165,687.2550135215696
166,687.2684465946345
167,687.2807634740678
168,687.2919654230211
169,687.3020601937557
170,687.3110620375566
171,687.3189916796209
172,687.3258762596084
173,687.3317492384571
174,687.3366502717699
175,687.3406250496022
176,687.3437251024728
177,687.3460075743867
178,687.3475349648864
179,687.3483748423052
180,687.3485995288968
181,687.3482857559648
182,687.3475142843615
183,687.3463694834307
184,687.3449388603975
185,687.3433125331659
186,687.3415826426568
187,687.3398427055135
188,687.3381869130366
189,687.3367093862804
190,687.335503399495
191,687.3346605848017
192,687.334270131189
193,687.3344179912749
194,687.3351861095202
195,687.3366516849055
196,687.3388864790801
197,687.3419561780961
198,687.3459198132991
199,687.3508292458969
200,687.3567287201082
201,687.3636544903158
202,687.3716345271916
203,687.3806883064323
204,687.3908266822637
205,687.4020518466788
206,687.4143573744122
207,687.4277283529401
208,687.4421415963571
209,687.4575659414991
210,687.4739626234608
211,687.4912857254175
212,687.5094826950418
213,687.528494918041
214,687.5482583390741
215,687.5687041213474
216,687.5897593378411
217,687.6113476887666
218,687.6333902408546
219,687.6558061838898
220,687.6785135985344
221,687.7014302276083
222,687.7244742415259
223,687.7475649879583
224,687.770623715906
225,687.7935742651354
226,687.8163437132542
227,687.8388629742191
228,687.8610673432397
229,687.882896983667
230,687.9042973515108
231,687.9252195526894
232,687.9456206270506
233,687.9654637523178
234,687.9847183614892
235,688.0033601692567
236,688.0213711059172
237,688.0387391599216
238,688.0554581324716
239,688.0715273099964
240,688.0869510630487
241,688.1017383826288
242,688.1159023667757
243,688.1294596713265
244,688.1424299391672
245,688.1548352222087
246,688.1666994099337
247,688.1780476776615
248,688.1889059662692
249,688.1993005025432
250,688.2092573658839
251,688.2188021039277
252,688.2279593977265
253,688.2367527762452
254,688.2452043794494
255,688.253334768874
256,688.2611627842124
257,688.2687054441858
258,688.275977889939
259,688.2829933693959
260,688.289763260857
261,688.296297133317
262,688.3026028398222
263,688.3086866392266
264,688.314553341231
265,688.3202064696615
266,688.325648439466
267,688.3308807433845
268,688.3359041442036
269,688.3407188679587
270,688.3453247928975
271,688.3497216289799
272,688.3539090833925
273,688.357887008938
274,688.3616555337397
275,688.3652151718532
276,688.3685669147236
277,688.3717123031681
278,688.3746534791966
279,688.3773932169777
280,688.37993493265
281,688.3822826733533
282,688.3844410867978
283,688.3864153737674
284,688.3882112267596
285,688.389834758092
286,688.3912924202184
287,688.3925909201254
288,688.3937371290473
289,688.3947379885
290,688.3956004133408
291,688.3963311919139
292,688.3969368828559
293,688.3974237086496
294,688.3977974476215
295,688.3980633280187
296,688.3982259292209
297,688.3982890958254
298,688.3982558703724
299,688.3981284499501
300,688.397908170971
301,688.3975955250626
302,688.3971902070672
303,688.3966911937935
304,688.3960968501948
305,688.3954050586414
306,688.3946133667056
307,688.3937191488419
308,688.3927197770379
309,688.3916127949827
310,688.3903960899305
311,688.3890680563867
312,688.3876277459282
313,688.3860749980314
314,688.3844105480242
315,688.3826361100223
316,688.3807544345989
317,688.378769342884
318,688.3766857406498
319,688.3745096170567
320,688.3722480326664
321,688.3699091006035
322,688.3675019642071
323,688.3650367743159
324,688.3625246689373
325,688.3599777571824
326,688.3574091081321
327,688.3548327439971
328,688.3522636357175
329,688.3497176982627
330,688.3472117825846
331,688.3447636615656
332,688.3423920082884
333,688.3401163661266
334,688.3379571110071
335,688.3359354063116
336,688.3340731503353
337,688.3323929154444
338,688.3309178775278
339,688.3296717340997
340,688.3286786093742
341,688.3279629446217
342,688.3275493720162
343,688.3274625700566
344,688.3277270989703
345,688.3283672157896
346,688.3294066711112
347,688.3308684920805
348,688.332774757709
349,688.3351463726467
350,688.3380028443373
351,688.3413620666399
352,688.3452401109843
353,688.3496510246187
354,688.3546066352274
355,688.3601163620131
356,688.366187034295
357,688.3728227191745
358,688.3800245601786
359,688.3877906293487
360,688.3961157957169
361,688.4049916132221
362,688.4144062310709
363,688.4243443295294
364,688.4347870837277
365,688.4457121570354
366,688.4570937245476
367,688.4689025269992
368,688.4811059559695
369,688.4936681717264
370,688.5065502549442
371,688.5197103930108
372,688.5331041011269
373,688.5466844779755
374,688.5604024952967
375,688.5742073201778
376,688.5880466681608
377,688.6018671842259
378,688.6156148471192
379,688.6292353900839
380,688.6426747279121
381,688.6558793771923
382,688.6687968549068
383,688.6813760410341
384,688.6935674933967
385,688.7053237066302
386,688.7165993106819
387,688.7273512073128
388,688.7375386458016
389,688.7471232412224
390,688.7560689401189
391,688.7643419395124
392,688.7719105664014
393,688.7787451259045
394,688.7848177265383
395,688.7901020910066
396,688.7945733606758
397,688.7982079013898
398,688.8009831169611
399,688.8028772747292
400,688.8038693457204
401,688.803938860885
402,688.8030657847318
403,688.8012304080177
404,688.7984132616016
405,688.794595054185
406,688.7897566375124
407,688.7838790035069
408,688.776943318395
409,688.7689309988478
410,688.7598238345395
411,688.7496041604576
412,688.7382550808384
413,688.7257607446061
414,688.7121066697597
415,688.6972801116636
416,688.6812704679461
417,688.664069710688
418,688.6456728348644
419,688.6260783109
420,688.6052885288232
421,688.5833102215756
422,688.560154855316
423,688.53583897516
424,688.5103844959361
425,688.4838189292958
426,688.4561755407586
427,688.4274934326105
428,688.3978175506439
429,688.3671986144568
430,688.3356929724696
431,688.3033623839319
432,688.2702737310157
433,688.2364986649457
434,688.202113191209
435,688.1671972000006
436,688.1318339488123
437,688.0961095043301
438,688.0601121509131
439,688.0239317732448
440,687.9876592209673
441,687.9513856626979
442,687.9152019360412
443,687.8791978999224
444,687.8434617959315
445,687.8080796255883
446,687.7731345499409
447,687.7387063169278
448,687.7048707209851
449,687.6716990987591
450,687.6392578647602
451,687.6076080913772
452,687.5768051383149
453,687.5468983365165
454,687.5179307307468
455,687.4899388835956
456,687.4629527422354
457,687.43699556837
458,687.4120839318157
459,687.3882277689246
460,687.3654305078139
461,687.3436892622719
462,687.3229950951057
463,687.3033333499158
464,687.2846840481739
465,687.2670223465822
466,687.250319048666
467,687.2345411645535
468,687.2196525130795
469,687.2056143597454
470,687.1923860825793
471,687.1799258563598
472,687.1681913448151
473,687.1571403903533
474,687.1467316911486
475,687.1369254557251
476,687.1276840257941
477,687.1189724592846
478,687.1107590669315
479,687.1030158968208
480,687.0957191619227
481,687.0888496064424
482,687.0823928079461
483,687.0763394130838
484,687.0706853047834
485,687.0654316982242
486,687.060585162494
487,687.0561575651694
488,687.052165938042
489,687.0486322634358
490,687.0455831818373
491,687.043049622956
492,687.041066363965
493,687.039671520456
494,687.0389059773846
495,687.0388127690276
496,687.0394364191758
497,687.0408222557262
498,687.0430157167264
499,687.0460616665572
500,687.0500037408174
501,687.0548837369629
502,687.0607410651963
503,687.0676122706143
504,687.0755306335162
505,687.0845258506426
506,687.0946237964963
507,687.1058463610773
508,687.1182113585055
509,687.1317325002606
510,687.1464194270037
511,687.162277793478
512,687.1793094011286
513,687.1975123727381
514,687.2168813627706
515,687.237407796243
516,687.2590801277569
517,687.2818841112231
518,687.3058030703091
519,687.3308181600677
520,687.3569086117375
521,687.3840519551746
522,687.412224216165
523,687.4414000883598
524,687.4715530814865
525,687.5026556486703
526,687.5346792960502
527,687.5675946774846
528,687.6013716762644
529,687.6359794744195
530,687.6713866085371
531,687.7075610095014
532,687.7444700227727
533,687.7820804058634
534,687.8203583002494
535,687.859269175809
536,687.8987777470995
537,687.9388478624118
538,687.9794423683741
539,688.0205229546572
540,688.0620499849281
541,688.1039823213857
542,688.1462771507042
543,688.1888898190088
544,688.2317736828389
545,688.2748799823228
546,688.3181577424283
547,688.3615537083507
548,688.4050123214477
549,688.4484757419722
550,688.4918839237018
551,688.5351747435507
552,688.57828418714
553,688.6211465897219
554,688.6636949306126
555,688.7058611778201
556,688.7475766779526
557,688.7887725855769
558,688.8293803265134
559,688.8693320906293
560,688.908561350363
561,688.9470034004216
562,688.9845959118743
563,689.0212794913164
564,689.0569982341055
565,689.0917002602273
566,689.1253382218872
567,689.1578697732274
568,689.1892579944422
569,689.2194717644129
570,689.2484860768395
571,689.2762822944012
572,689.3028483345562
573,689.328178780363
574,689.352274910465
575,689.3751446435818
576,689.3968023942202
577,689.4172688382401
578,689.4365705896842
579,689.4547397932045
580,689.4718136384384
581,689.4878338034598
582,689.5028458347005
583,689.5168984712536
584,689.5300429223463
585,689.5423321079601
586,689.5538198741009
587,689.5645601959759
588,689.5746063840475
589,689.584010309204
590,689.5928216635126
591,689.6010872717306
592,689.6088504662441
593,689.6161505352804
594,689.6230222517919
595,689.6294954883033
596,689.6355949209773
597,689.6413398240883
598,689.6467439541677
599,689.6518155214627
600,689.6565572450671
601,689.6609664870244
602,689.6650354597905
603,689.6687515005287
604,689.6720974046257
605,689.6750518098585
606,689.6775896223169
607,689.6796824752528
608,689.6812992117823
609,689.6824063817583
610,689.6829687429173
611,689.682949757277
612,689.6823120756877
613,689.6810180057593
614,689.6790299602151
615,689.6763108838838
616,689.672824658422
617,689.6685364847054
618,689.6634132433853
619,689.6574238341333
620,689.6505394936729
621,689.6427340920309
622,689.6339844058957
623,689.6242703679512
624,689.613575291661
625,689.6018860717128
626,689.5891933605425
627,689.5754917210801
628,689.5607797555401
629,689.5450602098331
630,689.5283400527815
631,689.5106305287412
632,689.4919471816158
633,689.4723098478503
634,689.4517426161188
635,689.4302737522844
636,689.4079355896046
637,689.3847643855725
638,689.3608001478656
639,689.3360864325371
640,689.3106701174111
641,689.2846011523534
642,689.2579322862402
643,689.2307187690997
644,689.2030180276003
645,689.1748893126137
646,689.1463933186093
647,689.1175917760287
648,689.0885470195618
649,689.0593215369865
650,689.0299775042006
651,689.000576312117
652,688.9711780910122
653,688.9418412385245
654,688.9126219586872
655,688.8835738202633
656,688.854747342323
657,688.8261896136049
658,688.7979439509228
659,688.7700496017468
660,688.7425414968031
661,688.7154500589326
662,688.6888010737347
663,688.662615625714
664,688.636910101401
665,688.6116962591533
666,688.586981364477
667,688.5627683892294
668,688.5390562721506
669,688.5158402366811
670,688.4931121603898
671,688.4708609889353
672,688.4490731864817
673,688.4277332139701
674,688.4068240267005
675,688.3863275833204
676,688.3662253594869
677,688.346498860702
678,688.327130129315
679,688.3081022400262
680,688.2893997769
681,688.2710092839189
682,688.2529196812555
683,688.2351226407783
684,688.2176129160442
685,688.2003886231355
686,688.1834514688225
687,688.1668069223017
688,688.1504643270039
689,688.1344369499463
690,688.1187419674773
691,688.1034003875608
692,688.0884369098015
693,688.073879725238
694,688.0597602585526
695,688.0461128556833
696,688.0329744200205
697,688.0203840008846
698,688.0083823391303
699,687.9970113763569
700,687.9863137359756
701,687.9763321858916
702,687.9671090933622
703,687.958685882446
704,687.9511025034461
705,687.9443969222322
706,687.9386046357935
707,687.9337582191478
708,687.9298869077602
709,687.9270162188762
710,687.9251676148382
711,687.9243582113745
712,687.9246005332229
713,687.9259023178731
714,687.928266366327
715,687.9316904385482
716,687.9361671910913
717,687.9416841549153
718,687.9482237521245
719,687.9557633510769
720,687.9642753597485
721,687.9737273571013
722,687.9840822614985
723,687.9952985344637
724,688.0073304177398
725,688.0201282015889
726,688.0336385223711
727,688.0478046876124
728,688.0625670269384
729,688.0778632670829
730,688.0936289283129
731,688.109797738059
732,688.1263020558971
733,688.1430733030645
734,688.1600423897136
735,688.1771401338341
736,688.1942976666469
737,688.2114468198727
738,688.2285204905974
739,688.2454529798863
740,688.2621803023195
741,688.2786404653126
742,688.2947737191706
743,688.3105227809133
744,688.3258330364507
745,688.3406527260336
746,688.354933116778
747,688.3686286638854
748,688.3816971598318
749,688.3940998692624
750,688.4058016470801
751,688.4167710380555
752,688.4269803574922
753,688.4364057533774
754,688.4450272507294
755,688.4528287788983
756,688.4597981829987
757,688.4659272216156
758,688.4712115539838
759,688.475650720413
760,688.4792481194737
761,688.4820109845081
762,688.4839503607284
763,688.485081082584
764,688.4854217489473
765,688.4849946910372
766,688.4838259255572
767,688.4819450842856
768,688.4793853117478
769,688.4761831241156
770,688.4723782242204
771,688.4680132690155
772,688.4631335868893
773,688.4577868430915
774,688.4520226526347
775,688.4458921419985
776,688.4394474637763
777,688.4327412710751
778,688.4258261599541
779,688.418754088471
780,688.4115757808246
781,688.4043401253573
782,688.3970935759471
783,688.3898795672733
784,688.3827379551152
785,688.375704493031
786,688.3688103566587
787,688.3620817265365
788,688.3555394393229
789,688.3491987151913
790,688.3430689661141
791,688.337153686239
792,688.3314504219549
793,688.3259508159783
794,688.320640717615
795,688.3155003509003
796,688.3105045333415
797,688.3056229390342
798,688.3008203996035
799,688.2960572347022
800,688.2912896020479
801,688.2864698566783
802,688.2815469106131
803,688.2764665867732
804,688.2711719639132
805,688.265603711718
806,688.2597004164766
807,688.2533988975894
808,688.2466345143507
809,688.2393414622782
810,688.2314530593931
811,688.2229020247515
812,688.213620753209
813,688.203541591224
814,688.1925971184176
815,688.1807204390908
816,688.167845487529
817,688.1539073507413
818,688.1388426118574
819,688.1225897163532
820,688.1050893617162
821,688.086284909535
822,688.066122817694
823,688.0445530894943
824,688.0215297359237
825,687.9970112465236
826,687.9709610630208
827,687.9433480482531
828,687.9141469416184
829,687.8833387918253
830,687.8509113581035
831,687.816859471897
832,687.7811853521849
833,687.7438988689366
834,687.7050177507897
835,687.6645677345983
836,687.6225826558044
837,687.5791044796899
838,687.5341832745896
839,687.487877128872
840,687.4402520137064
841,687.3913815935185
842,687.3413469860296
843,687.2902364740806
844,687.2381451719601
845,687.1851746494661
846,687.1314325172436
847,687.077031976869
848,687.0220913385738
849,686.9667335084478
850,686.9110854456812
851,686.8552775893281
852,686.799443253626
853,686.7437179913188
854,686.6882389254844
855,686.6331440515046
856,686.5785715116762
857,686.5246588456253
858,686.471542220532
859,686.4193556463149
860,686.3682301820919
861,686.318293141037
862,686.2696673010296
863,686.2224701283718
864,686.1768130215388
865,686.1328005815116
866,686.0905299146568
867,686.0500899735003
868,686.0115609404129
869,685.9750136593565
870,685.9405091213497
871,685.9080980100581
872,685.8778203146269
873,685.8497050171031
874,685.8237698612203
875,685.8000212081881
876,685.7784539840648
877,685.7590517225825
878,685.7417867066906
879,685.7266202112023
880,685.7135028477304
881,685.702375011641
882,685.6931674291536
883,685.6858018011259
884,685.6801915386727
885,685.6762425845591
886,685.6738543130383
887,685.6729204992671
888,685.6733303476223
889,685.6749695666243
890,685.6777214772499
891,685.6814681411404
892,685.6860914949717
893,685.6914744766113
894,685.6975021279093
895,685.7040626588552
896,685.7110484591581
897,685.7183570458853
898,685.7258919385309
899,685.7335634550118
900,685.7412894237344
901,685.7489958080895
902,685.7566172401883
903,685.7640974605179
904,685.7713896603386
905,685.7784567248377
906,685.7852713771066
907,685.7918162250977
908,685.7980837150592
909,685.8040759954251
910,685.8098046948708
911,685.8152906174187
912,685.8205633567518
913,685.8256608321396
914,685.8306287497488
915,685.8355199946409
916,685.8403939595225
917,685.8453158162681
