acceleration,velocity,displacement
0.027281657496456564,0.0,0.0
0.02602478690329105,1.3326611099936905e-05,3.3316527749842263e-09
0.024771186883800006,2.602560454670967e-05,1.3169706686645871e-08
0.023524107246395483,3.809942807925854e-05,2.9200964843137925e-08
0.022286756445860634,4.955214400232257e-05,5.11138578635332e-08
0.02106228134860476,6.038940345093891e-05,7.859924472684857e-08
0.019853747524304025,7.06184106691661e-05,1.1135119825687482e-07
0.018664120228882374,8.02478776074627e-05,1.4906777032603202e-07
0.017496246232706812,8.928796922286e-05,1.914517320336127e-07
0.01635283663489051,9.775023993975932e-05,2.3821128432426752e-07
0.01523645078998007,0.00010564756179597697,2.890607347582016e-07
0.014149481456767983,0.00011299404485766398,3.4372113642161187e-07
0.013094141259747455,0.00011980495053679284,4.019208852702261e-07
0.012072450533498912,0.00012609659848510443,4.633962725257004e-07
0.011086226601636398,0.00013188626776888826,5.278919890891986e-07
0.010137074526679606,0.00013719209305096725,5.951615792941625e-07
0.009226379353907275,0.00014203295652111397,6.649678416871828e-07
0.008355299860043673,0.0001464283763246017,7.370831748986117e-07
0.007524763810118601,0.00015039839224214227,8.112898670402978e-07
0.006735464724088449,0.00015396344937569403,8.873803274447568e-07
0.0059878601519372954,0.00015714428059470048,9.651572599373554e-07
0.005282171445916607,0.00015996178849416395,1.0444337772095715e-06
0.004618385008332098,0.00016243692760772613,1.125033456235044e-06
0.003996254993523053,0.0001645905876081899,1.206790335039023e-06
0.0034153074538440277,0.00016644347822003167,1.2895488514960784e-06
0.0028748459337677792,0.00016801601656693462,1.37316372519282e-06
0.002373958528231258,0.00016932821768243436,1.4574997837551622e-06
0.0019115264259972156,0.0001703995889209915,1.5424317354060188e-06
0.0014862339483269048,0.0001712490290145725,1.6278438898899097e-06
0.001096580066602032,0.00017189473251830474,1.713629830273129e-06
0.0007408913509277354,0.00017235410037268718,1.7996920384958768e-06
0.0004173362753829479,0.00017264365727926486,1.8859414779088649e-06
0.00012394078365737126,0.00017277897654402493,1.9722971363646874e-06
-0.00014139500247555532,0.00017277461298932038,2.058685533748024e-06
-0.0003808790702896157,0.00017264404447112907,2.145040198113136e-06
-0.0005968089590828985,0.00017239962246378595,2.231301114846865e-06
-0.0007915525461372466,0.0001720525320874809,2.3174141534846816e-06
-0.0009675283951016192,0.0001716127618521712,2.4033304769695947e-06
-0.0011271859161332827,0.00017108908327436245,2.4890059382512282e-06
-0.0012729856019018046,0.00017048904039485368,2.5744004691685322e-06
-0.0014073795964955602,0.00016981894909525434,2.659477466541059e-06
-0.0015327928318795564,0.00016908390598816057,2.7442031803119127e-06
-0.0016516049402252619,0.00016828780654513437,2.8285461084452366e-06
-0.00176613312587254,0.0001674333720286099,2.9124764030886726e-06
-0.001878616157720459,0.00016652218470771167,2.995965292272753e-06
-0.0019911996207885216,0.00016555473076308442,3.078984521140452e-06
-0.0021059225440854252,0.00016453045022186594,3.1615058163866897e-06
-0.002224705497220791,0.0001634477932115394,3.243500377245041e-06
-0.002349340214873279,0.00016230428178351587,3.324938395993805e-06
-0.0024814807672039066,0.00016109657653799657,3.405788610574183e-06
-0.002622636256726319,0.00015982054728201403,3.4860178915291855e-06
-0.002774164997945155,0.00015847134696834615,3.5655908650917756e-06
-0.0029372701264041225,0.00015704348818725884,3.6444695738806767e-06
-0.0031129965839102516,0.00015553092150968025,3.7226131763049116e-06
-0.0033022294313288176,0.0001539271150058705,3.7999776854337993e-06
-0.0035056934465022174,0.00015222513428641272,3.87651574775687e-06
-0.0037239539728453792,0.00015041772243157582,3.952176461936367e-06
-0.003957418991198261,0.00014849737919056492,4.026905237341902e-06
-0.00420634238641979,0.00014645643884616042,4.100643691851083e-06
-0.004470828367432713,0.0001442871461576973,4.173329588102048e-06
-0.0047508369785687335,0.00014198172982119695,4.2448968070967716e-06
-0.005046190617917219,0.00013953247292207546,4.315275357782589e-06
-0.0053565814614449404,0.0001369317799022349,4.384391420988667e-06
-0.0056815796840781994,0.00013417223961585412,4.452167425868189e-06
-0.006020642369329526,0.0001312466841025022,4.5185221567977775e-06
-0.0063731230012305275,0.00012814824275986217,4.583370888513368e-06
-0.006738281431213603,0.00012487039165175114,4.6466255471162715e-06
-0.0071152942101933405,0.0001214069977413994,4.708194894464559e-06
-0.007503265178305468,0.00011775235789427469,4.7679847333734775e-06
-0.007901236211662641,0.00011390123254678266,4.825898130983742e-06
-0.00830819802914471,0.00010984887398658082,4.881835657617083e-06
-0.008723100955060679,0.00010559104924052947,4.93569563842386e-06
-0.00914486551684154,0.00010112405762255392,4.987374415139631e-06
-0.009572392735634951,9.64447430594348e-05,5.036766615310128e-06
-0.010004573946497989,9.155050138890156e-05,5.083765426422212e-06
-0.010440299971611526,8.643928290937418e-05,5.128262872496781e-06
-0.01087846947617318,8.1109590547428e-05,5.170150090860982e-06
-0.011317996367197549,7.556047408658533e-05,5.209317607019485e-06
-0.01175781614429315,6.979152095871265e-05,5.24565560578081e-06
-0.012196891166908128,6.380284413091233e-05,5.2790541970532154e-06
-0.012634214852029294,5.759506762617797e-05,5.309403674992488e-06
-0.013068814850792466,5.116931020047253e-05,5.336594769449151e-06
-0.013499755272360569,4.452716766968427e-05,5.36051888891669e-06
-0.01392613803556516,3.767069434270284e-05,5.381068354419787e-06
-0.014347103436550194,3.0602383974674e-05,5.398136623999132e-06
-0.014761830023744248,2.3325150609600388e-05,5.4116185076452006e-06
-0.015169533871307534,1.5842309635837442e-05,5.42141037270656e-06
-0.015569467343239385,8.157559332200714e-06,5.42741033994857e-06
-0.015960917447548035,2.749631345038586e-07,5.429518470565246e-06
-0.016343203894940893,-7.801067201118375e-06,5.4276369445485924e-06
-0.016715676992248976,-1.606578742291584e-05,5.421670230892584e-06
-0.01707771550148822,-2.451413554635014e-05,5.4115252501502676e-06
-0.017428724573565788,-3.3140745565113646e-05,5.397111529872402e-06
-0.017768133832002844,-4.1939960166505805e-05,5.378341353439497e-06
-0.018095395654941965,-5.090584253824201e-05,5.35512990276331e-06
-0.01840998369202719,-6.00321873749843e-05,5.327395395285003e-06
-0.018711391654469875,-6.931253121160857e-05,5.295059215638355e-06
-0.018999132423692004,-7.874016223114904e-05,5.258046042277665e-06
-0.019272737526046444,-8.830812971858365e-05,5.216283969290232e-06
-0.019531757010195622,-9.800925335264416e-05,5.169704623522425e-06
-0.01977575973867649,-0.0001078361325398622,5.118243277049298e-06
-0.020004334071546264,-0.00011778115599241789,5.061838954916228e-06
-0.020217088885950096,-0.000127836511731792,5.000434537985175e-06
-0.02041365484792528,-0.00013799419766526085,4.9339768606359126e-06
-0.020593685835939186,-0.00014824603283622697,4.862416803010541e-06
-0.02075686041184085,-0.000158583669398172,4.7857093774519414e-06
-0.020902883245679953,-0.00016899860531255218,4.70381380877426e-06
-0.02103148642346977,-0.00017948219772983962,4.616693608013662e-06
-0.02114243059475499,-0.0001900256769843958,4.524316639335103e-06
-0.021235505942223037,-0.0002006201611186403,4.426655179809344e-06
-0.021310532974130922,-0.0002112566708477288,4.323685971817752e-06
-0.021367363152030465,-0.00022192614487926915,4.215390267886002e-06
-0.02140587937532831,-0.00023261945551110883,4.101753867788408e-06
-0.02142599635271252,-0.00024332742444311905,3.982767147799851e-06
-0.021427660894886735,-0.00025404083875501886,3.858425082000317e-06
-0.021410852161299777,-0.00026475046701906547,3.728727255556796e-06
-0.02137558189026377,-0.00027544707553195635,3.5936778699190406e-06
-0.021321894641688176,-0.0002861214446649443,3.4532857398698153e-06
-0.021249868083421615,-0.00029676438534622176,3.3075642823670237e-06
-0.021159613354337026,-0.0003073667557056614,3.156531497104053e-06
-0.021051275542880436,-0.0003179194779299658,3.0002099386951463e-06
-0.020925034327556505,-0.00032841355539757505,2.838626680363261e-06
-0.020781104826047694,-0.0003388400901859761,2.6718132689673733e-06
-0.020619738685264306,-0.00034919030106380413,2.4998056711549284e-06
-0.020441225418424143,-0.00035945554208972625,2.3226442103665455e-06
-0.020245893963561794,-0.00036962732193522276,2.1403734943603084e-06
-0.020034114404397903,-0.0003796973240272127,1.9530423328696996e-06
-0.019806299764032368,-0.00038965742756932024,1.7607036449705664e-06
-0.019562907761652357,-0.00039949972945074145,1.563414355715551e-06
-0.019304442418236326,-0.0004092165669957136,1.3612352816039372e-06
-0.019031455408688495,-0.0004188005414524448,1.1542310044918976e-06
-0.0187445470756207,-0.0004282445420735221,9.424697336104058e-07
-0.018444367032690555,-0.00043754177060059994,7.260231554418752e-07
-0.018131614291881582,-0.000446685765931743,5.049662713087894e-07
-0.017807036857789765,-0.00045567042871916085,2.7937722264606346e-07
-0.017471430749489075,-0.00046449004562098054,4.9337104061028135e-08
-0.01712563843543857,-0.00047313931291721246,-1.8507023557352011e-07
-0.016770546695235537,-0.000481613359199881,-4.237584036027935e-07
-0.01640708395029174,-0.0004899077668612628,-6.666386851180795e-07
-0.016036217127192012,-0.0004980185921306337,-9.136202748660536e-07
-0.015658948124073244,-0.0005059423834434501,-1.1646105187595745e-06
-0.01527630993989931,-0.0005136761979594432,-1.4195151641102977e-06
-0.014889362508848415,-0.0005212176160716302,-1.678238617618066e-06
-0.014499188270151139,-0.0005285647537663801,-1.9406842100775687e-06
-0.014106887501015946,-0.0005357162727091719,-2.2067544666964567e-06
-0.013713573440695632,-0.0005426713879445997,-2.4763513818598996e-06
-0.013320367233363894,-0.0005494298731131146,-2.7493766971243283e-06
-0.012928392718350099,-0.0005559920631010431,-3.025732181177868e-06
-0.012538771097851642,-0.0005623588540550936,-3.3053199104669023e-06
-0.012152615509113639,-0.0005685317007068349,-3.5880425491573845e-06
-0.0117710255184707,-0.000574512610963731,-3.873803627075026e-06
-0.011395081545139872,-0.0005803041377296336,-4.162507814248367e-06
-0.01102583922051161,-0.0005859093679210465,-4.4540611906610375e-06
-0.01066432369438885,-0.0005913319086497716,-4.748371509803742e-06
-0.010311523910646157,-0.0005965758705510304,-5.0453484546039425e-06
-0.009968386889010356,-0.0006016458482509445,-5.344903884304436e-06
-0.009635812062581689,-0.0006065468979888425,-5.646952070864383e-06
-0.00931464572731757,-0.0006112845124363173,-5.951409923470673e-06
-0.00900567566081675,-0.0006158645927833509,-6.25819719977559e-06
-0.00870962596965671,-0.0006202934181909692,-6.56723670251917e-06
-0.008427152227462537,-0.000624577612740249,-6.878454460251974e-06
-0.008158836962788246,-0.0006287241100378118,-7.19177989094649e-06
-0.007905185544081475,-0.0006327401156645292,-7.507145947372075e-06
-0.007666622496243854,-0.0006366330676746105,-7.82448924320686e-06
-0.007443488276988099,-0.0006404105953679185,-8.143750158967493e-06
-0.007236036539777237,-0.0006440804765721098,-8.464872926952499e-06
-0.007044431906899543,-0.0006476505936837789,-8.78780569451647e-06
-0.006868748267674024,-0.0006511288887274223,-9.11250056511927e-06
-0.0067089676049517976,-0.0006545233176955788,-9.43891361672502e-06
-0.0065649793432016,-0.0006578418044326171,-9.767004897257069e-06
-0.006436580207102353,-0.0006610921943201931,-1.0096738396945272e-05
-0.006323474579726248,-0.0006642822080169002,-1.0428081997529545e-05
-0.0062252753505066,-0.0006674193954994584,-1.0761007398408635e-05
-0.006141505244384709,-0.0006705110906481813,-1.1095490019945544e-05
-0.006071598627775249,-0.0006735643666162213,-1.1431508884261645e-05
-0.006014903793790706,-0.0006765859922216128,-1.1769046473971104e-05
-0.005970685729218849,-0.0006795823896023651,-1.2108088569427098e-05
-0.005938129352059416,-0.0006825595933726847,-1.2448624065170861e-05
-0.005916343190802742,-0.0006855232115084002,-1.2790644766391133e-05
-0.00590436347449259,-0.000688478388174724,-1.3134145166311914e-05
-0.005901158623921471,-0.0006914297686993275,-1.3479122205530427e-05
-0.005905634170742245,-0.0006943814668979935,-1.3825575014429757e-05
-0.00591663817054171,-0.0006973370349833144,-1.4173504639900085e-05
-0.00593296720865527,-0.0007002994363281137,-1.4522913757727941e-05
-0.005953373112780404,-0.0007032710214084725,-1.4873806372162087e-05
-0.00597657047280745,-0.0007062535073048696,-1.5226187504340423e-05
-0.006001245023024456,-0.0007092479611788275,-1.5580062871461346e-05
-0.006026062874900629,-0.0007122547881533087,-1.593543855879438e-05
-0.00604968051683117,-0.0007152737240012417,-1.6292320686833018e-05
-0.006070755439174964,-0.0007183038329902432,-1.665071507608089e-05
-0.006087957210814034,-0.0007213435111527404,-1.7010626912116635e-05
-0.0060999788233757225,-0.0007243904951612878,-1.7372060413695143e-05
-0.006105548116474336,-0.0007274418768962504,-1.7735018506709527e-05
-0.006103439092177173,-0.0007304941236984132,-1.8099502506858194e-05
-0.006092482923496149,-0.0007335431042023316,-1.846551181383338e-05
-0.006071578471306034,-0.0007365841195510321,-1.8833043619771722e-05
-0.006039702152662735,-0.0007396119397070244,-1.9202092634586237e-05
-0.005995917044805005,-0.0007426208445063913,-1.957265083063959e-05
-0.005939381145367146,-0.0007456046690539343,-1.994470720902967e-05
-0.005869354724310455,-0.0007485568530213537,-2.0318247589548494e-05
-0.005785206697647277,-0.0007514704933768431,-2.0693254426148044e-05
-0.005686419945606224,-0.0007543384000376566,-2.1069706649501668e-05
-0.0055725955043507995,-0.0007571531539001458,-2.144757953798612e-05
-0.005443455579393008,-0.0007599071666710818,-2.1826844618128927e-05
-0.005298845349867438,-0.0007625927419033969,-2.2207469595272545e-05
-0.0051387335499568955,-0.0007652021366283529,-2.258941831490548e-05
-0.004963211827388515,-0.0007677276229726893,-2.297265075480574e-05
-0.004772492889162842,-0.0007701615491518272,-2.335712304783687e-05
-0.004566907450882597,-0.0007724963992368386,-2.3742787534934036e-05
-0.004346900012970362,-0.0007747248511028018,-2.4129592847518946e-05
-0.004113023504407371,-0.0007768398319821462,-2.4517484018290182e-05
-0.003865932866645451,-0.0007788345710749094,-2.4906402619054448e-05
-0.0036063776876098957,-0.0007807026487134732,-2.5296286924001542e-05
-0.003335194020972212,-0.0007824380416406188,-2.5687072096590064e-05
-0.003053295529602894,-0.0007840351640282625,-2.6078690398007284e-05
-0.0027616640773320284,-0.0007854889039299963,-2.647107141499685e-05
-0.002461339869540027,-0.0007867946549167142,-2.6864142304708526e-05
-0.0021534112195926215,-0.0007879483426889974,-2.7257828054109954e-05
-0.0018390040039015622,-0.0007889464464948709,-2.765205175140592e-05
-0.0015192708709756589,-0.0007897860152135903,-2.8046734866833037e-05
-0.0011953802894561303,-0.0007904646780036982,-2.844179754013736e-05
-0.000868505546850782,-0.0007909806494627748,-2.8837158872003977e-05
-0.0005398138316065111,-0.0007913327293073892,-2.9232737216696517e-05
-0.0002104555401951364,-0.0007915202966503396,-2.962845047318595e-05
0.00011844605080376824,-0.0007915432990226874,-3.0024216372104206e-05
0.00044580461858508534,-0.0007914022363553402,-3.0419952755948715e-05
0.0007705800237784306,-0.0007910981401947493,-3.081557785008624e-05
0.0010917868473396225,-0.0007906325484769698,-3.1211010522254166e-05
0.0014085021628839737,-0.0007900074762244139,-3.1606170528429514e-05
0.0017198724814788847,-0.0007892253825633232,-3.200097874312645e-05
0.0020251198068180643,-0.0007882891344912489,-3.239535737239009e-05
0.0023235467309079692,-0.0007872019678568174,-3.2789230147977106e-05
0.0026145404852335723,-0.0007859674460527821,-3.3182522501454506e-05
0.0028975758497837975,-0.0007845894169690278,-3.357516171720996e-05
0.003172216827590364,-0.0007830719687996842,-3.396707706365214e-05
0.003438117021552661,-0.0007814193853373985,-3.435819990218641e-05
0.003695018691777196,-0.000779636101409066,-3.4748463773873024e-05
0.003942750509749667,-0.0007777266591086844,-3.5137804464002465e-05
0.004181224057987337,-0.0007756956654667501,-3.5526160045146324e-05
0.004410429158370575,-0.0007735477521626607,-3.591347089955368e-05
0.004630428150923558,-0.0007712875378353372,-3.629967972205318e-05
0.004841349280117742,-0.0007689195934775768,-3.6684731504881404e-05
0.005043379371775502,-0.0007664484113146036,-3.706857350607945e-05
0.0052367559989040255,-0.0007638783774719337,-3.7451155203276085e-05
0.005421759340726179,-0.0007612137486370261,-3.7832428234803324e-05
0.005598703937947494,-0.0007584586328173577,-3.8212346330166916e-05
0.005767930541752639,-0.0007556169741974327,-3.859086523192062e-05
0.0059297982440486745,-0.0007526925420009823,-3.896794261097022e-05
0.006084677056387415,-0.0007496889231758733,-3.9343537977264434e-05
0.006232941068434016,-0.000746609518644668,-3.971761258771957e-05
0.006374962267588229,-0.0007434575428106624,-4.0090129353083404e-05
0.0065111050563576205,-0.0007402360259796759,-4.046105274528099e-05
0.006641721476591202,-0.0007369478193464387,-4.0830348706612515e-05
0.006767147137174622,-0.0007335956021929973,-4.119798456199737e-05
0.006887697834795789,-0.0007301818909500046,-4.156392893528312e-05
0.007003666851960687,-0.0007267090497783156,-4.1928151670465205e-05
0.00711532291143657,-0.0007231793023374663,-4.229062375849415e-05
0.007222908762279777,-0.0007195947444190372,-4.265131727018328e-05
0.007326640372457881,-0.0007159573571353528,-4.301020529557187e-05
0.007426706705701185,-0.0007122690203658131,-4.336726188994717e-05
0.0075232700580894875,-0.0007085315261748654,-4.3722462026582336e-05
0.007616466918400771,-0.0007047465919307428,-4.407578155610874e-05
0.00770640929972449,-0.0007009158728762115,-4.4427197172310475e-05
0.007793186476157552,-0.000697040973932241,-4.477668638401259e-05
0.007876867051579035,-0.0006931234605503068,-4.512422749263322e-05
0.007957501288607257,-0.0006891648684652602,-4.5469799574887116e-05
0.0080351236332113,-0.0006851667122348056,-4.5813382470062135e-05
0.008109755377306793,-0.0006811304924821761,-4.615495677124138e-05
0.008181407401017126,-0.0006770577017875951,-4.649450381980882e-05
0.008250082928429518,-0.0006729498292052334,-4.6832005702557026e-05
0.00831578022291286,-0.0006688083634173977,-4.716744525071269e-05
0.008378495147436618,-0.0006646347945748103,-4.750080604021074e-05
0.008438223525414837,-0.0006604306149065975,-4.783207239258109e-05
0.008494963257273952,-0.0006561973182109252,-4.816122937586047e-05
0.008548716170523796,-0.0006519363983539758,-4.848826280500169e-05
0.008599489597468108,-0.0006476493469119778,-4.881315924131818e-05
0.008647297679735667,-0.0006433376500926769,-4.913590599056934e-05
0.008692162394999156,-0.0006390027850739932,-4.945649109936101e-05
0.008734114296134398,-0.0006346462159012098,-4.977490334960481e-05
0.00877319295290878,-0.000630269389088949,-5.009113225085235e-05
0.008809447091922782,-0.0006258737290777411,-5.0405168030394025e-05
0.008842934440154191,-0.0006214606336947218,-5.071700162108714e-05
0.008873721290908972,-0.000617031469761956,-5.1026624646951306e-05
0.008901881826340797,-0.0006125875689826435,-5.133402940663746e-05
0.008927497242234014,-0.0006081302242154998,-5.163920885493699e-05
0.008950654722536646,-0.0006036606862243072,-5.194215658254694e-05
0.00897144630278372,-0.0005991801609679771,-5.224286679434501e-05
0.008989967649073121,-0.0005946898074800129,-5.254133428645701e-05
0.009006316770277368,-0.0005901907363751752,-5.283755442242081e-05
0.009020592677738595,-0.0005856840090131712,-5.3131523108767894e-05
0.009032894002552515,-0.0005811706373430984,-5.342323677035696e-05
0.009043317571271572,-0.0005766515844496424,-5.371269232580515e-05
0.009051956933986903,-0.0005721277658233278,-5.399988716337339e-05
0.009058900846003663,-0.0005676000513783301,-5.4284819117673806e-05
0.0090642317273411,-0.0005630692682349939,-5.456748644757714e-05
0.009068024151876922,-0.0005585362042651894,-5.4847887815702186e-05
