frame_number,force
0,738.4213300000536
1,737.9661168824531
2,737.5266316950481
3,737.1173594241442
4,736.7504755517261
5,736.4350883842582
6,736.1768529506461
7,735.9779448857788
8,735.8373238726525
9,735.7511875829093
10,735.7135219374502
11,735.716684651908
12,735.7519997337263
13,735.8103665494572
14,735.8828810144994
15,735.9614347631406
16,736.0392291209185
17,736.1111410561451
18,736.1739076581906
19,736.2261284371816
20,736.2680991066236
21,736.3014896013381
22,736.3288820846467
23,736.3532037171365
24,736.3771172198241
25,736.4024517192864
26,736.4297527669281
27,736.4580051515672
28,736.4845539859784
29,736.5052347388526
30,736.514712415858
31,736.5070074169031
32,736.4761584216238
33,736.4169569937109
34,736.3256771928079
35,736.2007041087002
36,736.0429518593601
37,735.8559794630091
38,735.6457674303466
39,735.4201891637882
40,735.1882669654683
41,734.959318169566
42,734.7420777123565
43,734.543860112357
44,734.3698200874304
45,734.2223833840745
46,734.100930338989
47,734.0018095477973
48,733.9187268187175
49,733.8434927194106
50,733.7670392742618
51,733.6805658533235
52,733.5766639386271
53,733.4502886789825
54,733.2994664613074
55,733.1256384093859
56,732.9335557521827
57,732.7306997463711
58,732.5263041009404
59,732.3301614170063
60,732.1514325355897
61,731.997639146295
62,731.8739497629621
63,731.7828076659068
64,731.7239055457264
65,731.694478639607
66,731.6898564839853
67,731.7041760980665
68,731.7311277807277
69,731.7646068092216
70,731.7991917766367
71,731.8304388250612
72,731.8550325356341
73,731.8708480838972
74,731.8769611856254
75,731.8736122899185
76,731.8621081167718
77,731.8446394705484
78,731.8240136205247
79,731.8033308303297
80,731.7856529556519
81,731.7737035990659
82,731.7696192549553
83,731.7747639078653
84,731.7896280756959
85,731.8138381988223
86,731.8462888610752
87,731.885384954656
88,731.9293639453446
89,731.9766677519021
90,732.0263322560536
91,732.0783443358553
92,732.1338923327576
93,732.1954290955805
94,732.2664886844485
95,732.3512445568942
96,732.4538560320731
97,732.5777068173799
98,732.7246806473023
99,732.8946292558849
100,733.0851569904432
101,733.2917812115304
102,733.508447125293
103,733.7282969741235
104,733.9445325594775
105,734.1511908235434
106,734.3436932409766
107,734.5191138566706
108,734.6761894231117
109,734.8151354827195
110,734.9373428581982
111,735.0450323112595
112,735.1409423118266
113,735.2280976568421
114,735.3096503913878
115,735.3887284266372
116,735.4682129748627
117,735.5504098590684
118,735.6366613706963
119,735.7270202937221
120,735.8201275445256
121,735.9133742724396
122,736.0033157940117
123,736.0862106544453
124,736.1585396443385
125,736.2174114420872
126,736.2608361350175
127,736.2878968451892
128,736.2988510547989
129,736.2951651343022
130,736.2794663714274
131,736.2554014041884
132,736.2274035515043
133,736.2003815273763
134,736.1793508298205
135,736.1690414445158
136,736.1735290040409
137,736.1959393191531
138,736.2382567294763
139,736.3012337354505
140,736.3843783913707
141,736.4860004317707
142,736.6033158208387
143,736.7326188263737
144,736.86951421213
145,737.0091712928005
146,737.1465542443547
147,737.2766167874989
148,737.3944892990185
149,737.495686604882
150,737.5763268381849
151,737.6333194795927
152,737.6644873618773
153,737.6686237606668
154,737.6455149178998
155,737.5959556917921
156,737.521757857481
157,737.4257179432517
158,737.3114923250922
159,737.1833375667704
160,737.0457230087874
161,736.9028926632182
162,736.7584980213463
163,736.6154045075489
164,736.4757003980354
165,736.3408545130153
166,736.2119227065338
167,736.0897098797528
168,735.974841441436
169,735.8677544534092
170,735.7686508906959
171,735.6774500812454
172,735.5937518457985
173,735.5168099438637
174,735.4455324389397
175,735.3785473086173
176,735.3143631780259
177,735.2516159491946
178,735.1893505922172
179,735.1272648341156
180,735.0658463147781
181,735.0063692087895
182,734.9507662054036
183,734.9014262241442
184,734.8609670429655
185,734.83200768789
186,734.8169458755165
187,734.8177394318844
188,734.8356882750854
189,734.8712159209863
190,734.9236638432614
191,734.9911319781038
192,735.0704111423476
193,735.1570522329885
194,735.2456008961104
195,735.3299973894949
196,735.4041084082645
197,735.4623270481819
198,735.5001536796346
199,735.5146651475375
200,735.5047986640444
201,735.4714106496402
202,735.4171068426245
203,735.3458766389635
204,735.2626038050091
205,735.1725556246084
206,735.0809482758912
207,734.9926364256156
208,734.9119083556856
209,734.8423361678636
210,734.7866539714262
211,734.7466828571914
212,734.7233456649816
213,734.7168023831401
214,734.7266989198049
215,734.7524748284146
216,734.7936405406118
217,734.8499330363096
218,734.9212945444602
219,735.0076743603113
220,735.1087066400812
221,735.2233509025349
222,735.3495907779837
223,735.4842741546361
224,735.6231463489158
225,735.7610768345022
226,735.8924281405726
227,736.011494917764
228,736.1129573353828
229,736.1923179807704
230,736.2463009172661
231,736.2731861936343
232,736.2730461174148
233,736.2478502450728
234,736.2014160349092
235,736.1391970274019
236,736.0679106384263
237,735.9950095981906
238,735.9280092932152
239,735.8737143246756
240,735.8374332012957
241,735.8223028454765
242,735.82884544755
243,735.854849443798
244,735.8956141937997
245,735.9445336960529
246,735.9939286263019
247,736.0359869802287
248,736.0636633184619
249,736.0714177595943
250,736.0557230813296
251,736.0153031621904
252,735.9510896944821
253,735.8659195402129
254,735.7640455163641
255,735.6505689107192
256,735.53089411163
257,735.4102607250115
258,735.2933625620099
259,735.184047650583
260,735.0851055463553
261,734.9981575730685
262,734.9236572557463
263,734.8609959067808
264,734.8087018486813
265,734.7647128383625
266,734.7266890832732
267,734.6923301835784
268,734.6596623139817
269,734.6272607087814
270,734.594371370371
271,734.5609096615153
272,734.5273393263069
273,734.49445551722
274,734.4631039593262
275,734.4338764072872
276,734.4068345947338
277,734.3813197141732
278,734.3558916772231
279,734.328415186247
280,734.296278441613
281,734.2567043612878
282,734.2071009729768
283,734.145399630154
284,734.0703398045739
285,733.981668888574
286,733.8802338362975
287,733.7679493032334
288,733.6476350402021
289,733.5227326069233
290,733.3969437443228
291,733.2738639860347
292,733.1566917529085
293,733.0480717070441
294,732.9500932880622
295,732.8644201020578
296,732.7924850586652
297,732.7356707958724
298,732.6954158119643
299,732.6732271543484
300,732.6706104963881
301,732.6889356175279
302,732.7292522596306
303,732.792072157415
304,732.8771380884933
305,732.9832067287468
306,733.1078818699676
307,733.2475498249019
308,733.3974763317466
309,733.5521011821536
310,733.70550950332
311,733.8519963627732
312,733.9866104729884
313,734.1055748670899
314,734.2065229336598
315,734.2885350715436
316,734.3519969404094
317,734.3983165019622
318,734.429541143206
319,734.4479264704651
320,734.4555300709005
321,734.4539153849795
322,734.4440279691734
323,734.4262529794476
324,734.400610349379
325,734.3670202952741
326,734.3255788218453
327,734.2768048683307
328,734.2218372816498
329,734.1625577448895
330,734.1016044192206
331,734.0422484733443
332,733.9881416873337
333,733.9429827605444
334,733.9101673936948
335,733.8924833789791
336,733.8918984822469
337,733.9094725242732
338,733.9454079096417
339,733.9992320830487
340,734.0700761744548
341,734.1569802877103
342,734.2591325386123
343,734.375953139401
344,734.5069754868335
345,734.6515458568188
346,734.8084354630438
347,734.9754986247299
348,735.1494982857334
349,735.326165060976
350,735.5004863348444
351,735.667159363326
352,735.821100865619
353,735.9578992223245
354,736.0741266260628
355,736.1674802255868
356,736.2367701661132
357,736.2818022552989
358,736.3032072604998
359,736.3022528147578
360,736.2806549173678
361,736.2404012120395
362,736.1836072793275
363,736.112433744192
364,736.0290822207538
365,735.9358621685299
366,735.8352910348196
367,735.7301724670976
368,735.6236000109319
369,735.5188524825761
370,735.4191742651906
371,735.3274662877135
372,735.2459457353037
373,735.1758481079634
374,735.1172338022029
375,735.0689344768422
376,735.0286495154852
377,734.9931840390784
378,734.9588009085393
379,734.9216349786443
380,734.8780953856192
381,734.8251809524519
382,734.760668860404
383,734.6831938821771
384,734.5922789552254
385,734.4883799305074
386,734.3729711560819
387,734.2486495551224
388,734.1191959271412
389,733.9895164602401
390,733.8654026043653
391,733.7530891483566
392,733.6586403730563
393,733.5872372016909
394,733.5424700770762
395,733.5257603815561
396,733.5360325115618
397,733.5697334942399
398,733.6212415982482
399,733.6836226177459
400,733.749605586125
401,733.812596058231
402,733.8675494708946
403,733.9115784082373
404,733.9442301571542
405,733.967418987572
406,733.9850308167757
407,734.0022499483882
408,734.0246987329265
409,734.0575234076089
410,734.1045785207708
411,734.1678418224533
412,734.2471390359613
413,734.34019397782
414,734.4429610314168
415,734.5501543547471
416,734.6558715995584
417,734.7542269334529
418,734.8399443653658
419,734.908882845792
420,734.958455771549
421,734.9878962529611
422,734.9983316536773
423,734.9926566603505
424,734.9752139484361
425,734.9513101789985
426,734.9266239360642
427,734.9065895868888
428,734.8958482739047
429,734.8978442302619
430,734.9146184335734
431,734.9468117652227
432,734.9938400721327
433,735.0541640742836
434,735.1255728069046
435,735.2054344975239
436,735.290916586021
437,735.3791980138702
438,735.4676774612986
439,735.5541497779823
440,735.6369187330301
441,735.7148370242305
442,735.7872836904571
443,735.8540933794915
444,735.9154531583418
445,735.971784777182
446,736.0236304931194
447,736.0715633773875
448,736.1161460043534
449,736.157946747962
450,736.1975892582518
451,736.2357880132132
452,736.2733327034746
453,736.3110118719749
454,736.3494887784774
455,736.3891562357986
456,736.4300054917094
457,736.4715438440721
458,736.5127853226404
459,736.5523251039236
460,736.5884968260339
461,736.619599926804
462,736.6441671318555
463,736.6612234503978
464,736.6704772367482
465,736.6723895211193
466,736.6680913188551
467,736.6591537036695
468,736.6472520179695
469,736.6337931915434
470,736.6195858325453
471,736.6046270551974
472,736.588063977249
473,736.5683604723246
474,736.5436541009161
475,736.5122290817368
476,736.4729839249777
477,736.4257659125321
478,736.3714865749824
479,736.3120026977891
480,736.2498144773767
481,736.1876723230874
482,736.1281903610694
483,736.0735451014166
484,736.0253017476682
485,735.9843710422869
486,735.9510732347644
487,735.9252766320831
488,735.9065704076338
489,735.8944189958164
490,735.8882501865863
491,735.887466251279
492,735.8914151939617
493,735.8993800736279
494,735.9106215068264
495,735.9244578687764
496,735.9403292262351
497,735.9578003611398
498,735.9765126778569
499,735.9961504688386
500,736.0164971694264
501,736.0376128527728
502,736.0600976371163
503,736.0853588801623
504,736.1157915454007
505,736.1548008205048
506,736.2066253063535
507,736.2759474071462
508,736.3673044945784
509,736.4843489083621
510,736.6290554638991
511,736.8010272354037
512,736.9970658537776
513,737.2111270752359
514,737.4346934759536
515,737.6575064679477
516,737.8685415940557
517,738.0570904553331
518,738.213818080074
519,738.3316807535572
520,738.406607455854
521,738.4378699096476
522,738.42809846892
523,738.3829440438055
524,738.3104307564374
525,738.2200786642803
526,738.1218958335859
527,738.025346323056
528,737.938396822951
529,737.866729381948
530,737.8131857874855
531,737.7774924441629
532,737.7563106965299
533,737.7436561358168
534,737.731701371367
535,737.7118977172354
536,737.6762476448534
537,737.6184974444752
538,737.5350405284668
539,737.4254038865246
540,737.2922792026671
541,737.1411263089205
542,736.9794255443202
543,736.8156945600264
544,736.6584043552838
545,736.514924902306
546,736.3906216288096
547,736.288223803077
548,736.2075728074585
549,736.145800392911
550,736.0978894876015
551,736.0574779403618
552,736.0177237213836
553,735.9720718096029
554,735.9148291774977
555,735.8415319838974
556,735.7491469469873
557,735.636164858304
558,735.5026168541326
559,735.3500001808978
560,735.1810777028392
561,734.9995314463515
562,734.8094908997713
563,734.6149971320845
564,734.4194910144862
565,734.2254220987913
566,734.0340554940778
567,733.8455083000142
568,733.6589967967561
569,733.4732443779068
570,733.2869873898997
571,733.0995044933383
572,732.9110818397394
573,732.7233275586045
574,732.5392758409396
575,732.3632638780786
576,732.2006038088072
577,732.0570938727628
578,731.9384230850211
579,731.8495346862521
580,731.7940253440016
581,731.7736563591664
582,731.7880350222498
583,731.8345005467287
584,731.9082320248225
585,732.0025834447245
586,732.1096315511923
587,732.2208922840251
588,732.3281313169647
589,732.4241789704934
590,732.5036654103761
591,732.5636100243061
592,732.6038130789932
593,732.6270038087227
594,732.6387115237027
595,732.6468543526211
596,732.6610723480494
597,732.6918572556958
598,732.7495527111637
599,732.8433137696483
600,732.9801123784343
601,733.1638561332277
602,733.3946735526589
603,733.6684339001102
604,733.976604623776
605,734.3065594746903
606,734.6423990442946
607,734.9662478754151
608,735.2598955121929
609,735.5065823197823
610,735.6926962186199
611,735.8091464241918
612,735.8522277500005
613,735.8238800104004
614,735.7313490967363
615,735.5863362035619
616,735.4037695403647
617,735.2003544907327
618,734.9930583951335
619,734.7976659608881
620,734.6275089572879
621,734.4924484029916
622,734.3981788595542
623,734.345917511074
624,734.3325143755392
625,734.3509755889048
626,734.3913483871833
627,734.4418842474181
628,734.4903687670917
629,734.5254795672279
630,734.5380184065746
631,734.5218712542998
632,734.4745762075453
633,734.3974182881745
634,734.295027778487
635,734.174538604979
636,734.0444463495287
637,733.9133560545397
638,733.7888106735803
639,733.6763578290546
640,733.5789673446377
641,733.4968594785934
642,733.4277423926442
643,733.3673925190171
644,733.3104532939623
645,733.2512922693118
646,733.184763028932
647,733.1067668174077
648,733.0145737336269
649,732.9069233393128
650,732.7839749704859
651,732.6472034291558
652,732.4993107334382
653,732.3441593978265
654,732.1866777967022
655,732.0326796747905
656,731.8885688557513
657,731.7609372375182
658,731.6560890363277
659,731.5795334362172
660,731.5354904992668
661,731.5264626601825
662,731.55293750276
663,731.6132944451095
664,731.7039707665067
665,731.8198940535805
666,731.9551241791343
667,732.1035973512427
668,732.2598444093659
669,732.41955909418
670,732.5799096172564
671,732.7395269469517
672,732.8981786202177
673,733.0562293136313
674,733.2140503724689
675,733.3715386682367
676,733.5278570281974
677,733.6814496506134
678,733.8303272082003
679,733.972549900701
680,734.1067725067828
681,734.2326833384527
682,734.3511932158099
683,734.4643142116682
684,734.5747800826268
685,734.685541035295
686,734.7992725744535
687,734.9179854525659
688,735.0427612579829
689,735.1736062756402
690,735.3094191779164
691,735.4480809127508
692,735.5866723501192
693,735.7218026944836
694,735.8500050846345
695,735.9681418314144
696,736.0737619395402
697,736.1653607593499
698,736.2425045502672
699,736.3058031421124
700,736.3567382670967
701,736.3973772343916
702,736.4300159192742
703,736.4567996303056
704,736.4793697433226
705,736.4985825639828
706,736.5143427659864
707,736.5255836159407
708,736.5304104120617
709,736.526404578594
710,736.5110659835523
711,736.4823483639791
712,736.4392121668711
713,736.3820886665542
714,736.3131461116029
715,736.2362907878048
716,736.156903737784
717,736.0813667742744
718,736.0164484538085
719,735.9686154293678
720,735.9433322843141
721,735.9444229346411
722,735.9735777602128
723,736.0300836413288
724,736.1108191829474
725,736.210506157074
726,736.3221663296551
727,736.4377183286495
728,736.548658273934
729,736.6467794934568
730,736.7248828086732
731,736.7774138717031
732,736.8009578503635
733,736.7945343274392
734,736.7596569958545
735,736.7001422056818
736,736.6216709579537
737,736.531140125287
738,736.4358790410942
739,736.3428430184571
740,736.2579091959908
741,736.1853818084558
742,736.1277654720615
743,736.085801938705
744,736.0587089385258
745,736.0445281756429
746,736.0404969644213
747,736.043399889362
748,736.0499020971948
749,736.0568806272775
750,736.0617495436455
751,736.0627404089008
752,736.059081209492
753,736.0510356615647
754,736.0398135227838
755,736.027400940051
756,736.0163567639978
757,736.0095911812804
758,736.0101228769117
759,736.020812069143
760,736.0440790904469
761,736.0816350561316
762,736.1342686918944
763,736.2017425459985
764,736.2828452145131
765,736.3756188091137
766,736.4777283476674
767,736.5868758506941
768,736.7011264631927
769,736.8190387909704
770,736.9395641496327
771,737.0617584126582
772,737.1844100772677
773,737.3057223770624
774,737.4231810354285
775,737.5336790874336
776,737.6338777726901
777,737.7207075029307
778,737.7918874599183
779,737.846358078752
780,737.8845520919988
781,737.9084644969103
782,737.9215189275232
783,737.9282623412192
784,737.9339417852541
785,737.9440224941114
786,737.9637013091012
787,737.9974620933564
788,738.0487165249185
789,738.1195739063262
790,738.2107774587499
791,738.321821466821
792,738.4512269218831
793,738.5969168279055
794,738.7566047384934
795,738.9280938960192
796,739.1093921084837
797,739.2986000044439
798,739.4936202491094
799,739.6918127479366
800,739.8897406380124
801,740.0831144520005
802,740.2669739244352
803,740.4360753325428
804,740.5854026592918
805,740.7107073308962
806,740.808994164456
807,740.8788903879503
808,740.9208478586717
809,740.9371357192317
810,740.9315937838832
811,740.9091517612416
812,740.8751749306547
813,740.8347497713595
814,740.7920485360276
815,740.7498996319972
816,740.7096417549004
817,740.6712648701504
818,740.6337666863345
819,740.5956111411826
820,740.555177874148
821,740.5111214480426
822,740.462591529285
823,740.4092921517284
824,740.3513834848028
825,740.2892557181964
826,740.2232321338257
827,740.1532839204349
828,740.0788498657915
829,739.998834657661
830,739.911810453529
831,739.8163851781911
832,739.711648845235
833,739.5975833332113
834,739.4753291286748
835,739.3472349721308
836,739.2166584581299
837,739.087535610893
838,738.9637926181714
839,738.848712076657
840,738.7443697038724
841,738.6512319174838
842,738.5679712858471
843,738.4915275483721
844,738.41741310675
845,738.3402294476844
846,738.2543324137552
847,738.1545654986961
848,738.0369656639585
849,737.8993364203401
850,737.7415915320621
851,737.5658067844721
852,737.3759734405756
853,737.1775160171725
854,736.9766951708634
855,736.7800331604468
856,736.5938677970579
857,736.4240840668166
858,736.2760155159456
859,736.1544645706203
860,736.0637764200006
861,736.0079183551753
862,735.9905394329069
863,736.0149806701125
864,736.0841799692766
865,736.2004151631415
866,736.3648823309189
867,736.5771913810476
868,736.8349312072623
869,737.1334799629143
870,737.466191769852
871,737.8249789520889
872,738.2011708122432
873,738.5864351215071
874,738.9735417251327
875,739.3568220526819
876,739.7322896419186
877,740.0974837178185
878,740.451147889859
879,740.7928558763213
880,741.1226621018692
881,741.4408084998183
882,741.7474804008059
883,742.0425880445546
884,742.3255591372221
885,742.5951575240894
886,742.8493799670244
887,743.0855004621363
888,743.3003078583451
889,743.4905255886337
890,743.6533412311063
891,743.786935031857
892,743.8908944971623
893,743.9664326192484
894,744.0163697938591
895,744.044879031113
896,744.057037090318
897,744.0582787699949
898,744.0538952382133
899,744.0487063951936
900,744.0469623571478
901,744.0524396905141
902,744.0686493696262
903,744.0990694241555
904,744.1473265481623
905,744.2172663181079
906,744.3128805456782
907,744.4380985679961
908,744.5964758997586
909,744.7908211030772
910,745.0228017129838
911,745.2925675946783
912,745.5984203892779
913,745.9365510542582
914,746.3008862355172
915,746.6831239414264
916,747.0730565446936
