acceleration,velocity,displacement
0.0938657003955935,0.0,0.0
0.0894256000290374,9.164565021231545e-05,4.5822825106157726e-08
0.0851020602611792,0.00017890948035742375,1.811003903910273e-07
0.08099322629489457,0.00026195712363546065,4.015336923874695e-07
0.07716457314005581,0.00034103602335293587,7.030302658816678e-07
0.07364135331433172,0.00041643898658012964,1.0817677708482005e-06
0.07040812127316133,0.0004884637238738762,1.5342191260752034e-06
0.06741413123352184,0.0005573748501272178,2.0571384130757502e-06
0.06458286273594219,0.0006233733471119498,2.6475125116953342e-06
0.06182418646703339,0.0006865768717134376,3.302487621108028e-06
0.05904814309239629,0.0007470130364931524,4.0192825752113235e-06
0.05617932411182006,0.0008046267700952606,4.79510247850553e-06
0.05317020103065888,0.0008593015326665,5.6270666298864105e-06
0.05001103173414784,0.0009108921490489034,6.5121634707441124e-06
0.0467340841433923,0.0009592647069876734,7.4472418987624006e-06
0.04341107874883037,0.0010043372884337848,8.42904289647313e-06
0.04014429835077578,0.001046114976983588,9.454269029181817e-06
0.03705295216238335,0.0010847136022401674,1.0519683318793695e-05
0.034256837773549514,0.0011203684972081339,1.1622224368517846e-05
0.03185936602862472,0.001153426599109221,1.2759121916676523e-05
0.029931997522900978,0.0011843222808849837,1.3927996356673626e-05
0.02850221360008083,0.0012135393864464747,1.5126927190339355e-05
0.02754705901834319,0.0012415640227556868,1.6354478894940437e-05
0.02699374407641782,0.0012688344243030672,1.7609678118469814e-05
0.026727726157962744,0.0012956951594202575,1.8891942910331478e-05
0.026607260826965615,0.0013223626529127216,2.0200971816497968e-05
0.026481957034514926,0.001348907261843462,2.153660677387606e-05
0.02621194368310144,0.00137525421220227,2.2898687510898926e-05
0.025684276375293337,0.0014012023222314675,2.4286915778115796e-05
0.024824004764410733,0.0014264564628013194,2.570074517063219e-05
0.02359836562083046,0.00145066764799394,2.713930722602982e-05
0.022013723172267713,0.0014734736923904892,2.8601377896222035e-05
0.02010637483068388,0.0014945337413919651,3.0085381613113262e-05
0.01792997767491617,0.0015135519176447652,3.158942444263163e-05
0.015543205464241297,0.001530288509214344,3.311134465606118e-05
0.013000563582168315,0.0015445603937375488,3.464876910753713e-05
0.010347472325371879,0.001556234411691319,3.619916651025156e-05
0.007619039734424236,0.001565217667721217,3.775989254995783e-05
0.004841319863183509,0.0015714478475200209,3.932822530757845e-05
0.002034238867284787,0.001574885626885255,4.0901392044781086e-05
-0.0007840211991855282,0.0015755107357193045,4.2476590226083365e-05
-0.0035913699875667385,0.0015733230401259284,4.405100711400598e-05
-0.006355723467796101,0.0015683494933982469,4.562184338076807e-05
-0.009029973043920659,0.0015606566451423884,4.718634645003839e-05
-0.01154958725259815,0.001550366864994129,4.874185820510665e-05
-0.013834002071068137,0.0015376750703322958,5.028587917276986e-05
-0.015792305940886476,0.0015228619163263186,5.181614766609917e-05
-0.01733294130497686,0.001506299292703387,5.333072827061402e-05
-0.018376242236654607,0.001488444700932571,5.4828100267432e-05
-0.01886781423395095,0.0014698226726972683,5.630723395424692e-05
-0.018790376927532087,0.0014509935771165267,5.776764207915382e-05
-0.018171871069415608,0.0014325124531180528,5.920939509427111e-05
-0.017088191865561063,0.0014148824216505644,6.063309253165542e-05
-0.015659668198907024,0.0013985084916183304,6.203978798828987e-05
-0.014041386515777465,0.001383657964260988,6.343087121622954e-05
-0.012408581295452654,0.001370432980355373,6.480791668853772e-05
-0.010939203223900374,0.0013587590880956965,6.617251272276326e-05
-0.009796090462100292,0.0013483914412526963,6.752608798743745e-05
-0.009110947060800722,0.0013389379224912458,6.886975266930941e-05
-0.008971924413766602,0.0013298964867539621,7.020416987393201e-05
-0.009416280420628795,0.0013207023843367644,7.152946930947737e-05
-0.010429232564987527,0.0013107796278439563,7.284521031556773e-05
-0.01194940224723734,0.0012995903104378438,7.415039528470864e-05
-0.013880128396874676,0.0012866755451157877,7.544352821248546e-05
-0.01610469116578283,0.001271683135334459,7.672270755271058e-05
-0.01850249422690223,0.0012543795426381164,7.798573889169687e-05
-0.02096295925093595,0.0012346468158991974,7.923025207096553e-05
-0.023394706982375623,0.0012124679827825416,8.04538094703064e-05
-0.025729372261319716,0.001187905943160694,8.165399643327802e-05
-0.027921212265000103,0.001161080650897534,8.282848973030714e-05
-0.029944593270485237,0.0011321477481297914,8.397510392982081e-05
-0.031791307421107105,0.0011012797977839953,8.509181770277771e-05
-0.03346888907212749,0.001068649699537378,8.61767824514384e-05
-0.03500010608242777,0.0010344152019601002,8.722831490218713e-05
-0.03642298386604213,0.0009987036569858653,8.824487433166011e-05
-0.03779039598685031,0.0009615969670594191,8.922502464368275e-05
-0.039168314228439374,0.0009231176119517743,9.016738193318834e-05
-0.040631902043723224,0.000883217503815693,9.107054949107208e-05
-0.04225885705913008,0.0008417721242642664,9.193304430511206e-05
-0.04412016368443781,0.0007985826138924825,9.275322167419044e-05
-0.046269553520878054,0.0007533877552898245,9.352920685878159e-05
-0.04873376519091157,0.0007058860959339297,9.425884378439346e-05
-0.051505732205896736,0.0006557663472355256,9.49396700059782e-05
-0.05454232081358919,0.0006027423207257826,9.556892433995885e-05
-0.05776749064103178,0.0005465874149984721,9.614358920782098e-05
-0.061080823064799526,0.0004871632581455564,9.6660464544393e-05
-0.06437031900449565,0.0004244376871109088,9.711626501702122e-05
-0.067527473161435,0.00035848879102794347,9.750772825609065e-05
-0.07046219084740198,0.00028949395902352497,9.783171963111638e-05
-0.07311519408550231,0.00021770526655707283,9.808531924390668e-05
-0.07546598561155705,0.00014341467670854314,9.82658792155395e-05
-0.07753502526240562,6.691417127156181e-05,9.837104363952954e-05
-0.07937947370658333,-1.1543078212932666e-05,9.839872918605885e-05
-0.08108269332895422,-9.177416173070144e-05,9.834707056608703e-05
-0.0827386992238452,-0.00017368485800710114,9.821434105621813e-05
-0.08443389171157813,-0.0002572711534748128,9.799886305047717e-05
-0.08622944344045382,-0.0003426028210508288,9.769892606321435e-05
-0.08814816100993579,-0.00042979162327602357,9.731272884105093e-05
-0.09016894107441747,-0.0005189501743182002,9.683835794225381e-05
-0.09223007388655542,-0.0006101496817986867,9.627380801419537e-05
-0.09424043009418716,-0.0007033849337890579,9.56170407064015e-05
-0.09609597531343525,-0.0007985531364928691,9.486607167126053e-05
-0.09769835775542889,-0.0008954503030273012,9.401906995150044e-05
-0.09897218519332646,-0.000993785574501679,9.307445201273595e-05
-0.09987783650004806,-0.0010932105853483662,9.203095393281093e-05
-0.1004173770806742,-0.0011933581921387273,9.088766954406738e-05
-0.10063252334815663,-0.0012938831423531427,8.964404887682144e-05
-0.10059540223411592,-0.001394497105144279,8.829985875307272e-05
-0.10039448287825152,-0.0014949920477004628,8.685511417665035e-05
-0.1001189654737663,-0.0015952487718764717,8.530999376686188e-05
-0.09984486185309219,-0.001695230685539901,8.36647540381537e-05
-0.09962509646631557,-0.0017949656646996047,8.191965586303394e-05
-0.09948462694533523,-0.0018945205264054301,8.007491276748142e-05
-0.09942042575966757,-0.0019939730527579317,7.813066597789974e-05
-0.09940551574578252,-0.0020933860235106566,7.608698643976545e-05
-0.09939596350338063,-0.002192786763135238,7.394390004644249e-05
-0.09933952404383173,-0.002292154506908844,7.170142941142045e-05
-0.09918456144307856,-0.0023914165496522993,6.935964388313988e-05
-0.09888818514158706,-0.002490452922944632,6.691870914684141e-05
-0.09842312772252941,-0.00258910857937669,6.437892839568075e-05
-0.09778331160508871,-0.002687211799040499,6.174076820647216e-05
-0.09698801520099772,-0.002784597462443542,5.9004863575730144e-05
-0.09608408435184992,-0.002881133512219966,5.617199808839839e-05
-0.09514508522089081,-0.002976748097006336,5.324305728378524e-05
-0.09426625602146367,-0.0030714537676275132,5.021895635146831e-05
-0.0935549622176275,-0.003165364376747059,4.710054727928103e-05
-0.09311774603706585,-0.0032587007308744055,4.38885147254703e-05
-0.09304621119428083,-0.003351782709490079,4.0583273005288055e-05
-0.09340438655607439,-0.0034450080083652567,3.718487764636039e-05
-0.09421982966330052,-0.003538820116474944,3.369296358394029e-05
-0.09547978185366188,-0.0036336699222334254,3.0106718564586105e-05
-0.09713249860854706,-0.00372997606246453,2.6424895572237127e-05
-0.09909290768407263,-0.00382808876561084,2.264586315819944e-05
-0.10125140130546693,-0.003928260920105609,1.8767688315341215e-05
-0.10348474886862248,-0.004030628995192654,1.4788243357692084e-05
-0.10566827810532943,-0.00413520550867963,1.0705326105755941e-05
-0.10768835816493637,-0.004241883826814763,6.516781438008745e-06
-0.10945407328039561,-0.004350455042537429,2.2206120033326485e-06
-0.11090699323583504,-0.004460635575795544,-2.184933305833838e-06
-0.11202804786347302,-0.004572103096345198,-6.70130264190421e-06
-0.11284064464440582,-0.004684537442599138,-1.1329622911376378e-05
-0.11340939738275305,-0.004797662463612717,-1.6070722864482306e-05
-0.11383422068457547,-0.004911284272646381,-2.0925196232611856e-05
-0.11424012258733889,-0.0050253214442823385,-2.5893499091076217e-05
-0.11476373346682302,-0.005139823372309419,-3.097607149937209e-05
-0.11553818629667433,-0.005254974332191168,-3.617347035162239e-05
-0.1166781669545871,-0.005371082508816799,-4.148649877212637e-05
-0.1182668339919403,-0.005488555009290063,-4.6916317531179806e-05
-0.12034605424404536,-0.0056078614534080555,-5.246452576252886e-05
-0.12291102466123975,-0.005729489992860698,-5.813320148566324e-05
-0.12590976963072115,-0.005853900390006678,-6.392489667709692e-05
-0.1292473044719081,-0.005981478927057993,-6.984258633562926e-05
-0.132793654261438,-0.006112499406424666,-7.588957550237059e-05
-0.1363945837346776,-0.006247093525422724,-8.206937196829429e-05
-0.13988392975879896,-0.006385232782169462,-8.838553512209039e-05
-0.14309673639847273,-0.006526723115248098,-9.484151307079917e-05
-0.14588254974897857,-0.006671212758321824,-0.00010144048100758412
-0.14811788766185432,-0.00681821297702724,-0.00010818519387525866
-0.14971633558798544,-0.00696713008865216,-0.00011507786540809836
-0.15063459849058022,-0.0071173055556914425,-0.00012212008323027015
-0.15087348588381932,-0.007268059597878642,-0.0001293127658070552
-0.15047400416726564,-0.0074187333429041845,-0.0001366561622774466
-0.14950999853721994,-0.007568725344256427,-0.00014414989162102692
-0.14807954727134176,-0.0077175201171607085,-0.00015179301435173549
-0.14629706785903426,-0.007864708424725897,-0.0001595841286226788
-0.14428689797476227,-0.008010000407642794,-0.00016752148303886315
-0.14217773626026708,-0.008153232724760309,-0.0001756030996050647
-0.14009669910000516,-0.008294369942440444,-0.0001838269009386651
-0.1381621892620742,-0.008433499386621484,-0.00019219083560319605
-0.13647577966961802,-0.00857081837108733,-0.00020069299448205046
-0.13511415292094361,-0.008706613337382612,-0.00020933171033628542
-0.13412253668545762,-0.008841231682185813,-0.00021810563284606962
-0.1335111495104402,-0.008975048525283762,-0.0002270137729498044
-0.13325587593152882,-0.009108432038004747,-0.00023605551323144865
-0.13330358248563404,-0.009241711767213327,-0.00024523058513405767
-0.13358137950994456,-0.009375154248211117,-0.0002545390181417699
-0.13400822325041956,-0.009508949049591299,-0.0002639810697906711
-0.1345068237998179,-0.009643206573116419,-0.00027355714760202496
-0.1350137894163291,-0.009777966879724492,-0.0002832677343284454
-0.13548618231308945,-0.009913216865589202,-0.0002931133262011023
-0.135903305864266,-0.01004891160967788,-0.0003030943904387358
-0.13626366821812785,-0.010184995096719078,-0.0003132113437919343
-0.13657833827199106,-0.010321416099964138,-0.0003234645493902759
-0.1368627315298795,-0.010458136634865074,-0.00033385432575769054
-0.13712887040106808,-0.010595132435830547,-0.00034438096029303837
-0.13737952190797276,-0.010732386631985068,-0.0003550447198269462
-0.13760488939173635,-0.010869878837634923,-0.0003658458525617562
-0.13778215105313907,-0.01100757235785736,-0.0003767845781595024
-0.13787794339577492,-0.011145402405081817,-0.000387861065540972
-0.13785340750276812,-0.01128326808053109,-0.00039907540078377844
-0.13767061062096805,-0.011421030089592958,-0.00041042754986884045
-0.13729864919911194,-0.011558514719502998,-0.00042191732227338843
-0.13671803466369825,-0.011695523061434402,-0.00043354434116385716
-0.13592271815657261,-0.011831843437844538,-0.0004453080244134966
-0.1349196706890104,-0.01196726463226733,-0.00045720757844855257
-0.13372621874794927,-0.01210158757698581,-0.00046924200455317915
-0.13236564185130292,-0.012234633507285436,-0.0004814101150953148
-0.1308618956409917,-0.012366247276031583,-0.0004937105554869733
-0.129234520902767,-0.012496295484303463,-0.0005061418268671408
-0.1274947489780517,-0.012624660119243873,-0.0005187023046689145
-0.12564355735439783,-0.012751229272410097,-0.0005313902493647414
-0.12367197418116846,-0.01287588703817788,-0.0005442038075200354
-0.12156333293691245,-0.01299850469173692,-0.0005571410033849927
-0.11929667348773365,-0.013118934694949243,-0.0005701997230783358
-0.11685031871629807,-0.013237008191051258,-0.000583377694521336
-0.11420484645920798,-0.013352535773639011,-0.0005966724665036811
-0.111345106108394,-0.013465310749922813,-0.000610081389765462
-0.10826147517579791,-0.013575114040564908,-0.000623601602160706
-0.10495100203745056,-0.013681720279171533,-0.0006372300193205741
-0.10141919769335592,-0.013784905379036936,-0.0006509633321496784
-0.09768295506996269,-0.013884456455418595,-0.0006647980130669061
-0.09377444333535398,-0.013980185154621254,-0.0006787303338719261
-0.08974498000132963,-0.014071944866289597,-0.0006927563988823815
-0.0856672170580852,-0.014159650964819304,-0.000706872196797936
-0.08163402520248986,-0.01424330158594959,-0.0007210736730733204
-0.07775338685087953,-0.014322995291976276,-0.0007353568215122834
-0.07413991676594966,-0.014398941943784691,-0.0007497177901301639
-0.07090449139011609,-0.014471464147862724,-0.0007641529931759876
-0.06814346258284529,-0.014540988124849205,-0.0007786592193123436
-0.06592845249549928,-0.014608024082388378,-0.0007932337254159624
-0.06429745673804854,-0.014673137037005152,-0.0008078743059756592
-0.06324807635080164,-0.014736909803549577,-0.0008225793293959366
-0.0627338261797425,-0.014799900754814849,-0.0008373477346751188
-0.06266440402440922,-0.014862599869916926,-0.0008521789849874847
-0.06291053527014638,-0.014925387339564203,-0.0008670729785922252
-0.06331351510584077,-0.014988499364752196,-0.0008820299219443835
-0.06369888723207086,-0.015052005565921152,-0.0008970501744097201
-0.06389300086972394,-0.015115801509972049,-0.0009121340779476667
-0.06374067602264927,-0.015179618348418236,-0.0009272817878768618
-0.06312193709899089,-0.015243049654979055,-0.0009424931218785605
-0.061965656675185776,-0.015305593451866143,-0.0009577674434319831
-0.06025796823943347,-0.015366705264323452,-0.0009731035927900779
-0.058043716807676025,-0.015425856106847007,-0.0009884998734756632
-0.055420306407263996,-0.015482588118454477,-0.001003954095588314
-0.0525249211384313,-0.015536560732227325,-0.001019463670013655
-0.049517578810997706,-0.01558758198220204,-0.0010350257413708696
-0.04656305828739152,-0.015635622300751235,-0.0010506373435123463
-0.0438141869838073,-0.015680810923386836,-0.0010662955601244153
-0.04139792130162467,-0.01572341697752955,-0.0010819976740748735
-0.03940497245614564,-0.015763818424408434,-0.0010977412917758426
-0.03788348661519178,-0.015802462653944103,-0.001113524432315019
-0.03683690276935295,-0.015839822848636376,-0.0011293455750663092
-0.03622546771035789,-0.01587635403387623,-0.0011452036635075655
-0.035970496161771864,-0.015912452015812296,-0.0011610980665324097
-0.03596063247282638,-0.015948417580129597,-0.0011770285013303807
-0.03605986305906662,-0.015984427827895543,-0.0011929949240343932
-0.036117437764525306,-0.01602051647830734,-0.0012089973961874948
-0.03597988435521338,-0.01605656513936721,-0.001225035936996332
-0.03550481173709865,-0.016092307487413367,-0.0012411103733097222
-0.034575315645577955,-0.016127347551104704,-0.0012572202008289813
-0.03311293630997548,-0.016161191677082482,-0.001273364470443075
-0.031086782183372456,-0.016193291536329157,-0.0012895417120497809
-0.02851691344647457,-0.01622309338414408,-0.0013057499045100174
-0.025471232198485974,-0.016250087456966558,-0.0013219864949305727
-0.022056446291346,-0.016273851296211474,-0.0013382484643071617
-0.0184046161173452,-0.01629408182741582,-0.0013545324308689754
-0.014657195578038696,-0.01631061273326351,-0.001370834778149315
-0.010948617814350286,-0.016323415639959704,-0.0013871517923359266
-0.007391621759942026,-0.01633258575974685,-0.0014034797930357799
-0.004066554102266862,-0.016338314847677952,-0.0014198152433394923
-0.0010164415913492303,-0.01634085634552476,-0.0014361548289360936
0.0017515407212595284,-0.016340488795959805,-0.0014524955015068359
0.004259240014734635,-0.016337483405591807,-0.0014688344876076116
0.006547731869304844,-0.016332079919649786,-0.0014851692692702324
0.008667288872140511,-0.016324472409279065,-0.0015014975454346968
0.010669181573694174,-0.016314804174056147,-0.0015178171837263645
0.01260039375982023,-0.01630316938638939,-0.0015341261705065872
0.014501479926018275,-0.016289618449546468,-0.0015504225644245551
0.01640707782114971,-0.016274164170672883,-0.0015667044557346648
0.018347949553072163,-0.01625678665698577,-0.001582969931148494
0.020353008143457148,-0.016237436178137506,-0.0015992170425660557
0.02244988248745776,-0.016216034732822047,-0.0016154437780215355
0.02466335357034415,-0.016192478114793147,-0.0016316480344453431
0.027012177231625117,-0.016166640349392164,-0.0016478275936774357
0.02950571403199742,-0.016138381403760352,-0.001663980104554012
0.03214193066101199,-0.016107557581413846,-0.001680103074046599
0.03490781912019452,-0.01607403270652324,-0.0016961938691905675
0.037782478202012325,-0.016037687557862137,-0.0017122497293227603
0.04074224895322905,-0.015998425194284516,-0.0017282677856988336
0.0437665480745618,-0.01595617079577062,-0.0017442450836938613
0.0468427078808367,-0.01591086616779292,-0.001760178602175643
0.04996844364096275,-0.015862460592032022,-0.0017760652655555555
0.05315129617503367,-0.015810900722124023,-0.0017919019462126335
0.05640499432904375,-0.015756122576871985,-0.0018076854578621315
0.05974292343941417,-0.015698048617987757,-0.0018234125434595614
0.06316913355252216,-0.01563659258949179,-0.0018390798640633011
0.06666800731454353,-0.015571674019058257,-0.001854683997367576
0.07019471944639513,-0.015503242655677789,-0.001870221455704944
0.073669364326295,-0.015431310613791443,-0.0018856887323396786
0.076977523211284,-0.015355987170022654,-0.0019010823812315857
0.07997885202821693,-0.015277508982402902,-0.0019163991293077985
0.08252324073987503,-0.015196257936018856,-0.0019316360127670093
0.08447193728511505,-0.01511276034700636,-0.001946790521908522
0.08571961990642905,-0.015027664568410589,-0.0019618607343662303
0.08621324293323929,-0.014941698136990755,-0.001976845415718931
0.08596434244699044,-0.01485560934430064,-0.0019917440694595767
0.08505273298482952,-0.01477010080658473,-0.0020065569245350193
0.08362080148590048,-0.014685764039349366,-0.0020212848569579863
0.08185896111218127,-0.014603024158050325,-0.002035929251056686
0.07998424291872143,-0.014522102556034875,-0.0020504918144137285
0.07821517583080652,-0.01444300284666011,-0.002064974367115076
0.07674671449586691,-0.014365521901496774,-0.0020793786294891546
0.0757288819037411,-0.01428928410329697,-0.0020937060324915514
0.07525207723196922,-0.014213793623729114,-0.0021079575713550645
0.07534090908622107,-0.014138497130570018,-0.002122133716732214
