acceleration,velocity,displacement
-0.020458356698740486,0.0,0.0
-0.019678936251782964,-1.0034323237630863e-05,-2.5085808094077157e-09
-0.018902359366233513,-1.967964714213498e-05,-9.937073404349177e-09
-0.01813144661996103,-2.893809863868362e-05,-2.2091509849553826e-08
-0.017368972896541744,-3.7813203517809314e-05,-3.877933538867706e-08
-0.01661764520550091,-4.6309858043319976e-05,-5.981010077895938e-08
-0.015880081270770445,-5.443428966238781e-05,-8.499613770538632e-08
-0.01515878910347419,-6.219400725594897e-05,-1.1415321193497052e-07
-0.014456147752581658,-6.959774146996293e-05,-1.471011491164485e-07
-0.01377438940048935,-7.665537575823069e-05,-1.836644284234969e-07
-0.0131155829417231,-8.33778688437838e-05,-2.2367273957400053e-07
-0.012481619157257475,-8.977716936852894e-05,-2.669614991270787e-07
-0.011874197581994797,-9.586612355334202e-05,-3.1337232235754644e-07
-0.011294815160848957,-0.00010165837673905295,-3.6275344743064516e-07
-0.010744756790354549,-0.00010716826972685384,-4.1496010904712185e-07
-0.010225087832639214,-0.00011241073088260227,-4.698548591994859e-07
-0.009736648660609044,-0.00011740116500591434,-5.273078331716151e-07
-0.009280051255702195,-0.00012215533998499216,-5.871969594193417e-07
-0.00885567784617952,-0.00012668927226046258,-6.494081124807055e-07
-0.008463681550082987,-0.00013101911210952822,-7.138352085732032e-07
-0.008103988968588239,-0.000135161029739196,-7.803802440353843e-07
-0.007776304655259623,-0.000139131103145158,-8.489532772564728e-07
-0.007480117361163449,-0.00014294520864926375,-9.194723552050781e-07
-0.007214707928791539,-0.0001466189149717525,-9.918633861103321e-07
-0.006979158686689467,-0.00015016738162562275,-1.066059960259676e-06
-0.0067723641871827505,-0.0001536052623440908,-1.1420031212521043e-06
-0.006593043132914159,-0.00015694661417411503,-1.2196410903816558e-06
-0.006439751351498329,-0.00016020481279521815,-1.2989289471239891e-06
-0.006310895694241093,-0.000163392474556653,-1.3798282689619568e-06
-0.006204748745862185,-0.00016652138566667884,-1.4623067340177898e-06
-0.006119464233063355,-0.00016960243891141023,-1.5463376901623121e-06
-0.006053093013882561,-0.00017264557822314672,-1.6318996944459514e-06
-0.006003599524995942,-0.00017565975135786635,-1.7189760268412046e-06
-0.005968878565673616,-0.00017865287088053374,-1.8075541824008046e-06
-0.0059467723011250835,-0.0001816317835972334,-1.8976253460202465e-06
-0.00593508736702754,-0.00018460224851427154,-1.989183854048123e-06
-0.005931611947632001,-0.00018756892334293644,-2.082226647012425e-06
-0.0059341326843545626,-0.0001905353595009331,-2.1767527177233924e-06
-0.005940451255757184,-0.00019350400548596102,-2.2727625589701157e-06
-0.005948400458990704,-0.000196476218414648,-2.370257614945268e-06
-0.005955859620801109,-0.00019945228343459594,-2.4692397404075793e-06
-0.005960769174738407,-0.00020243144063348083,-2.5697106714245986e-06
-0.005961144260262405,-0.00020541191899223104,-2.6716715113310267e-06
-0.005955087227164085,-0.00020839097686408767,-2.7751222352951065e-06
-0.005940798963181424,-0.00021136494841167406,-2.880061216614047e-06
-0.005916588999698982,-0.00021432929540239417,-2.986484777567564e-06
-0.0058808843815257115,-0.00021727866374770033,-3.0943867673550876e-06
-0.005832237305398779,-0.00022020694416943147,-3.2037581693343704e-06
-0.00576933154070101,-0.0002231073363809564,-3.3145867394719675e-06
-0.005690987652997996,-0.00022597241617938114,-3.4268566776120516e-06
-0.005596167060136861,-0.00022879420485766487,-3.540548332871313e-06
-0.005483974960394588,-0.00023156424036279772,-3.6556379441764287e-06
-0.0053536621822747755,-0.00023427364964846505,-3.7720974166792444e-06
-0.005204626018107601,-0.00023691322169856066,-3.8898941345160005e-06
-0.005036410119011581,-0.00023947348073284045,-4.008990810123851e-06
-0.004848703542294443,-0.00024194475914816695,-4.129345370094103e-06
-0.004641339045630769,-0.00024431726979514827,-4.250910877329932e-06
-0.004414290709714316,-0.00024658117723398454,-4.373635489087215e-06
-0.004167670947572219,-0.00024872666764830616,-4.497462450307788e-06
-0.003901726939588102,-0.00025074401712009626,-4.6223301214998884e-06
-0.0036168365272770554,-0.00025262365798681255,-4.7481720402766155e-06
-0.003313503600062955,-0.00025435624301864754,-4.87491701552798e-06
-0.002992353007557462,-0.00025593270717055264,-5.002489253075281e-06
-0.0026541250210123306,-0.0002573443266776951,-5.130808511537343e-06
-0.0022996693527280667,-0.0002585827752711302,-5.259790287024549e-06
-0.0019299387257839858,-0.00025964017729075825,-5.3893460251650204e-06
-0.001545981976696651,-0.0002605091574663784,-5.519383358854305e-06
-0.001148936677487969,-0.00026118288712992453,-5.64980637000338e-06
-0.0007400212793211797,-0.0002616551266191268,-5.780515873440643e-06
-0.00032052679586313236,-0.0002619202636379229,-5.911409721004905e-06
0.00010819194866408321,-0.0002619733473497227,-6.042383123751816e-06
0.0005447254821658436,-0.0002618101179920152,-6.1733289900872505e-06
0.000987619229625219,-0.00026142703181406744,-6.3041382775387716e-06
0.0014353833953277063,-0.0002608212811578292,-6.4347003557817455e-06
0.0018865031093009156,-0.0002599908095316721,-6.56490337845412e-06
0.0023394487352284897,-0.0002589343215705397,-6.6946346612296735e-06
0.0027926862195855316,-0.00025765128783183624,-6.823781063580268e-06
0.0032446873628341026,-0.00025614194443623135,-6.952229371647285e-06
0.003693939907587817,-0.00025440728761862586,-7.079866679660999e-06
0.0041389573548534925,-0.0002524490633030155,-7.206580767391409e-06
0.004578288431924487,-0.00025026975185632103,-7.3322604711812426e-06
0.0050105261433340915,-0.00024787254821250637,-7.456796046198449e-06
0.005434316339317275,-0.0002452613375918435,-7.580079517649537e-06
0.005848365738279133,-0.00024244066707244442,-7.70200501881561e-06
0.006251449348228239,-0.00023941571330081757,-7.822469113908925e-06
0.0066424172484726976,-0.00023619224665164234,-7.94137110389704e-06
0.007020200708288585,-0.00023277659216245202,-8.058613313600564e-06
0.007383817622806713,-0.0002291755875796782,-8.174101358536097e-06
0.0077323772351532314,-0.0002253965388651882,-8.287744390147313e-06
0.008065084098157997,-0.0002214471735318604,-8.399455318246575e-06
0.00838124122282289,-0.00021733559220161517,-8.509151009679944e-06
0.0086802523718174,-0.0002130702188029551,-8.616752462431087e-06
0.008961623483661918,-0.00020865974983908528,-8.722184954591597e-06
0.009224963250642936,-0.00020411310315550908,-8.825378167840246e-06
0.009469982907965755,-0.0001994393666158569,-8.926266285283087e-06
0.009696495311186765,-0.0001946477470610688,-9.024788063702318e-06
0.009904413383915282,-0.00018974751988729327,-9.12088688043941e-06
0.010093748017670797,-0.00018474797953689674,-9.214510755295458e-06
0.01026460550545025,-0.00017965839115611647,-9.305612347968711e-06
0.010417184585158869,-0.0001744879436334642,-9.394148931666106e-06
0.01055177315213842,-0.0001692457041991399,-9.480082343624257e-06
0.010668744668392925,-0.00016394057474400706,-9.563378913360044e-06
0.010768554253711095,-0.00015858125001348106,-9.644009369549415e-06
0.01085173440327592,-0.0001531761778492343,-9.721948726515094e-06
0.010918890255542893,-0.0001477335216845296,-9.797176151398534e-06
0.010970694346000856,-0.00014226112553414365,-9.869674813203202e-06
0.011007880824354116,-0.0001367664817415549,-9.939431715022127e-06
0.011031239168343183,-0.00013125670174338059,-1.0006437510893361e-05
0.011041607476859491,-0.00012573849008207992,-1.0070686308849726e-05
0.011039865457500575,-0.00012021812184848991,-1.0132175461832367e-05
0.011026927239938264,-0.0001147014236741302,-1.0190905348213022e-05
0.01100373414926754,-0.00010919375832682875,-1.024687914371326e-05
0.010971247565553677,-0.00010370001289812345,-1.03001025865195e-05
0.010930441982874285,-9.822459051101646e-05,-1.0350583737371785e-05
0.010882298368306226,-9.277140542322133e-05,-1.0398332736355344e-05
0.01082779790748568,-8.734388135427336e-05,-1.0443361558049718e-05
0.010767916206967936,-8.194495282565995e-05,-1.0485683766594701e-05
0.010703618006747793,-7.657706927223103e-05,-1.0525314272119174e-05
0.010635852441895676,-7.124220166007016e-05,-1.056226908985225e-05
0.01056554888193314,-6.594185132911296e-05,-1.0596565103099545e-05
0.010493613370498362,-6.0677060766005084e-05,-1.0628219831123324e-05
0.010420925682017135,-5.544842600287621e-05,-1.0657251202815544e-05
0.010348336997591695,-5.025611033297401e-05,-1.0683677336899506e-05
0.01027666817620585,-4.5099859039524624e-05,-1.070751632924263e-05
0.010206708568162734,-3.997901485343248e-05,-1.072878604771587e-05
0.010139215295637431,-3.489253388748244e-05,-1.0747503934901097e-05
0.010074912912547808,-2.983900183543613e-05,-1.0763686818831827e-05
0.010014493349249032,-2.481665026998692e-05,-1.0777350731858184e-05
0.009958616046720166,-1.9823372920994618e-05,-1.078851073765593e-05
0.00990790819313179,-1.4856741861031629e-05,-1.0797180766351435e-05
0.009862964994688469,-9.914023564076563e-06,-1.0803373457707712e-05
0.009824349938230437,-4.992194830846837e-06,-1.0807100012306444e-05
0.009792595027479372,-8.795858941938493e-08,-1.080837005066151e-05
0.009768200990918768,4.8022404151801505e-06,-1.0807191480205071e-05
0.009751637466267732,9.682200029476776e-06,-1.0803570370093906e-05
0.009743343170598972,1.4555945188693452e-05,-1.0797510833789364e-05
0.009743726073763132,1.9427712499783977e-05,-1.0789014919367245e-05
0.009753163605603831,2.430193491962572e-05,-1.0778082507512393e-05
0.009772002937731967,2.918322655545967e-05,-1.0764711217143622e-05
0.00980056138330253,3.407636763571829e-05,-1.0748896318595828e-05
0.009839126952414358,3.898628971964751e-05,-1.0730630654256985e-05
0.009887959090597578,4.39180612304005e-05,-1.0709904566519474e-05
0.009947289619059682,4.887687340781481e-05,-1.068670583285992e-05
0.010017323890933742,5.386802678531317e-05,-1.0661019607811638e-05
0.010098242171950792,5.889691830103431e-05,-1.0632828371540051e-05
0.010190201238933199,6.396902915375531e-05,-1.0602111884676353e-05
0.010293336164875402,6.908991350470745e-05,-1.0568847149011738e-05
0.010407762231751458,7.426518810386417e-05,-1.0533008373609595e-05
0.010533576887708396,7.950052288372913e-05,-1.0494566945862696e-05
0.010670861647517987,8.480163251753573e-05,-1.045349140701238e-05
0.01081968382667524,9.017426888608405e-05,-1.0409747431661475e-05
0.01098009800145224,9.562421434311592e-05,-1.0363297810854174e-05
0.011152147098372216,0.00010115727561807203,-1.0314102438363878e-05
0.011335863034205126,0.00010677927815121636,-1.0262118299921555e-05
0.011531266848008204,0.00011249606062176969,-1.0207299465228308e-05
0.011738368286540318,0.00011831346940540681,-1.0149597082721514e-05
0.011957164822533431,0.00012423735268267524,-1.0088959377199493e-05
0.012187640103918427,0.00013027355391428822,-1.0025331650550252e-05
0.012429761851183378,0.00013642790440306367,-9.958656285970915e-06
0.012683479234028806,0.00014270621467436673,-9.888872756201557e-06
0.012948719763425804,0.00014911426442373038,-9.815917636427033e-06
0.013225385736541896,0.0001556577907987223,-9.73972462262142e-06
0.013513350280379572,0.00016234247480295268,-9.660224556221002e-06
0.013812453057700824,0.00016917392563747279,-9.577345456110895e-06
0.014122495721899818,0.00017615766283237295,-9.491012558993433e-06
0.014443237232885662,0.0001832990960710693,-9.401148369267573e-06
0.014774389171633177,0.00019060350267219902,-9.307672719581755e-06
0.015115611208207834,0.00019807600276715927,-9.210502843221915e-06
0.015466506875905981,0.00020572153228818772,-9.109553459458079e-06
0.015826619783641516,0.0002135448139530746,-9.004736872897763e-06
0.01619543037590804,0.00022155032649296197,-8.895963087786254e-06
0.016572353339558824,0.00022974227242182868,-8.783139938057556e-06
0.01695673575771801,0.00023812454469614787,-8.666173233778062e-06
0.017347856109988305,0.00024670069266307445,-8.544966924438258e-06
0.017744924205438817,0.0002554738877419312,-8.419423279337006e-06
0.01814708211440886,0.00026444688932189314,-8.28944308507105e-06
0.018553406148055805,0.0002736220113875093,-8.154925859893698e-06
0.01896290992780573,0.0002830010904064747,-8.015770084445202e-06
0.019374548582477263,0.00029258545503404543,-7.871873448085072e-06
0.019787224093314133,0.0003023758982029933,-7.723133109775813e-06
0.020199791771073727,0.00031237265216909027,-7.5694459721827925e-06
0.020611067804090513,0.0003225753670628813,-7.4107089673747994e-06
0.021019837772884627,0.0003329830934571251,-7.246819352244798e-06
0.021424865989039737,0.0003435942693976062,-7.077675011531115e-06
0.021824905484955543,0.000354406712266105,-6.9031747661151876e-06
0.022218708461449396,0.00036541761575270624,-6.723218684110484e-06
0.02260503699644229,0.00037662355211717915,-6.537708392143013e-06
0.02298267382611215,0.00038802047982281775,-6.346547384158014e-06
0.0233504330178486,0.00039960375653380793,-6.149641325068857e-06
0.02370717035517509,0.00041136815737706386,-5.9468983465911395e-06
0.02405179325576438,0.00042330789827979873,-5.738229332676924e-06
0.024383270057841223,0.0004354166641082001,-5.523548192079924e-06
0.024700638538758538,0.00044768764125735006,-5.3027721157385365e-06
0.025003013560063864,0.00046011355428205564,-5.075821816853685e-06
0.025289593753566295,0.00047268670611046317,-4.842621751755555e-06
0.0255596671746994,0.0004853990213425296,-4.603100319892307e-06
0.025812615864053038,0.0004982420921022178,-4.35719004153112e-06
0.026047919281175187,0.0005112072258885249,-4.104827712033435e-06
0.02626515659948333,0.0005242854948586895,-3.845954531846631e-06
0.026464007867612143,0.0005374677859754633,-3.5805162116380927e-06
0.026644254050701265,0.0005507448514550417,-3.3084630522804666e-06
0.026805775973384034,0.000564107358961063,-3.0297499996764403e-06
0.026948552200597897,0.0005775459410045585,-2.744336674685035e-06
0.02707265591049563,0.0005910512430323319,-2.452187378675812e-06
0.027178250828749452,0.0006046139697171431,-2.1532710754884437e-06
0.027265586299576695,0.0006182249289992247,-1.8475613508093517e-06
0.027334991564994218,0.0006318750734653674,-1.5350363501932036e-06
0.027386869314937702,0.0006455555386853504,-1.2156786971555241e-06
0.027421688563816434,0.0006592576781550389,-8.894753929454268e-07
0.027439976907142963,0.0006729730945227787,-5.564176997759724e-07
0.02744231221427479,0.0006866936668031332,-2.1650100944449443e-07
0.027429313819421486,0.0007004115733115573,1.3027530058417816e-07
0.027401633285396666,0.0007141193100877618,4.83908021434008e-07
0.0273599448346513,0.0007278097046177738,8.443902751103918e-07
0.02730493556661591,0.0007414759247180906,1.211711682444358e-06
0.02723729560158966,0.000755111482510142,1.5858585342514162e-06
0.027157708302729004,0.0007687102334862217,1.966813963250507e-06
0.027066840726019628,0.0007822663707434088,2.3545581143079144e-06
0.02696533443484843,0.0007957744145336258,2.749068310627173e-06
0.026853796793790564,0.0008092291973407856,3.1503192135957757e-06
0.026732792830500878,0.0008226258447468584,3.5582829741176865e-06
0.02660283773215941,0.0008359597523875234,3.972929373401282e-06
0.02646439002821444,0.0008492265593276169,4.394225951330067e-06
0.026317845502506796,0.0008624221182102972,4.822138120714545e-06
0.02616353187147078,0.0008755424625537916,5.2566292659055675e-06
0.02600170426084614,0.0008885837715868709,5.697660824440733e-06
0.02583254151483919,0.0009015423330307921,6.145192350595149e-06
0.025656143380346153,0.0009144145042545885,6.599181559916494e-06
0.02547252862030004,0.00092719667225475,7.059584354043829e-06
0.02528163411601867,0.0009398852129388298,7.526354825342224e-06
0.02508331501119934,0.0009524764502206343,7.999445241132089e-06
0.02487734592981202,0.0009649666154558871,8.47880600755122e-06
0.0246634232738925,0.0009773518077568133,8.964385613354395e-06
0.024441168583642283,0.000989627955721197,9.456130554223898e-06
0.024210132923699702,0.0010017907810980324,9.953985238428704e-06
0.023969802245038124,0.001013835764890217,1.0457891874925767e-05
0.023719603662287748,0.0010257581163670485,1.0967790345240083e-05
0.02345891257998686,0.0010375527454276172,1.1483618060688749e-05
0.02318706059459739,0.0010492142387212632,1.200530980672597e-05
0.022903344090390895,0.0010607368398925102,1.2532797576379413e-05
0.02260703343753119,0.0010721144342744908,1.3066010394921164e-05
0.022297382689416913,0.0010833405383062278,1.3604874138066343e-05
0.021973639661687142,0.0010944082938940038,1.41493113461164e-05
0.02163505625878593,0.001105310467874122,1.4699241036558432e-05
0.021280898901113402,0.0011160394566640968,1.5254578517692986e-05
0.02091045889841699,0.0011265872961139793,1.5815235205887505e-05
0.02052306260997433,0.0011369456764910772,1.638111844903877e-05
0.02011808122817469,0.0011471059624506145,1.6952131358774193e-05
0.019694940025823206,0.001157059217764114,1.7528172653827876e-05
0.019253126925967076,0.0011667962345020615,1.810913651689442e-05
0.01879220028449684,0.0011763075663046775,1.8694912467096104e-05
0.018311795809897884,0.0011855835653282762,1.928538525000434e-05
0.01781163256997323,0.001194614422423244,1.988043474694222e-05
0.01729151804799558,0.0012033902100777362,2.0479935905067467e-05
0.01675135221617205,0.0012119009276437781,2.1083758689497844e-05
0.01619113060102038,0.0012201365483480763,2.1691768058495808e-05
0.015610946326799808,0.0012280870675800313,2.2303823962477833e-05
0.015010991139394213,0.0012357425519465798,2.2919781367359485e-05
0.014391555432883032,0.0012430931885896491,2.353949030249354e-05
0.013753027321710477,0.0012501293342782975,2.4162795933210528e-05
0.013095890818108784,0.0012568415638132522,2.4789538657733414e-05
0.01242072318325898,0.0012632207173135942,2.5419554228015127e-05
0.011728191520784827,0.0012692579459896052,2.6052673893840928e-05
0.011019048677708379,0.0012749447560392285,2.6688724569348137e-05
0.010294128517949648,0.001280273050338143,2.732752902094248e-05
0.009554340636521119,0.0012852351676267606,2.7968906075433707e-05
0.008800664580328564,0.001289823918930973,2.861267084707314e-05
0.00803414362970038,0.0012940326209834802,2.9258634982051752e-05
0.007255878178690451,0.0012978551264355778,2.9906606918906518e-05
0.006467018742515899,0.0013012858506658794,3.055639216318188e-05
0.005668758624088098,0.0013043197950075305,3.120779357460023e-05
0.004862326288013374,0.0013069525662355557,3.1860611664911005e-05
0.004048977511915345,0.001309180392185538,3.251464490451628e-05
0.0032299874046051525,0.001311000133414668,3.316969003591633e-05
0.0024066423959160444,0.0013124092908647985,3.38255423919862e-05
0.0015802323132568764,0.0013134060095420918,3.448199621708792e-05
0.0007520426651250964,0.0013139890782866872,3.513884498904511e-05
-7.665274808829044e-05,0.0013141579257659464,3.579588174005827e-05
-0.0009045987835435746,0.0013139126128830384,3.645289937472052e-05
-0.001730565373800257,0.0013132538218437024,3.71096909834022e-05
-0.002553353355890979,0.0013121828421612796,3.7766050149403446e-05
-0.0033717996970614884,0.0013107015538980414,3.8421771248418276e-05
-0.004184782143374327,0.0013088124084379325,3.907664973900227e-05
-0.004991223348226177,0.0013065184070650323,3.973048244287801e-05
-0.00579009455166531,0.0013038230775900593,4.0383067814041786e-05
-0.006580418872150035,0.0013007304492341056,4.103420619574783e-05
-0.007361274242071009,0.0012972450259555502,4.168370006454524e-05
-0.008131795981476805,0.0012933717583996634,4.2331354260634044e-05
-0.008891178981197878,0.0012891160146589946,4.2976976203898706e-05
-0.009638679467442998,0.0012844835500468344,4.362037609507516e-05
-0.010373616339059444,0.0012794804760952088,4.426136710161067e-05
-0.011095372090532091,0.0012741132289878108,4.489976552788142e-05
-0.011803393346873166,0.0012683885376284594,4.553539096953549e-05
-0.01249719104168081,0.001262313391531321,4.6168066451825436e-05
-0.013176340273636638,0.0012558950087024916,4.6797618551883886e-05
-0.01384047988064751,0.0012491408036639205,4.742387750497549e-05
-0.014489311768137664,0.0012420583557517242,4.8046677294829406e-05
-0.015122600015698312,0.0012346553778057653,4.8665855728218776e-05
