frame_number,force
0,657.9857200000362
1,658.2797566358801
2,658.5649449812537
3,658.8332642274086
4,659.0782102931331
5,659.2952511489578
6,659.482016928149
7,659.638251931336
8,659.7655878748379
9,659.8671988573129
10,659.9473793697609
11,660.0110680730604
12,660.0633402477423
13,660.1089137753177
14,660.1517408373816
15,660.194762024257
16,660.2398629447314
17,660.2880109759813
18,660.3395025040329
19,660.3942433701188
20,660.4520017212928
21,660.51258604627
22,660.5759092405103
23,660.6419184425837
24,660.7104088141078
25,660.7807846970528
26,660.8518530884421
27,660.9217097261994
28,660.9877243635931
29,661.0465932223477
30,661.0944277750829
31,661.1268770743242
32,661.139305927252
33,661.1270512455509
34,661.08575593538
35,661.0117574860101
36,660.9025043648187
37,660.756974529321
38,660.5760495261267
39,660.3627554395698
40,660.1222595849985
41,659.8615478920857
42,659.5887931838363
43,659.3125146258907
44,659.0406876632285
45,658.7799792756076
46,658.5352539568385
47,658.3094283401683
48,658.1036685516059
49,657.917853341568
50,657.7511852293455
51,657.6028188943412
52,657.4723816987805
53,657.3602860540399
54,657.2677816559747
55,657.1967558766457
56,657.1493387973393
57,657.1273937526524
58,657.1319825913622
59,657.1628973935724
60,657.2183463661315
61,657.2948632688979
62,657.3874732662923
63,657.4900991406622
64,657.5961429418875
65,657.6991429889817
66,657.7933928852572
67,657.8744190960581
68,657.9392434949892
69,657.9863993314091
70,658.0157129157017
71,658.0279045782399
72,658.0241020020937
73,658.0053882445245
74,657.9725055256678
75,657.9257940533877
76,657.8653785158431
77,657.7915514048782
78,657.7052564859601
79,657.6085466247342
80,657.5048841571229
81,657.3991842656418
82,657.2975666419197
83,657.2068462679441
84,657.1338388757573
85,657.0845844730369
86,657.0636063650143
87,657.0733136105958
88,657.1136213907457
89,657.181828143475
90,657.2727717408417
91,657.3792795198674
92,657.4928959664909
93,657.604807593119
94,657.706821765848
95,657.7922384764566
96,657.8564882480309
97,657.8974653970231
98,657.9155333657403
99,657.913213747752
100,657.894606351531
101,657.8646287895186
102,657.8281965340549
103,657.7894730037252
104,657.7513055307788
105,657.7149344329521
106,657.6800164726819
107,657.6449411314641
108,657.6073583552576
109,657.5648034491802
110,657.515299054969
111,657.4578204157366
112,657.3925281659122
113,657.320716639986
114,657.2444924945363
115,657.1662643429072
116,657.0881688716996
117,657.0115732123176
118,656.9367698720906
119,656.8629209603955
120,656.7882346820545
121,656.710303522557
122,656.6265245885352
123,656.5345519377225
124,656.4327649713493
125,656.3207442197046
126,656.1997181784385
127,656.0728992546536
128,655.9455974627175
129,655.8250187596269
130,655.7197211969985
131,655.6387839924059
132,655.5908090155365
133,655.582908749749
134,655.6198403469992
135,655.7034218653714
136,655.8323117012417
137,656.0021547990838
138,656.2060283648226
139,656.4350831870397
140,656.6792783475287
141,656.9281335529126
142,657.1714567017867
143,657.4000278656462
144,657.6062247598588
145,657.7845603818383
146,657.932083260912
147,658.0485825240443
148,658.1365536704665
149,658.2009096005195
150,658.2484495785151
151,658.287121152571
152,658.3251372279898
153,658.3700491482809
154,658.4279078368003
155,658.5026378432286
156,658.5957004420346
157,658.7060644941324
158,658.8304648680567
159,658.9639044665812
160,659.1003372539227
161,659.2334559116114
162,659.3574970195268
163,659.4679677613311
164,659.5622013055539
165,659.6396725748098
166,659.70204558625
167,659.7529636723445
168,659.7976255766692
169,659.8422096942712
170,659.8932153805189
171,659.9567889420774
172,660.0380964606856
173,660.1407959035731
174,660.2666508136751
175,660.4153247564429
176,660.5843933842744
177,660.7695860420793
178,660.9652164611061
179,661.1647196788363
180,661.3612143633978
181,661.5480384924059
182,661.7192222128623
183,661.8698582466272
184,661.9963299739576
185,662.0963748755355
186,662.1689910593062
187,662.2142243809141
188,662.2328942052987
189,662.2263240557136
190,662.1961369899805
191,662.1441501759989
192,662.0723619356168
193,661.9829853410215
194,661.8784641010996
195,661.7614141975795
196,661.6344662130566
197,661.5000339740459
198,661.3600861685558
199,661.2160147829046
200,661.0686577976737
201,660.9184643531736
202,660.7657329041923
203,660.6108341138778
204,660.4543466180725
205,660.2970704489467
206,660.1399291939769
207,659.9838141695353
208,659.8294412662765
209,659.6772727366634
210,659.5275176003995
211,659.3801960227979
212,659.2352484978124
213,659.0926747328818
214,658.9526787082393
215,658.8157756614997
216,658.6828100167538
217,658.5548686562279
218,658.4331403198502
219,658.3188120512842
220,658.2130617923938
221,658.1171266485209
222,658.0323706909228
223,657.9602854223617
224,657.9024052891399
225,657.8601608713537
226,657.8347036093344
227,657.8267318770728
228,657.8363473388689
229,657.8629747067769
230,657.9053755588708
231,657.9617700560874
232,658.0300556885836
233,658.1080914270583
234,658.1940034166937
235,658.2864628820397
236,658.3848883707373
237,658.4895351632937
238,658.6014504167589
239,658.7222841276778
240,658.8539562828448
241,658.9982065686578
242,659.1560995583076
243,659.3276024051378
244,659.51135983613
245,659.7047452851472
246,659.9041821394288
247,660.1056459415997
248,660.3052137595743
249,660.4995294613973
250,660.6860927836818
251,660.8633409476606
252,661.0305517130427
253,661.187634355553
254,661.3348873928737
255,661.4727967908198
256,661.6019271237456
257,661.7229229436381
258,661.8365989123166
259,661.9440642486867
260,662.0468079472356
261,662.1466809243132
262,662.2457558780692
263,662.3461021059378
264,662.4495432737115
265,662.5574549396412
266,662.6706230859888
267,662.7891558829901
268,662.9124340163734
269,663.039091868291
270,663.1670273746632
271,663.2934385940797
272,663.4148852963928
273,663.5273765119143
274,663.6264878687011
275,663.7075156685353
276,663.7656772190611
277,663.7963636000375
278,663.7954415523177
279,663.7595912142621
280,663.686653638583
281,663.5759423397556
282,663.4284587596783
283,663.2469610539333
284,663.0358698606095
285,662.8010345653032
286,662.5494079785138
287,662.2886764126926
288,662.0268666206716
289,661.7719157156994
290,661.5311761080177
291,661.3108575908689
292,661.1154687829976
293,660.947367734673
294,660.8065320112802
295,660.6906105377628
296,660.5952534122008
297,660.5146673187802
298,660.4423217117505
299,660.3717182945913
300,660.2971243228702
301,660.2141684045565
302,660.1202169381988
303,660.014491100769
304,659.8979375153799
305,659.7729092944005
306,659.64273032706
307,659.5112088327995
308,659.3821582045978
309,659.2589830866251
310,659.1443801583393
311,659.0401742114389
312,658.9472764103036
313,658.865732128892
314,658.7948189145137
315,658.7331558158047
316,658.6787977349188
317,658.6293110330666
318,658.5818483806676
319,658.5332536417151
320,658.4802265904185
321,658.4195597226993
322,658.3484323513853
323,658.2647260736744
324,658.1673203957563
325,658.0563322012914
326,657.9332649260356
327,657.8010301457936
328,657.6638051356421
329,657.5267027259857
330,657.3952584061897
331,657.2747851079297
332,657.1696944187516
333,657.0829049877564
334,657.0154390127612
335,656.9662635131341
336,656.9323933922296
337,656.9092453515894
338,656.8912039457864
339,656.8723305330104
340,656.8471234690925
341,656.8112280585457
342,656.7619935954224
343,656.6987886889066
344,656.6230266430773
345,656.5379117784678
346,656.4479689543073
347,656.3584464420353
348,656.2746920383772
349,656.2015985772991
350,656.1431893241787
351,656.1023665707438
352,656.0808013472742
353,656.0789207655523
354,656.0959532717953
355,656.130009622301
356,656.1781957418185
357,656.2367637652449
358,656.3013113141503
359,656.3670441284821
360,656.4291218954457
361,656.4830992791792
362,656.5254447656772
363,656.5540736689204
364,656.5687875757998
365,656.5714937162326
366,656.5660963796777
367,656.5580085633861
368,656.5533192867359
369,656.5577507571105
370,656.575614098048
371,656.6089912475104
372,656.657324136181
373,656.7174919599078
374,656.7843339721949
375,656.8514697370601
376,656.9122133937913
377,656.960387361584
378,656.9909080968396
379,657.0001103209243
380,656.9858508103763
381,656.9474609054196
382,656.8856063818778
383,656.8020920442099
384,656.6996370372486
385,656.5816475536201
386,656.4520158778222
387,656.3149659353614
388,656.1749408697817
389,656.0364993149678
390,655.9041773781947
391,655.7822957376471
392,655.6747319892007
393,655.5847085010754
394,655.5146461323467
395,655.4661068793109
396,655.4398139109528
397,655.4357194564889
398,655.4530991522391
399,655.490671528365
400,655.5467513210832
401,655.61943955737
402,655.7068416649845
403,655.8072924486703
404,655.9195501265187
405,656.0429073513761
406,656.1771766761096
407,656.3225469000382
408,656.4793483343926
409,656.6477845094245
410,656.8276900837469
411,657.0183687708543
412,657.2185418765821
413,657.4263944208665
414,657.6396673990846
415,657.8557431677042
416,658.0717064185853
417,658.2844030039117
418,658.490532005238
419,658.6867895184355
420,658.8700530174918
421,659.0375734998286
422,659.187141322919
423,659.3172061405338
424,659.4269451900827
425,659.5162803281651
426,659.5858508119312
427,659.6369599663859
428,659.6715187233277
429,659.6919954851967
430,659.7013545339696
431,659.7029472066264
432,659.7003338548146
433,659.697057736448
434,659.6964318668028
435,659.701400487657
436,659.7144941479036
437,659.737843557321
438,659.7731896760909
439,659.8218411978941
440,659.8845748464269
441,659.9615182289424
442,660.0520684823115
443,660.1548773994713
444,660.2678976518026
445,660.3884646484131
446,660.5134006944755
447,660.6391608333242
448,660.7620573592709
449,660.8785751222695
450,660.9857340943408
451,661.0814093298844
452,661.1645115819873
453,661.2349658052084
454,661.2934835985096
455,661.3411893570208
456,661.3792073786802
457,661.4083299757203
458,661.4288590169067
459,661.4406593616337
460,661.4434064406789
461,661.4369640682013
462,661.421792388471
463,661.399268605895
464,661.3718189957633
465,661.3428035396579
466,661.3161461429859
467,661.2957621295412
468,661.2849012641876
469,661.2855685948641
470,661.2981676297929
471,661.3214336352452
472,661.3526332233682
473,661.3879421489227
474,661.4228940509539
475,661.4528171480525
476,661.4732278012661
477,661.4801992508139
478,661.4707381121772
479,661.4431709983156
480,661.3974944710312
481,661.3356119988302
482,661.2613885513841
483,661.1804829730621
484,661.0999489843828
485,661.0276205058693
486,660.9713219298411
487,660.9379767610169
488,660.9327279125928
489,660.9582130221495
490,661.0141334555633
491,661.0972069180228
492,661.2015185639526
493,661.3192111845972
494,661.4413975429591
495,661.5591474076858
496,661.6644098515488
497,661.7507722656145
498,661.8139988035089
499,661.852308308465
500,661.8663608118388
501,661.8589541827312
502,661.8344923453895
503,661.7983412691354
504,661.7561999503598
505,661.7135737317523
506,661.6753791123962
507,661.6456708473489
508,661.6274723969246
509,661.622693005173
510,661.6321141146277
511,661.6554268141991
512,661.6913100754215
513,661.7375548467727
514,661.7912482141594
515,661.8490261948293
516,661.9073879209251
517,661.9630481947288
518,662.0132948700286
519,662.0563117427004
520,662.0914268001362
521,662.119250751392
522,662.1416812367801
523,662.1617660219387
524,662.1834439727822
525,662.211202921273
526,662.2496933533657
527,662.3033197009729
528,662.3758154172058
529,662.469806839416
530,662.5863852115974
531,662.7247313783788
532,662.881862937388
533,663.0525813545318
534,663.2296747217292
535,663.4043900755574
536,663.5671474541937
537,663.7084304502328
538,663.81974967709
539,663.8945454798014
540,663.9288911377157
541,663.9218833930536
542,663.8756596212055
543,663.7950484573448
544,663.6869216629108
545,663.5593545583059
546,663.4207218510302
547,663.278855753398
548,663.1403681836482
549,663.0101946669628
550,662.8913722724295
551,662.785028176419
552,662.6905304459232
553,662.6057420672101
554,662.5273305094339
555,662.4511164049215
556,662.3724752879435
557,662.2868101922646
558,662.1900864528252
559,662.0793809163498
560,661.9533625743027
561,661.8126013899932
562,661.6596117260674
563,661.498585576036
564,661.3348461531734
565,661.1741263955969
566,661.021822903524
567,660.8823769199488
568,660.7588893639971
569,660.6530034135842
570,660.5650132071997
571,660.4941093107816
572,660.4386692670809
573,660.3965413325145
574,660.3653202806687
575,660.3426345680177
576,660.3264391889063
577,660.3152647601648
578,660.3083515746046
579,660.3056166079913
580,660.3074510168334
581,660.3143999645492
582,660.3268098013708
583,660.3445255408583
584,660.3666952267255
585,660.3917125542775
586,660.4173107038739
587,660.4407929221971
588,660.4593457302651
589,660.4703502212703
590,660.471610383096
591,660.4614583393343
592,660.4387507628671
593,660.40280678724
594,660.3533426173553
595,660.2904378752935
596,660.214535918748
597,660.1264524415938
598,660.027361279298
599,659.9187432589727
600,659.8023021295768
601,659.6798552348399
602,659.5532062367282
603,659.4240220648396
604,659.2937588598097
605,659.1636787530845
606,659.0349552910355
607,658.9088096303641
608,658.7865972698044
609,658.6697908881628
610,658.5598586342853
611,658.4580875745302
612,658.3654232116137
613,658.2823768500101
614,658.2090040278799
615,658.1449115218285
616,658.0892429495161
617,658.0406321661764
618,657.9971688713676
619,657.9564486076384
620,657.9157600698766
621,657.8724098088618
622,657.8241270587018
623,657.7694549094377
624,657.7080321687608
625,657.6407033954428
626,657.5694465555093
627,657.4971526041592
628,657.4273135552826
629,657.363677329861
630,657.3099166970125
631,657.2693433192619
632,657.2446837044699
633,657.2379251554295
634,657.2502345200824
635,657.281947694453
636,657.3326220725437
637,657.4011372008076
638,657.485823629161
639,657.5846042170749
640,657.6951503721002
641,657.8150762301216
642,657.9421943670686
643,658.0748275238595
644,658.2121249781092
645,658.3542929923447
646,658.50264014771
647,658.6593778094891
648,658.8271942540454
649,659.0086962937665
650,659.2058444451355
651,659.4194927568525
652,659.6491047634742
653,659.8926713943359
654,660.1468139083132
655,660.4070251151717
656,660.6679927431114
657,660.9239536009366
658,661.1690349945728
659,661.3975500038105
660,661.6042304556507
661,661.7844026156505
662,661.9341275026223
663,662.0503374469785
664,662.1310019567928
665,662.1753385958064
666,662.1840396625624
667,662.1594343849154
668,662.105493154124
669,662.0276213802433
670,661.9322538228786
671,661.8263046479493
672,661.7165428937737
673,661.6089626196177
674,661.508217302725
675,661.4171887370577
676,661.3367516806801
677,661.2657714487655
678,661.2013341734901
679,661.1391654390624
680,661.0741594980597
681,661.0009383935023
682,660.9143869685528
683,660.8101365951611
684,660.6849711173867
685,660.5371138368561
686,660.3663596253089
687,660.174052909318
688,659.96295246807
689,659.7370377481708
690,659.5012969504072
691,659.2615100031394
692,659.0240143388205
693,658.7954289558692
694,658.5823188708385
695,658.3908074530245
696,658.226180643975
697,658.0925543475378
698,657.9926663892054
699,657.9278035339116
700,657.8978202775867
701,657.9011933445926
702,657.9350871473588
703,657.9954475196339
704,658.0771619829005
705,658.174315680205
706,658.2805427442648
707,658.3894422442513
708,658.4950135798956
709,658.592068933041
710,658.6765811590344
711,658.7459130436918
712,658.7988680986304
713,658.8355309519608
714,658.8569211794451
715,658.8645347320507
716,658.8598674732017
717,658.8440066943994
718,658.8173534370528
719,658.7795140457747
720,658.7293785933696
721,658.6653810727752
722,658.5859016195197
723,658.4897299294628
724,658.376487442825
725,658.2469234244212
726,658.1030468141112
727,657.9481009700944
728,657.7864076651273
729,657.6231019628212
730,657.4637729944374
731,657.3140309870712
732,657.179032467314
733,657.0630070281127
734,656.9688437960177
735,656.8978107323826
736,656.8494778531665
737,656.8218826340496
738,656.8119173759503
739,656.8158553575807
740,656.8298921737697
741,656.850579623043
742,656.8750697280011
743,656.9011444369112
744,656.9270598136142
745,656.9512737273974
746,656.9721511673878
747,656.9877412495492
748,656.9956861388284
749,656.993267688654
750,656.9775531594205
751,656.9455881839095
752,656.8945990608652
753,656.8221896889619
754,656.7265391529089
755,656.6066152929349
756,656.4624037883086
757,656.2951141875204
758,656.1072986690225
759,655.9028341605591
760,655.686753617388
761,655.4649289384886
762,655.2436080617099
763,655.0288292694967
764,654.8257865007824
765,654.6382614488963
766,654.468232847767
767,654.3157246770775
768,654.1788969544203
769,654.0543495231002
770,653.9376112488682
771,653.8237959166333
772,653.7083818230307
773,653.5880142026457
774,653.4611811794038
775,653.3286173014948
776,653.1933504777563
777,653.060395821423
778,652.9361687981409
779,652.8277204355782
780,652.7419032430838
781,652.6845774907246
782,652.6599612333181
783,652.6701987656336
784,652.7151753799175
785,652.7925696623183
786,652.8981240983048
787,653.0261099224891
788,653.169934241888
789,653.3227941915794
790,653.4782635103451
791,653.6307219194246
792,653.7755876869256
793,653.9093634926992
794,654.0295481936504
795,654.134493767379
796,654.223276525009
797,654.2956012135486
798,654.3517019256564
799,654.3921906006785
800,654.4178405550648
801,654.4293445177426
802,654.4271162653827
803,654.4112018971257
804,654.3813415004721
805,654.3371850878084
806,654.2786238731646
807,654.2061581457442
808,654.1212020710707
809,654.026236678514
810,653.924763658818
811,653.8210690960782
812,653.7198552149682
813,653.6258183553581
814,653.5432395814905
815,653.4756327661629
816,653.4254860255157
817,653.3941288158119
818,653.381736178608
819,653.3874461987554
820,653.4095456282957
821,653.4456865516573
822,653.4931185169377
823,653.5489346994447
824,653.610330374773
825,653.6748610601977
826,653.7406753677126
827,653.8066963813616
828,653.8727391917932
829,653.9395671714816
830,654.0088899800872
831,654.0832958741364
832,654.1661048582506
833,654.2611330570701
834,654.3723664925487
835,654.5035515362483
836,654.6577277519334
837,654.8367623037337
838,655.0409776649781
839,655.26896392603
840,655.5176176967807
841,655.7823789477417
842,656.0575984500653
843,656.3369829406582
844,656.6140969502886
845,656.8829035856054
846,657.1382977365108
847,657.3765562776706
848,657.5956267761875
849,657.795198577423
850,657.9765384447339
851,658.1421228053949
852,658.2951479607033
853,658.4390246940816
854,658.5769535292378
855,658.7116441943142
856,658.845203327236
857,658.9791739763772
858,659.1146776074085
859,659.2525973892186
860,659.393750801964
861,659.5390154632972
862,659.6893821582341
863,659.8459118286291
864,660.0095766500614
865,660.1809826844856
866,660.360007906514
867,660.5454303324275
868,660.7346445504113
869,660.9235609770664
870,661.1067565648011
871,661.2779093242386
872,661.4305043894315
873,661.5587412053706
874,661.6585034672846
875,661.7281992822573
876,661.7692719087208
877,661.7862415966152
878,661.7862530993455
879,661.7782238811777
880,661.7717646469947
881,661.77605786481
882,661.798845731802
883,661.845626097708
884,661.919113088219
885,662.0189997076554
886,662.1420449059583
887,662.2824753870168
888,662.4326466909832
889,662.5838713644247
890,662.7273070750682
891,662.8548000362844
892,662.9595929489134
893,663.036832072039
894,663.0838431422643
895,663.1001803002956
896,663.0874738475345
897,663.0491087696599
898,662.989767532999
899,662.9148800226952
900,662.8300344474006
901,662.7404003923145
902,662.6502043354673
903,662.5622980620963
904,662.4778728298681
905,662.3963782691419
906,662.3156848588205
907,662.2324746160389
908,662.1427765541972
909,662.0425272405424
910,661.928062306897
911,661.7965106645804
912,661.6461147232757
913,661.476499101617
914,661.2888674509549
915,661.086068843905
916,660.8724808610006
917,660.6537014880819
