frame_number,force
0,652.9409200000453
1,652.839136851198
2,652.7456506092947
3,652.667991581047
4,652.6122660692574
5,652.5826790853844
6,652.5812629073074
7,652.6078124165072
8,652.6600200781418
9,652.7337910109109
10,652.8236959543964
11,652.9235013605899
12,653.0267130714168
13,653.1270807016192
14,653.2190246093057
15,653.2979595176139
16,653.360499525237
17,653.4045435742943
18,653.4292576990982
19,653.4349814186338
20,653.4230827102278
21,653.3957729115166
22,653.3558828528705
23,653.3066054838091
24,653.251227306781
25,653.1928875891348
26,653.1344042910624
27,653.0781839085186
28,653.0262005037221
29,652.9800049931687
30,652.9407195218712
31,652.9089849672516
32,652.8848623005995
33,652.8677350551155
34,652.8562967137226
35,652.8486980477542
36,652.8428631028252
37,652.8368968626103
38,652.8294642844913
39,652.8200420093128
40,652.8089981452011
41,652.7975044375767
42,652.7873195357455
43,652.7804982213728
44,652.7790679856248
45,652.7846826535005
46,652.7982538848205
47,652.8195955965804
48,652.8471626532289
49,652.8779790963595
50,652.9078194023484
51,652.9316459185621
52,652.9442415989687
53,652.9409280169663
54,652.9182358054993
55,652.8744049853613
56,652.8096335789287
57,652.7260473657731
58,652.6274098752117
59,652.5186224250845
60,652.405089887979
61,652.2920582534649
62,652.1840525890811
63,652.0845292294938
64,651.9957897909911
65,651.9191151132535
66,651.8550175192884
67,651.8035080970259
68,651.7643119796231
69,651.7370006941755
70,651.7210335799471
71,651.7157234484296
72,651.7201688544474
73,651.733206681921
74,651.7534228539263
75,651.7792347227197
76,651.8090422235053
77,651.8414216921484
78,651.8752973353359
79,651.9100020447528
80,651.945166965262
81,651.9804505864658
82,652.0151960740059
83,652.0481555852856
84,652.0774168102688
85,652.1006020043391
86,652.1153099658146
87,652.1196847191645
88,652.1129548979624
89,652.0957989561955
90,652.0704373887869
91,652.0404139136355
92,652.010090419582
93,651.9839420965228
94,651.9657927275551
95,651.9581553042669
96,651.9618208301852
97,651.9757723283439
98,651.9974169122252
99,652.0230566434469
100,652.0484815869922
101,652.0695704109326
102,652.0828093307897
103,652.0856711728269
104,652.0768298369933
105,652.0562228092532
106,652.0250007129922
107,651.9853992973785
108,651.9405452858531
109,651.8941954280899
110,651.8504191348973
111,651.81324718953
112,651.7863064345424
113,651.7724568042975
114,651.773457977777
115,651.7897112939534
116,651.8201336095876
117,651.862215560124
118,651.9122919665087
119,651.9660055355344
120,652.0188881454574
121,652.0669414929549
122,652.1070955751026
123,652.1374650203595
124,652.1573858609204
125,652.1672641267659
126,652.1682903810461
127,652.162086167856
128,652.1503603752309
129,652.1346538695128
130,652.1162232480989
131,652.0960625845802
132,652.0750115092885
133,652.0538797868052
134,652.0335425807452
135,652.0150052673856
136,651.999465907598
137,651.9883941761391
138,651.983605299901
139,651.9872708915572
140,652.0018084500759
141,652.0296300948755
142,652.072784301621
143,652.1325668238002
144,652.2091943011533
145,652.3016202345715
146,652.407533774268
147,652.5235362015104
148,652.6454571015715
149,652.7687573227887
150,652.8889636545756
151,653.0020838007974
152,653.104953342596
153,653.1954686440391
154,653.2726706189588
155,653.3366697887326
156,653.3884335448636
157,653.4294786939375
158,653.4615224093815
159,653.4861455407457
160,653.5045163211311
161,653.5172093752842
162,653.524136432937
163,653.5245905361415
164,653.5174001518362
165,653.5011839850439
166,653.47468134599
167,653.4371152908442
168,653.3885438226273
169,653.3301655352885
170,653.2645471344833
171,653.1957233426982
172,653.1291071674706
173,653.0711625345982
174,653.0288296126772
175,653.0087465522984
176,653.0163778061205
177,653.0552189886729
178,653.1262560235514
179,653.2277903992612
180,653.3556381105385
181,653.503623602898
182,653.6642511796805
183,653.8294388322287
184,653.9912195988735
185,654.1423375684003
186,654.2766928793961
187,654.3896252217777
188,654.4780535079025
189,654.5404966570844
190,654.5769933388268
191,654.5889322538237
192,654.5788079687786
193,654.5499308528081
194,654.5061319925064
195,654.4514978437978
196,654.3901418371651
197,654.3259892300132
198,654.2625420595101
199,654.2026174768772
200,654.1481031535707
201,654.0998077823463
202,654.057467448441
203,654.0199114537415
204,653.9853448000625
205,653.9516973050108
206,653.9169972312001
207,653.8797214879091
208,653.8390658224065
209,653.7950910611081
210,653.748731676926
211,653.7016795405734
212,653.6561695726724
213,653.6146984682706
214,653.579706233336
215,653.55324763492
216,653.5366833576503
217,653.5304296892608
218,653.533812983055
219,653.5450687982432
220,653.5614998589699
221,653.5797706913795
222,653.5962889150584
223,653.6076194221598
224,653.6108942576662
225,653.6041909068754
226,653.5868347827335
227,653.5595560400394
228,653.5244333283155
229,653.484600094726
230,653.4437516035431
231,653.4055422942319
232,653.3729876691725
233,653.3479866699538
234,653.3310621864184
235,653.3213693561132
236,653.3169497996855
237,653.3151501377479
238,653.3131020964787
239,653.308172400853
240,653.2983154184852
241,653.282291903443
242,653.2597471793446
243,653.2311622304395
244,653.1976978805794
245,653.1609540700746
246,653.1226759579406
247,653.0844572803442
248,653.0475025724971
249,653.0124969227866
250,652.9796003985037
251,652.9485554542271
252,652.918879305035
253,652.890100464103
254,652.8619817854421
255,652.8346595742593
256,652.8086352484546
257,652.7845900773675
258,652.7630491358909
259,652.7439828188036
260,652.7264776075248
261,652.7086024404726
262,652.687537989549
263,652.659957495254
264,652.6225863303051
265,652.5728275048442
266,652.5093160325125
267,652.4322730907875
268,652.34358807771
269,652.2466382315947
270,652.1459102768426
271,652.0464969295183
272,651.9535322725153
273,651.8716354802418
274,651.8044428714538
275,651.7542942536862
276,651.7221005184182
277,651.7073857439136
278,651.7084843154003
279,651.7228644660747
280,651.7475295323175
281,651.7794313600996
282,651.8158331113599
283,651.8545725484086
284,651.8941884824435
285,651.9338898940944
286,651.9733812321065
287,652.0125989121472
288,652.0514385374039
289,652.0895446839439
290,652.1261996092328
291,652.1603051143851
292,652.1904295313568
293,652.2148983560262
294,652.2319238543874
295,652.2397721317092
296,652.2369515339799
297,652.2223885904284
298,652.1955527453895
299,652.1565021342827
300,652.1058435784015
301,652.0446253040125
302,651.974203863047
303,651.8961351837755
304,651.8121263787968
305,651.7240590239168
306,651.6340739746468
307,651.5446969055862
308,651.4589671352236
309,651.3805019955322
310,651.3134093610812
311,651.2619879284623
312,651.2302336188437
313,651.2212596431285
314,651.236779248875
315,651.2767730719613
316,651.3394001820069
317,651.4211561459226
318,651.5172443162332
319,651.6220986459456
320,651.7299756985278
321,651.8355287284995
322,651.9342916051731
323,652.0230288531296
324,652.0999401244745
325,652.1647314519497
326,652.218572330748
327,652.2639482899142
328,652.3044036339704
329,652.3441598449832
330,652.3876024461927
331,652.4386613068355
332,652.500161594835
333,652.573269560835
334,652.6571673619272
335,652.7490509006883
336,652.8444687091189
337,652.9379422869334
338,653.0237596631331
339,653.0968154160666
340,653.153364651159
341,653.1915676830423
342,653.2117420114356
343,653.2162984842331
344,653.2093899902071
345,653.1963346014954
346,653.1829034309608
347,653.1745904397545
348,653.1759903378718
349,653.1903828795806
350,653.2195630016588
351,653.2638972404237
352,653.3225527625508
353,653.3938346809949
354,653.4755660405445
355,653.565447106988
356,653.6613410905152
357,653.7614567405215
358,653.86442872725
359,653.9693191119692
360,654.0755650917191
361,654.1828836186744
362,654.2911317752355
363,654.4001271336504
364,654.5094478575087
365,654.6182435233035
366,654.7250939736397
367,654.8279613840479
368,654.9242815675691
369,655.0112140204739
370,655.0860132844534
371,655.1464275930398
372,655.1910173885485
373,655.2193291422869
374,655.2319256290592
375,655.2303143614795
376,655.2168130501074
377,655.1943647458497
378,655.1662969932353
379,655.1360252054797
380,655.1067246494559
381,655.081016882174
382,655.0607174564998
383,655.0466746174683
384,655.0387102019477
385,655.0356641564296
386,655.0355398551202
387,655.0357400968868
388,655.0333664811088
389,655.0255322528111
390,655.0096291125286
391,654.9835057135438
392,654.9455516612211
393,654.8947138622386
394,654.8304848204174
395,654.7528933236007
396,654.6625065175523
397,654.5604286985492
398,654.4482686484928
399,654.3280575386229
400,654.2021280464033
401,654.0729876408785
402,653.9432208984882
403,653.8154423279567
404,653.6922978743714
405,653.5764859713012
406,653.4707575102733
407,653.3778750722515
408,653.3005478537123
409,653.2413694096923
410,653.2027568199471
411,653.1868560098808
412,653.1953784188061
413,653.2293676256508
414,653.2889289297744
415,653.3729672650293
416,653.478970431605
417,653.602864835534
418,653.7389811231801
419,653.88019327501
420,654.0183003372788
421,654.1446717421169
422,654.251084463347
423,654.3305929193901
424,654.3782430064992
425,654.3914886969644
426,654.3702687749172
427,654.3167998742447
428,654.2351918730519
429,654.130984201503
430,654.0106674560573
431,653.8812247023612
432,653.74970813372
433,653.622856539662
434,653.506755056451
435,653.4065349689463
436,653.3261063521545
437,653.2679214002487
438,653.2327871312973
439,653.2197644231123
440,653.226184731357
441,653.2477944038593
442,653.2790242094354
443,653.3133834141832
444,653.3439769305625
445,653.3641282155016
446,653.3680597291893
447,653.351545360693
448,653.3124217650742
449,653.2508470614708
450,653.1692347649181
451,653.0718594333293
452,652.9642054089429
453,652.8521851591994
454,652.741371413787
455,652.6363652311535
456,652.5403718055259
457,652.4549958598529
458,652.3802232093898
459,652.3145486806119
460,652.255239915014
461,652.1987489179434
462,652.1412599446517
463,652.0793073341398
464,652.0103571817
465,651.9332478542167
466,651.8484148726502
467,651.7578637541849
468,651.6648920726008
469,651.573602049543
470,651.4882846863742
471,651.412785134764
472,651.349965510581
473,651.3013564482617
474,651.2670338779436
475,651.2456968404451
476,651.2348870868043
477,651.2312892160957
478,651.2310644254649
479,651.2301881520771
480,651.2247794524234
481,651.2114215137366
482,651.1874684691818
483,651.15131641792
484,651.1026014645487
485,651.0422846663818
486,650.9725897578471
487,650.8967703711558
488,650.8187061701256
489,650.7423703824979
490,650.6712655786386
491,650.6079616252457
492,650.5538604197258
493,650.5092489068867
494,650.4736094654637
495,650.4460799435911
496,650.4259283991086
497,650.4129267067403
498,650.4075439236651
499,650.4109196276403
500,650.4246273401869
501,650.4502953548287
502,650.4891870335978
503,650.5418329109593
504,650.6077667378808
505,650.6853795782779
506,650.7718910786525
507,650.8634435201668
508,650.9553345947927
509,651.042399680233
510,651.1195280453775
511,651.1822607920104
512,651.2273858339519
513,651.2534245926626
514,651.2609041814916
515,651.2523403953729
516,651.2319219359333
517,651.2049590392388
518,651.1772051235293
519,651.1541684289701
520,651.1405185858841
521,651.1396733329866
522,651.1536209613525
523,651.1829948155771
524,651.2273741043722
525,651.2857423708839
526,651.3569955563015
527,651.4403731186673
528,651.5357042550748
529,651.6434149607337
530,651.7643135727865
531,651.8992365909162
532,652.0486654043017
533,652.2124090116295
534,652.3894073964532
535,652.5776739588432
536,652.7743735464948
537,652.9760126163773
538,653.1786904244274
539,653.3783389384816
540,653.5708882306828
541,653.752337281476
542,653.9187638824053
543,654.0663441536501
544,654.1914590127456
545,654.2909372150096
546,654.3624277287117
547,654.4048353960922
548,654.418725320082
549,654.4066077494922
550,654.3730364268134
551,654.3244765841584
552,654.2689260651988
553,654.2153043570353
554,654.1726551587518
555,654.1492367095861
556,654.1515982334055
557,654.1837589145069
558,654.2466180779285
559,654.3377220099826
560,654.4514751221823
561,654.5798052828779
562,654.713195846343
563,654.8419165163872
564,654.9572499379825
565,655.052522257684
566,655.1237866353962
567,655.1700689701042
568,655.1931639076836
569,655.1970495963568
570,655.1870391754537
571,655.1687954238657
572,655.1473301988035
573,655.1261196708031
574,655.1064792983719
575,655.0873252805258
576,655.0653849725898
577,655.035824536088
578,654.993173772549
579,654.9323718854064
580,654.8497398853766
581,654.7437057995307
582,654.6151671721395
583,654.4674542833487
584,654.3059274204446
585,654.1372901634015
586,653.9687366566661
587,653.8070768069337
588,653.6579886886828
589,653.5255243528994
590,653.4119421741541
591,653.3178583411882
592,653.2426215023756
593,653.1847576439313
594,653.1423381661696
595,653.1131861982283
596,653.0949172583779
597,653.0848744472304
598,653.0800513185718
599,653.0770957895485
600,653.0724496524364
601,653.0626057769236
602,653.044401484721
603,653.0152591154294
604,652.9733284939847
605,652.917535412693
606,652.8475672445717
607,652.7638349892262
608,652.6674470674369
609,652.5602102134305
610,652.444639533375
611,652.3239357563391
612,652.201895224968
613,652.0827506008259
614,651.970968955109
615,651.8710392838508
616,651.7872665907809
617,651.7235703323917
618,651.6832740014352
619,651.668871922442
620,651.6817670640876
621,651.7219934530499
622,651.7879697500156
623,651.8763606270091
624,651.9821236786772
625,652.0987800589157
626,652.2188806870246
627,652.3345795242668
628,652.4382086108537
629,652.5227895439324
630,652.5824774391565
631,652.6129595177625
632,652.6118047945527
633,652.5787218147602
634,652.5156714698024
635,652.4268073471623
636,652.318249430972
637,652.1977103144025
638,652.0739863409033
639,651.95632513616
640,651.853703691875
641,651.7740859053531
642,651.7237524035583
643,651.7067956986515
644,651.7248474731128
645,651.7770592163977
646,651.8603098660152
647,651.9695810932975
648,652.098430539672
649,652.2395052976846
650,652.3850590145777
651,652.5274467874071
652,652.6595717931185
653,652.7752648686137
654,652.8695956864194
655,652.9391186700402
656,652.9820374013408
657,652.9982510892842
658,652.9892515027356
659,652.9578635225748
660,652.9078453693438
661,652.8433815059229
662,652.7685262778307
663,652.686691078399
664,652.6002883011788
665,652.5106266362172
666,652.418094020335
667,652.3225868447571
668,652.2240717669938
669,652.1231250190201
670,652.0213042471053
671,651.9212691556512
672,651.826649399814
673,651.7417213915111
674,651.6709809653964
675,651.6186940969691
676,651.5884866062217
677,651.5830012643942
678,651.6036152077019
679,651.6501936743497
680,651.7208758890278
681,651.8119335306707
682,651.9177759746015
683,652.031178209436
684,652.1437832141675
685,652.2468852238161
686,652.3324266394246
687,652.3940511932966
688,652.4279946175126
689,652.4336081899153
690,652.4134042050985
691,652.3726374981898
692,652.3185314224813
693,652.2592922646365
694,652.2030501393941
695,652.1568498785763
696,652.1258079991287
697,652.1125437713149
698,652.1169693073133
699,652.1364787064346
700,652.1665132279074
701,652.2014102237208
702,652.2353863085791
703,652.263480870503
704,652.282306542595
705,652.2905065519807
706,652.2888763873901
707,652.2801539947108
708,652.2685258694901
709,652.2589407786503
710,652.2563558572899
711,652.2650446694537
712,652.2880678489563
713,652.3269541149998
714,652.381586540264
715,652.4502600276356
716,652.5298757884786
717,652.6162510187795
718,652.7045283651813
719,652.7896651547929
720,652.8669722790634
721,652.9326580698792
722,652.9843113343185
723,653.0212419344724
724,653.0446065084224
725,653.0572840688005
726,653.0635173628667
727,653.0683834369861
728,653.0771819718886
729,653.0948218456102
730,653.1252592142393
731,653.1710228557097
732,653.2328647811374
733,653.309581092164
734,653.3980447382578
735,653.4934774045167
736,653.5899635534562
737,653.6811688314119
738,653.7611672061473
739,653.825232485587
740,653.8704464057975
741,653.8960228600931
742,653.903319510527
743,653.8955785741746
744,653.877490349826
745,653.8546827429132
746,653.8331981754214
747,653.8189605496453
748,653.817214448927
749,653.8319527965969
750,653.8654031840426
751,653.9176760846423
752,653.9866740297242
753,654.0683195426668
754,654.1570899455373
755,654.2467746892308
756,654.3313278584051
757,654.4056825578419
758,654.4664047225107
759,654.5120791093065
760,654.543352318204
761,654.5626180057775
762,654.5734073788623
763,654.5796202650266
764,654.5847729981659
765,654.591426209784
766,654.6008867561696
767,654.6131877867848
768,654.6272861141549
769,654.6413926545746
770,654.6533505810087
771,654.6609801394111
772,654.6623234070759
773,654.6557524744159
774,654.6399439869112
775,654.6137615435994
776,654.5761151033217
777,654.5258716966372
778,654.4618697484583
779,654.3830494945628
780,654.2886732100673
781,654.1785887893184
782,654.0534904679973
783,653.9151353632384
784,653.7664707891815
785,653.6116216133809
786,653.4556970790447
787,653.3044094362649
788,653.1635416292605
789,653.0383439316353
790,652.9329693899274
791,652.8500592727354
792,652.790546115202
793,652.7536643308936
794,652.7370925524924
795,652.7371405346314
796,652.7489342162179
797,652.76660733301
798,652.7835456442854
799,652.7927405916943
800,652.7872883123337
801,652.761016935783
802,652.7091601593424
803,652.6289524017751
804,652.5200202364099
805,652.3844807769234
806,652.2267132238943
807,652.0528309073172
808,651.869938669136
809,651.6853031503421
810,651.5055757293024
811,651.3361813285758
812,651.1809358165789
813,651.0419081027247
814,650.9195120506826
815,650.8127897135649
816,650.7198269912964
817,650.6382323314449
818,650.5656110514768
819,650.4999791266399
820,650.4400793635501
821,650.3855844525491
822,650.3371850728055
823,650.2965649150754
824,650.2662664653519
825,650.2494562948859
826,650.2496044911206
827,650.2700995583268
828,650.3138293895217
829,650.3827716560879
830,650.4776513537984
831,650.5977291149358
832,650.7407686767773
833,650.9031963231456
834,651.0804220570653
835,651.2672564279015
836,651.4583427142287
837,651.6485378282508
838,651.8332047738887
839,652.0084057167081
840,652.1710021408583
841,652.3186813466934
842,652.4499329727342
843,652.5639886269457
844,652.6607209223042
845,652.7404943589842
846,652.8039762728683
847,652.8519399387926
848,652.885108644523
849,652.9040910055134
850,652.909440101058
851,652.9018308375069
852,652.8823012031871
853,652.8524685460271
854,652.8146346390048
855,652.7717339331325
856,652.7271376367343
857,652.684375090762
858,652.646851566215
859,652.6176228112831
860,652.5992472731718
861,652.5937016156696
862,652.6023305187881
863,652.6258090353888
864,652.6641142328708
865,652.7165184517032
866,652.7816185538494
867,652.8574013995362
868,652.9413265202381
869,653.0304015703143
870,653.12124367108
871,653.2101500684087
872,653.2932221474671
873,653.3665799277495
874,653.4266747130895
875,653.4706771719775
876,653.4968967227567
877,653.5051706662703
878,653.4971501346579
879,653.4764164384436
880,653.4483882753943
881,653.4200124593742
882,653.3992516056882
883,653.3943938764257
884,653.4132312856437
885,653.4621947084039
886,653.5455774338507
887,653.664986836055
888,653.8191168077097
889,654.0038581218784
890,654.2127028872121
891,654.4373695645329
892,654.6685661932986
893,654.8968089106803
894,655.1132143252231
895,655.3101848363249
896,655.4819100519779
897,655.6246273996267
898,655.736626449992
899,655.8180334777282
900,655.8704566808377
901,655.8965923478765
902,655.899880392007
903,655.8842621102308
904,655.8540536237431
905,655.8139174950282
906,655.768890930839
907,655.7244101946195
908,655.6862649729472
909,655.6604325020434
910,655.6527761958467
911,655.6686328512872
912,655.7123447547872
913,655.78681319475
914,655.8931518439587
915,656.030499093714
916,656.1960170182759
917,656.3850741885396
