frame_number,force
0,582.5702500000405
1,582.4653744805904
2,582.3651127039202
3,582.273719567908
4,582.1947635908136
5,582.1308542356765
6,582.0834406147575
7,582.0527026339735
8,582.0375646161816
9,582.0358507681183
10,582.044567864884
11,582.0602719959707
12,582.079472718459
13,582.0990349017709
14,582.1165381843446
15,582.1305513374489
16,582.1407851715036
17,582.1481028795046
18,582.1543840236277
19,582.1622520487945
20,582.1746866132414
21,582.1945594054323
22,582.2241583062071
23,582.2647888242473
24,582.3165460301959
25,582.3783228962385
26,582.448064870036
27,582.5232126649429
28,582.6012183621167
29,582.6799961825975
30,582.7581934718031
31,582.8352345098207
32,582.9111692428596
33,582.9864103635273
34,583.0614453475038
35,583.1365808599577
36,583.2117470490638
37,583.2863758576475
38,583.3593638838644
39,583.4291194826332
40,583.4936719973417
41,583.5508078173407
42,583.5982134459606
43,583.6336391256777
44,583.6551110566735
45,583.6611931131594
46,583.651249345595
47,583.6256298949455
48,583.5857194907355
49,583.5338345479402
50,583.4729980164853
51,583.4066407550259
52,583.3382815347787
53,583.2712368594212
54,583.2083993193229
55,583.1520917630252
56,583.1039746288257
57,583.0649816339802
58,583.0352810740992
59,583.0142820039946
60,583.0007093082712
61,582.9927559691794
62,582.9882946000013
63,582.9851119076849
64,582.981128883168
65,582.9745793818645
66,582.9641307278649
67,582.948938922437
68,582.9286376748822
69,582.9032670842832
70,582.8731600735772
71,582.8388226189634
72,582.8008521790442
73,582.7599172384125
74,582.7167726692699
75,582.6722469222372
76,582.627144976623
77,582.5820671257447
78,582.5372142876439
79,582.4922894138869
80,582.4465806086795
81,582.3992340428991
82,582.3496384946964
83,582.297791490007
84,582.2445182207579
85,582.1914682259273
86,582.1409010345678
87,582.095348209634
88,582.0572656659208
89,582.0287605104303
90,582.0114187193407
91,582.0062101770719
92,582.0134274397751
93,582.0326248610526
94,582.0625526925551
95,582.1011085522222
96,582.1453433347439
97,582.191558635107
98,582.2355196439127
99,582.2727804144237
100,582.2990851168003
101,582.3107882618335
102,582.3052409349108
103,582.2811111141032
104,582.2386262540531
105,582.1797345644235
106,582.1081754731224
107,582.0294315352306
108,581.9505165025647
109,581.8795563795742
110,581.8251468880272
111,581.7955159211364
112,581.797580223673
113,581.8360477170426
114,581.9127451106261
115,582.0263158074767
116,582.1723468707653
117,582.3438902349449
118,582.5322783415279
119,582.7281008634516
120,582.9221970463824
121,583.1065283170667
122,583.2748294461007
123,583.4229818441632
124,583.5490969913684
125,583.6533378630029
126,583.7375384174348
127,583.8047011948748
128,583.8584607015546
129,583.9025943171149
130,583.9406340347366
131,583.9755823473978
132,584.0096958505559
133,584.0443073669263
134,584.0797009282229
135,584.1150819596738
136,584.1486708248517
137,584.177916811703
138,584.1998127973799
139,584.2112858042259
140,584.2096290818886
141,584.1929284872082
142,584.160430214958
143,584.1127969527516
144,584.0522030560668
145,583.9822369093455
146,583.9076127981555
147,583.8337269419995
148,583.7661086708656
149,583.7098246498102
150,583.6689039131902
151,583.6458660345705
152,583.6414403620022
153,583.6545409408569
154,583.6825053669638
155,583.7215355890547
156,583.7672223837646
157,583.8150187970095
158,583.8605673619816
159,583.8998655788071
160,583.9293250442538
161,583.9458032330949
162,583.9466676472872
163,583.9299171009202
164,583.8943528716051
165,583.8397687122558
166,583.767113524802
167,583.6785733396954
168,583.5775225116146
169,583.4683114539695
170,583.3558871894991
171,583.2452784924767
172,583.141020072877
173,583.0466316282526
174,582.9642776092032
175,582.8946885033566
176,582.837340990224
177,582.7908183041686
178,582.7532386946312
179,582.7226519587362
180,582.6973411950179
181,582.6760060516197
182,582.6578339978981
183,582.6424871991334
184,582.6300419908031
185,582.6209111038839
186,582.6157611014435
187,582.6154215158499
188,582.6207722018174
189,582.6325911370184
190,582.6513537749303
191,582.6769995184401
192,582.7087049114111
193,582.7447108611328
194,582.7822445560734
195,582.8175653576693
196,582.8461521812075
197,582.8630377633366
198,582.8632813893469
199,582.8425508917909
200,582.7977515007648
201,582.7276031073919
202,582.6330548388944
203,582.5174500466751
204,582.3863983721236
205,582.2473522816147
206,582.1089246646286
207,581.9800299853839
208,581.8689722369521
209,581.782616504066
210,581.7257602998457
211,581.7007784287314
212,581.7075688797754
213,581.7437852299314
214,581.8053009823473
215,581.8868179877685
216,581.9825210569458
217,582.086699058278
218,582.1942810272178
219,582.3012546302969
220,582.404942100652
221,582.5041143914731
222,582.5989342233108
223,582.6907334961323
224,582.7816471364935
225,582.8741415214814
226,582.9704913169169
227,583.0722728102639
228,583.1799485135282
229,583.2926084508512
230,583.4079059866622
231,583.5221899065839
232,583.6308034659694
233,583.728500548908
234,583.8099183930665
235,583.8700503099412
236,583.9046806446113
237,583.9107594608722
238,583.8866915652816
239,583.8325078552313
240,583.7498975218884
241,583.6421043853333
242,583.5137127989642
243,583.3703595142144
244,583.2184068867329
245,583.0646009420803
246,582.9157216502158
247,582.7782228524122
248,582.65786029748
249,582.5593164467178
250,582.4858491744284
251,582.439011940089
252,582.4184952224633
253,582.4221093668879
254,582.4458887308101
255,582.484284600788
256,582.5304395352563
257,582.5765709108366
258,582.6145015649321
259,582.6363443616123
260,582.6352891312363
261,582.606390374955
262,582.5472366460353
263,582.4583904896125
264,582.3435062471955
265,582.2090652082065
266,582.0637225386971
267,581.9173324927002
268,581.7797913174213
269,581.6598888407685
270,581.5643633641649
271,581.4973018603532
272,581.4599432604906
273,581.4508612127992
274,581.4664465119803
275,581.5015868045133
276,581.5504417380689
277,581.6072142377831
278,581.6668181643502
279,581.7253536978084
280,581.7803334650808
281,581.8306493424778
282,581.8763220878059
283,581.9181192562505
284,581.9571406427117
285,581.9944470701329
286,582.0307705388149
287,582.0663225997567
288,582.1007161829025
289,582.1330109045163
290,582.1618677215934
291,582.185768445167
292,582.2032440950793
293,582.2130692231923
294,582.2144019289027
295,582.2068699409465
296,582.1906183769938
297,582.1663372632694
298,582.1352730743832
299,582.0992080481349
300,582.060376662995
301,582.0212896690048
302,581.9844584519286
303,581.9520506501623
304,581.9255426874173
305,581.9054505034131
306,581.8912129048808
307,581.8812715059175
308,581.8733383473152
309,581.8647867496716
310,581.8530750087648
311,581.836124288184
312,581.8125946961607
313,581.7820164341259
314,581.7447501642827
315,581.7017900666888
316,581.6544698698317
317,581.6041559085913
318,581.5520022831369
319,581.4988164087684
320,581.4450543787354
321,581.3909374825444
322,581.3366518692083
323,581.2825675081841
324,581.2294025998643
325,581.178273229769
326,581.1305974827582
327,581.0878542162462
328,581.0512270573478
329,581.0211977542725
330,580.9971790080259
331,580.9772765431001
332,580.9582422349981
333,580.9356421942662
334,580.9042318076229
335,580.858508808814
336,580.7934008949054
337,580.7050232548991
338,580.5914049191458
339,580.4530482308292
340,580.2931884260354
341,580.1176720710788
342,579.934447279968
343,579.7527264630138
344,579.5819389382767
345,579.4306357596145
346,579.3055257423346
347,579.2107917516265
348,579.147769184254
349,579.1149979746239
350,579.1086091921503
351,579.1229736376793
352,579.1515112748482
353,579.1875392977319
354,579.2250351156756
355,579.2592135752595
356,579.2868573275497
357,579.3063826796376
358,579.3176642768908
359,579.3216809802065
360,579.3200792709033
361,579.3147648266189
362,579.3076093536492
363,579.3003000905043
364,579.2942960424962
365,579.2908255595951
366,579.2908726936734
367,579.2951343564753
368,579.3039646721911
369,579.3173469272389
370,579.3349410626762
371,579.356239994183
372,579.3808322684193
373,579.408720528572
374,579.4405982786458
375,579.477965328086
376,579.522995302186
377,579.5781569118545
378,579.6456829931599
379,579.7270203490227
380,579.8223749841324
381,579.930430362596
382,580.0482866189823
383,580.1716379339916
384,580.2951621302279
385,580.413056011179
386,580.5196382949607
387,580.6099593582029
388,580.6803747520236
389,580.729033288234
390,580.7562039302699
391,580.7643477666797
392,580.7578664820337
393,580.7425350968276
394,580.7247187871486
395,580.7105274093399
396,580.7050526027841
397,580.7117844037235
398,580.7322585755771
399,580.7659615148151
400,580.8105032546041
401,580.8620384445741
402,580.915869437138
403,580.9671282396987
404,581.0114267181922
405,581.0453856615939
406,581.0669829062692
407,581.0756821189932
408,581.0723220281938
409,581.0587766854103
410,581.0374421296208
411,581.0106477866765
412,580.980113452211
413,580.9465604396777
414,580.9095372833772
415,580.8674594629222
416,580.8178224930912
417,580.7575424909613
418,580.6833938745862
419,580.5925229955114
420,580.4830018155736
421,580.354354845734
422,580.2079686437755
423,580.047292001728
424,579.8777590396157
425,579.7064138314825
426,579.5412761291016
427,579.3905451894212
428,579.2617694084419
429,579.1611035023107
430,579.092744106909
431,579.05859426298
432,579.0581622413348
433,579.0886592005667
434,579.1452433816213
435,579.2213759946171
436,579.3092893770261
437,579.4005893691457
438,579.4869960496948
439,579.561171720329
440,579.6175228846394
441,579.6528322189541
442,579.6665980459569
443,579.661023067614
444,579.6406665958749
445,579.6118224082148
446,579.5817024298597
447,579.557513440973
448,579.5455257206949
449,579.5502442338696
450,579.5737924080746
451,579.6156053110387
452,579.6725022398825
453,579.7391541681793
454,579.8088805686125
455,579.874640130003
456,579.9300563051452
457,579.9703360379597
458,579.9929701847117
459,579.9981327091685
460,579.9887269321581
461,579.9700706929009
462,579.9492711645486
463,579.93439714138
464,579.9335802441301
465,579.9541531075693
466,580.0018865665076
467,580.0803586773058
468,580.1904932531089
469,580.3303277142567
470,580.4950760537769
471,580.6775200082612
472,580.868698895844
473,581.0588086221782
474,581.2381877230215
475,581.3982647015487
476,581.5323579616302
477,581.6362484494991
478,581.7084770853847
479,581.7503513732644
480,581.7656804542164
481,581.7602916736188
482,581.7414019290234
483,581.7169142705044
484,581.6946926142577
485,581.6818559029591
486,581.6841374532294
487,581.705365854683
488,581.7471285913135
489,581.8086739058916
490,581.8870839127749
491,581.9777061862068
492,582.0747748688173
493,582.1721165219813
494,582.2638384103601
495,582.3449275992826
496,582.4117249550039
497,582.4622581258848
498,582.4964150730829
499,582.5159313652142
500,582.5241766307917
501,582.5257643310991
502,582.5260497784494
503,582.5305908994089
504,582.5446168347777
505,582.5725091058534
506,582.617287520155
507,582.6801254197122
508,582.7599769227621
509,582.8534353429014
510,582.9549174909495
511,583.0571886225482
512,583.1521532670705
513,583.2317790745669
514,583.2890022900194
515,583.3184765572388
516,583.3170667871943
517,583.2840493801608
518,583.2210413199263
519,583.1317205906579
520,583.0214052456998
521,582.8965405632001
522,582.7641351461968
523,582.6312014732914
524,582.5042695631201
525,582.3890251396929
526,582.2900836235954
527,582.2108795721425
528,582.1536421779875
529,582.1194293831618
530,582.1081907934098
531,582.1188265587466
532,582.1492256909906
533,582.1963061563819
534,582.2561079002198
535,582.3239772236007
536,582.3948409669892
537,582.4635426357419
538,582.5252111723951
539,582.5756284863213
540,582.6115357390369
541,582.6307978481858
542,582.6323727839481
543,582.6161068904219
544,582.5824504668223
545,582.5322094981055
546,582.4664120939638
547,582.386305293677
548,582.2934504058883
549,582.1898678969734
550,582.0781820978145
551,581.9617144709642
552,581.8444725669883
553,581.7309950313781
554,581.6260497134525
555,581.5342313369473
556,581.459544118489
557,581.4050607871061
558,581.3727149665928
559,581.3632296036295
560,581.376146306214
561,581.4099134327369
562,581.4620006685658
563,581.5290232662884
564,581.6068804535627
565,581.6909328415172
566,581.7762490670781
567,581.8579398367235
568,581.9315755261055
569,581.993653302219
570,582.0420391579287
571,582.0762701984324
572,582.0975916106629
573,582.1086490972239
574,582.1128613890465
575,582.1136161513213
576,582.1135007080895
577,582.1137593978965
578,582.1140839685702
579,582.1127448693613
580,582.1069951090842
581,582.0936341575128
582,582.0696107201768
583,582.032568602534
584,581.9812775475839
585,581.9159110518001
586,581.8381338313501
587,581.7509719560014
588,581.6584771734575
589,581.5652452762316
590,581.4758775368498
591,581.3944782294612
592,581.3242702115675
593,581.267388156893
594,581.2248732728168
595,581.1968502331937
596,581.1828314166644
597,581.1820759610692
598,581.1939286616289
599,581.2180665719474
600,581.2545891070966
601,581.3039131038787
602,581.366484522899
603,581.4423787054433
604,581.5309033675626
605,581.6303215335096
606,581.7377742882337
607,581.8494238489761
608,581.9607796183589
609,582.0671296815253
610,582.1639855709877
611,582.2474616672065
612,582.3145475146613
613,582.3632767742106
614,582.3928288947724
615,582.4035999092391
616,582.3972436021523
617,582.3766347027787
618,582.3456793900081
619,582.3089236072966
620,582.2709813844319
621,582.235885615166
622,582.2065083656634
623,582.1841850794132
624,582.1686185156178
625,582.1580686647955
626,582.1497853034424
627,582.1406145131926
628,582.1276930590112
629,582.1091251451105
630,582.0845258776427
631,582.0553322010512
632,582.0248252872361
633,581.9978600783627
634,581.9803397645302
635,581.9784997993521
636,581.9980823693452
637,582.043495375715
638,582.1170637599754
639,582.218488562508
640,582.3446119307303
641,582.4895359271795
642,582.645081180651
643,582.8015286676858
644,582.9485680064938
645,583.0763596942058
646,583.1765953980033
647,583.2434171917583
648,583.2740508570139
649,583.2690383210082
650,583.2320252798871
651,583.1691496582977
652,583.0881467916081
653,582.997317573227
654,582.9045072055184
655,582.8162360579578
656,582.7371124763725
657,582.6696194898723
658,582.6142892520601
659,582.5701825652789
660,582.5355237066486
661,582.5083331175721
662,582.4869389346306
663,582.4702982910901
664,582.4581030491421
665,582.4506847170261
666,582.4487673790444
667,582.4531323279622
668,582.4642495896373
669,582.4819152100144
670,582.5049328973073
671,582.530900555697
672,582.5561790226888
673,582.5760970477023
674,582.5853850136741
675,582.5787698383334
676,582.5516366976548
677,582.500661624608
678,582.4243186122476
679,582.3231680180137
680,582.199864925479
681,582.0588911662858
682,581.9060808407121
683,581.7480409866664
684,581.5915627724489
685,581.4430958642463
686,581.3083342930581
687,581.1919354793263
688,581.0973691502227
689,581.0268812729481
690,580.9815582823604
691,580.9614748469908
692,580.9658988951869
693,580.9935163634005
694,581.0426297277727
695,581.1112835327717
696,581.1972869001178
697,581.2981413799548
698,581.4109278313616
699,581.5322328616339
700,581.6581851284144
701,581.7846249982784
702,581.9073725273173
703,582.0225235455557
704,582.1267041959018
705,582.2172332698528
706,582.2921643157864
707,582.3502091295187
708,582.3905791387435
709,582.4128028606237
710,582.4165740546006
711,582.4016692052604
712,582.3679636303673
713,582.3155689701683
714,582.245091056554
715,582.1579642849148
716,582.0567800913641
717,581.9455137772375
718,581.8295662277844
719,581.7155655029693
720,581.6109125257552
721,581.5231056331661
722,581.4589358044511
723,581.4236859514301
724,581.4204674182091
725,581.4497880077039
726,581.5094019474027
727,581.5944631559632
728,581.697975042567
729,581.8114870550302
730,581.9259409602103
731,582.0325434373973
732,582.1235494016056
733,582.1928751693086
734,582.2365022159954
735,582.2526621663121
736,582.2418064305187
737,582.2063713753108
738,582.1503685515818
739,582.0788591438675
740,581.9973928066099
741,581.9114875591985
742,581.8262040300988
743,581.7458377176699
744,581.6737272008982
745,581.6121620793492
746,581.5623718336498
747,581.524575959791
748,581.4980736762753
749,581.4813567443389
750,581.4722435331705
751,581.4680459729074
752,581.4657827952262
753,581.4624398458836
754,581.4552576282775
755,581.4420100262424
756,581.4212341149272
757,581.3923758059577
758,581.355825887478
759,581.3128376428941
760,581.2653383550396
761,581.2156631851634
762,581.1662445933935
763,581.1192867482215
764,581.0764539065304
765,581.0386139488343
766,581.0056939756296
767,580.9766983688888
768,580.949898362345
769,580.9231474547149
770,580.8942425376089
771,580.8612485434833
772,580.8227273100727
773,580.7778487364327
774,580.726400129856
775,580.668731444811
776,580.6056728322841
777,580.538442777192
778,580.4685452993344
779,580.3976494742091
780,580.3274572985196
781,580.2595826412028
782,580.1954693856802
783,580.1363701085535
784,580.0833957374257
785,580.0376326562101
786,580.0003004381953
787,579.9728953351389
788,579.957254662833
789,579.9555019303338
790,579.9698760929509
791,580.0024760820218
792,580.0549521022238
793,580.1281738593764
794,580.2219274232245
795,580.3347200787774
796,580.4637678401565
797,580.6051913128082
798,580.7543778796282
799,580.9064187614127
800,581.0565198661968
801,581.2003139671233
802,581.3340518048456
803,581.4546985085568
804,581.5599899008272
805,581.6485018256452
806,581.7197564054704
807,581.7743463184783
808,581.8140264728231
809,581.8417169819943
810,581.8613736732958
811,581.8776989173725
812,581.8956891357838
813,581.9200551131926
814,581.9545999390172
815,582.001671650853
816,582.0618015241
817,582.1335959088696
818,582.2138918476468
819,582.2981384428363
820,582.3809374235485
821,582.4566635631329
822,582.5200827461454
823,582.5668944195629
824,582.5941461300993
825,582.6004892067926
826,582.5862563335064
827,582.5533528995345
828,582.5049806092998
829,582.4452496911729
830,582.3787593302761
831,582.3102145171631
832,582.2441112082319
833,582.18449110789
834,582.1347585370573
835,582.0975540469135
836,582.0746810317726
837,582.0670849186148
838,582.0748914054013
839,582.0975139965993
840,582.1338337255943
841,582.1824321236022
842,582.2418296965387
843,582.3106662896017
844,582.3877720818061
845,582.4721101149828
846,582.5626005565091
847,582.6578562795264
848,582.7558834933252
849,582.853835609049
850,582.9479275634013
851,583.033590198852
852,583.1058739457819
853,583.1600349962624
854,583.1921885954629
855,583.1999029674129
856,583.1826273593066
857,583.1418838630266
858,583.0811896575377
859,583.0057090773349
860,582.9216680672512
861,582.8356016503359
862,582.7535444511482
863,582.6802966370509
864,582.6188803682517
865,582.5702506955249
866,582.5332757671113
867,582.5049745289673
868,582.4809791528758
869,582.4561574211501
870,582.42529802677
871,582.3837499432748
872,582.3279249290931
873,582.2556130067796
874,582.1661062402277
875,582.0601610591364
876,581.9398477348094
877,581.8083333062186
878,581.6696233250174
879,581.5282661552307
880,581.389022618561
881,581.2565257469314
882,581.1349790415536
883,581.0279393443141
884,580.9381942133002
885,580.8676992202666
886,580.8175262039573
887,580.7878005226956
888,580.7776492221504
889,580.7852079447339
890,580.807721268744
891,580.8417271302935
892,580.8832780984062
893,580.9281535816325
894,580.9720531650717
895,581.0107977093035
896,581.0405712912911
897,581.0582125985877
898,581.0615322115248
899,581.0496112303223
900,581.0230265507276
901,580.9839443564464
902,580.9360328571852
903,580.8841779292592
904,580.8340369171301
905,580.7915106727144
906,580.7622194624586
907,580.751029409605
908,580.7616292047501
909,580.7961461244463
910,580.8548233695604
911,580.935825783379
912,581.0352581372275
913,581.147449137328
914,581.2654876441021
915,581.3819306508396
916,581.489564777894
