frame_number,force
0,686.3957229436371
1,686.3973931575855
2,686.3978726583701
3,686.3972353103893
4,686.3955591346022
5,686.3929257231267
6,686.3894196417687
7,686.3851278258696
8,686.3801389741534
9,686.3745429451226
10,686.3684301609369
11,686.3618910244854
12,686.3550153563933
13,686.3478918595099
14,686.3406076183318
15,686.3332476394376
16,686.3258944365857
17,686.3186276614616
18,686.3115237792075
19,686.3046557873394
20,686.2980929769699
21,686.2919007355594
22,686.2861403902428
23,686.2808690900574
24,686.2761397242507
25,686.2720008726592
26,686.2684967833422
27,686.2656673725676
28,686.2635482429721
29,686.2621707170775
30,686.261561884771
31,686.261744664123
32,686.262737874769
33,686.2645563227172
34,686.2672108957763
35,686.2707086697425
36,686.2750530261078
37,686.2802437818382
38,686.286277330946
39,686.2931467965873
40,686.3008421916932
41,686.3093505861887
42,686.3186562796918
43,686.3287409794766
44,686.3395839836408
45,686.3511623688543
46,686.3634511816364
47,686.3764236326429
48,686.3900512948709
49,686.4043043079913
50,686.4191515912023
51,686.4345610659933
52,686.4504998888924
53,686.4669346935931
54,686.4838318419521
55,686.5011576837848
56,686.5188788259705
57,686.5369624120215
58,686.5553764131805
59,686.5740899304025
60,686.5930735034824
61,686.6122994205011
62,686.6317420188069
63,686.6513779682989
64,686.6711865286056
65,686.6911497733589
66,686.7112527766088
67,686.73148375813
68,686.7518341858566
69,686.7722988350741
70,686.7928758052334
71,686.8135664958997
72,686.8343755430976
73,686.8553107165476
74,686.8763827777033
75,686.8976052984145
76,686.9189944403959
77,686.940568696287
78,686.9623485940006
79,686.984356367434
80,687.0066155983351
81,687.0291508353997
82,687.0519871968555
83,687.0751499620969
84,687.0986641573649
85,687.122554140812
86,687.1468431935691
87,687.1715531247783
88,687.1967038987864
89,687.2223132913208
90,687.2483965793664
91,687.2749662680277
92,687.3020318574581
93,687.3295996533609
94,687.3576726246616
95,687.3862503112451
96,687.4153287831759
97,687.4449006508642
98,687.4749551236902
99,687.5054781131788
100,687.5364523760859
101,687.5678576925039
102,687.5996710739007
103,687.6318669954952
104,687.6644176465995
105,687.697293192118
106,687.7304620388537
107,687.7638911014818
108,687.7975460644377
109,687.8313916373054
110,687.8653918027219
111,687.8995100572154
112,687.9337096461765
113,687.967953793986
114,688.0022059297049
115,688.0364299084841
116,688.0705902291689
117,688.1046522489494
118,688.1385823958042
119,688.1723483787345
120,688.2059193945785
121,688.2392663288963
122,688.2723619474475
123,688.3051810745076
124,688.3377007545719
125,688.3699003942991
126,688.4017618815018
127,688.4332696778258
128,688.464410881672
129,688.495175257746
130,688.525555229268
131,688.5555458287917
132,688.5851446044965
133,688.6143514809764
134,688.6431685764111
135,688.6715999806612
136,688.6996515007922
137,688.7273303819701
138,688.7546450128204
139,688.7816046248358
140,688.808218994912
141,688.8344981590748
142,688.8604521446591
143,688.8860907275499
144,688.9114232199929
145,688.936458292705
146,688.9612038329022
147,688.9856668378433
148,689.0098533419144
149,689.0337683745836
150,689.0574159469294
151,689.0807990654779
152,689.1039197727292
153,689.1267792133187
154,689.1493777233193
155,689.1717149382065
156,689.1937899129825
157,689.2156012466901
158,689.2371472037805
159,689.2584258262868
160,689.279435032514
161,689.3001726994394
162,689.3206367273013
163,689.3408250859875
164,689.3607358435987
165,689.3803671779689
166,689.3997173723413
167,689.4187847971041
168,689.4375678802801
169,689.4560650700254
170,689.4742747923744
171,689.4921954065613
172,689.5098251585888
173,689.5271621321997
174,689.54420419589
175,689.5609489450881
176,689.5773936396312
177,689.5935351380709
178,689.6093698322685
179,689.6248935877026
180,689.6401016957898
181,689.654988843571
182,689.669549103756
183,689.6837759453357
184,689.6976622624333
185,689.7112004170923
186,689.7243822907083
187,689.7371993392127
188,689.7496426486879
189,689.7617029899793
190,689.7733708723539
191,689.7846365971247
192,689.7954903125507
193,689.805922071314
194,689.8159218914423
195,689.8254798206962
196,689.8345860036378
197,689.8432307505245
198,689.8514046081142
199,689.8590984338255
200,689.8663034754904
201,689.873011458722
202,689.8792146830566
203,689.8849061272124
204,689.8900795634313
205,689.8947296808356
206,689.8988522175266
207,689.902444100449
208,689.9055035908481
209,689.9080304316446
210,689.9100259916246
211,689.9114934006761
212,689.9124376708447
213,689.9128657994735
214,689.9127868524931
215,689.912212027439
216,689.9111546966567
217,689.9096304312914
218,689.9076570063048
219,689.9052543866421
220,689.9024446954452
221,689.8992521667985
222,689.8957030870582
223,689.8918257295439
224,689.8876502870112
225,689.88320880517
226,689.878535119207
227,689.8736647942724
228,689.8686350701796
229,689.8634848098884
230,689.8582544508118
231,689.8529859577718
232,689.8477227762423
233,689.8425097837929
234,689.8373932363877
235,689.8324207052326
236,689.8276409998979
237,689.8231040741779
238,689.8188609117599
239,689.8149633892112
240,689.811464114835
241,689.8084162438774
242,689.8058732725433
243,689.8038888141032
244,689.8025163597431
245,689.8018090255116
246,689.8018192859379
247,689.8025986951635
248,689.8041975972652
249,689.8066648279722
250,689.8100474099425
251,689.8143902436217
252,689.8197357957941
253,689.8261237882227
254,689.8335908894004
255,689.8421704136576
256,689.8518920334415
257,689.8627815118004
258,689.8748604623075
259,689.8881461425242
260,689.9026512847984
261,689.9183839651291
262,689.9353475073812
263,689.9535404166703
264,689.9729563331116
265,689.9935839964849
266,690.0154072142435
267,690.038404828866
268,690.0625506841852
269,690.0878135927733
270,690.1141573076554
271,690.1415405022688
272,690.1699167630177
273,690.1992345988467
274,690.2294374720291
275,690.2604638544602
276,690.2922473141414
277,690.3247166362701
278,690.3577959819435
279,690.3914050857234
280,690.4254594921407
281,690.4598708306954
282,690.4945471285278
283,690.5293931592853
284,690.564310825727
285,690.5991995725293
286,690.6339568249924
287,690.6684784493763
288,690.7026592316035
289,690.7363933725431
290,690.7695749994291
291,690.8020986941033
292,690.833860039515
293,690.8647561855959
294,690.894686434062
295,690.923552839656
296,690.9512608235502
297,690.9777197931154
298,691.0028437610333
299,691.026551956182
300,691.0487694189567
301,691.0694275741204
302,691.0884647741964
303,691.1058268056248
304,691.1214673488129
305,691.135348382597
306,691.1474405240093
307,691.157723295424
308,691.1661853125846
309,691.1728243884435
310,691.1776475494247
311,691.1806709628196
312,691.1819197764354
313,691.1814278739498
314,691.1792375511116
315,691.1753991186866
316,691.1699704380551
317,691.1630163948446
318,691.154608315068
319,691.144823327398
320,691.1337436752722
321,691.1214559837362
322,691.1080504876998
323,691.0936202298244
324,691.0782602372201
325,691.0620666865574
326,691.0451360673288
327,691.0275643530842
328,691.00944619058
329,690.9908741167466
330,690.9719378128884
331,690.9527234043787
332,690.9333128123506
333,690.9137831619303
334,690.8942062499436
335,690.874648073925
336,690.855168423355
337,690.8358205329199
338,690.8166507962056
339,690.7976985371865
340,690.7789958366303
341,690.7605674107247
342,690.7424305389043
343,690.7245950369932
344,690.7070632712384
345,690.6898302091718
346,690.672883504389
347,690.6562036139748
348,690.6397639489718
349,690.6235310592157
350,690.6074648533788
351,690.5915188533633
352,690.5756404802668
353,690.5597713681843
354,690.5438477026131
355,690.5278005818423
356,690.5115564017244
357,690.4950372661164
358,690.4781614265967
359,690.4608437553546
360,690.4429962542731
361,690.4245286016301
362,690.4053487358416
363,690.3853634732611
364,690.3644791547782
365,690.3426023151148
366,690.3196403699062
367,690.2955023176908
368,690.2700994549598
369,690.2433461016452
370,690.2151603325262
371,690.1854647078757
372,690.1541869945976
373,690.1212608675155
374,690.0866265801524
375,690.0502315956022
376,690.0120311701164
377,689.9719888836463
378,689.9300771123392
379,689.8862774381423
380,689.8405809906866
381,689.7929887168599
382,689.7435115741383
383,689.692170644848
384,689.6389971700311
385,689.5840325034472
386,689.5273279883952
387,689.4689447621844
388,689.4089534947616
389,689.3474340688444
390,689.2844752089975
391,689.2201740666007
392,689.1546357665844
393,689.0879729202012
394,689.0203051065392
395,688.9517583246046
396,688.8824644177819
397,688.8125604730527
398,688.7421881982581
399,688.67149328172
400,688.600624739262
401,688.5297342535778
402,688.4589755099802
403,688.3885035314668
404,688.3184740155805
405,688.2490426760224
406,688.1803645929493
407,688.112593576462
408,688.045881547353
409,687.9803779380248
410,687.9162291154288
411,687.853577827328
412,687.7925626729503
413,687.7333175988821
414,687.675971420878
415,687.6206473723063
416,687.5674626802822
417,687.5165281712514
418,687.4679479088995
419,687.4218188684114
420,687.3782306513713
421,687.3372652444242
422,687.2989968225822
423,687.2634915957859
424,687.2308076958512
425,687.2009951004552
426,687.1740955909668
427,687.1501427411148
428,687.1291619334285
429,687.1111704002647
430,687.0961772863893
431,687.0841837306415
432,687.0751829650296
433,687.069160430272
434,687.0660939067376
435,687.0659536586957
436,687.0687025881604
437,687.0742963932884
438,687.0826837258483
439,687.0938063429169
440,687.1075992495863
441,687.1239908317158
442,687.142902980141
443,687.1642512100456
444,687.1879447812604
445,687.2138868266032
446,687.2419744954549
447,687.2720991185774
448,687.3041463985037
449,687.3379966288275
450,687.3735249460904
451,687.4106016191606
452,687.4490923816553
453,687.488858812011
454,687.5297587635113
455,687.5716468443277
456,687.6143749465498
457,687.6577928227443
458,687.7017487073758
459,687.7460899781584
460,687.7906638501458
461,687.8353180938124
462,687.8799017673715
463,687.924265953036
464,687.9682644870184
465,688.0117546736903
466,688.0545979749005
467,688.0966606657688
468,688.1378144486674
469,688.1779370180288
470,688.2169125702886
471,688.2546322555161
472,688.2909945694746
473,688.3259056863513
474,688.3592797334325
475,688.3910390103013
476,688.4211141565987
477,688.4494442732085
478,688.4759770017754
479,688.5006685672795
480,688.5234837880661
481,688.5443960568876
482,688.5633872952696
483,688.5804478824635
484,688.5955765596583
485,688.6087803097856
486,688.6200742131483
487,688.6294812793374
488,688.6370322562253
489,688.6427654167627
490,688.6467263237842
491,688.6489675723785
492,688.6495485088227
493,688.6485349246152
494,688.6459987236503
495,688.6420175600216
496,688.6366744437389
497,688.630057312393
498,688.622258568444
499,688.6133745835821
500,688.6035051729548
501,688.5927530430168
502,688.5812232174754
503,688.5690224462178
504,688.5562586022468
505,688.5430400716724
506,688.5294751418252
507,688.5156713926128
508,688.5017350963852
509,688.4877706316521
510,688.4738799156014
511,688.4601618592923
512,688.4467118479477
513,688.4336212474171
514,688.4209769368166
515,688.4088608666243
516,688.3973496412235
517,688.3865141251304
518,688.3764190728384
519,688.3671227830781
520,688.3586767790705
521,688.3511255168798
522,688.3445061241739
523,688.3388481716217
524,688.3341734791186
525,688.3304959594384
526,688.3278215027327
527,688.3261479057606
528,688.325464849264
529,688.3257539259951
530,688.326988721604
531,688.3291349510937
532,688.3321506540004
533,688.3359864509966
534,688.3405858631223
535,688.345885693067
536,688.3518164666577
537,688.3583029320439
538,688.3652646133406
539,688.3726164142286
540,688.3802692654095
541,688.3881308083744
542,688.3961061070427
543,688.4040983787875
544,688.4120097373434
545,688.419741941741
546,688.4271971468535
547,688.4342786516394
548,688.4408916406139
549,688.4469439128742
550,688.4523465916957
551,688.4570148067675
552,688.4608683407074
553,688.4638322314881
554,688.4658373227467
555,688.4668207548563
556,688.4667263913591
557,688.4655051776143
558,688.4631154306838
559,688.4595230612838
560,688.4547017303057
561,688.4486329438922
562,688.4413060916514
563,688.4327184319058
564,688.4228750265538
565,688.4117886273085
566,688.3994795149458
567,688.3859752930075
568,688.3713106366981
569,688.3555269969005
570,688.3386722588538
571,688.320800355163
572,688.3019708331409
573,688.2822483769207
574,688.261702285573
575,688.2404059097682
576,688.2184360511025
577,688.1958723298549
578,688.1727965287837
579,688.1492919225454
580,688.1254426038953
581,688.1013328184077
582,688.0770463189082
583,688.0526657493534
584,688.0282720659087
585,688.0039440009223
586,687.9797575738231
587,687.9557856517256
588,687.9320975616896
589,687.9087587563411
590,687.8858305349136
591,687.8633698221981
592,687.8414290079571
593,687.8200558490287
594,687.7992934354805
595,687.7791802204381
596,687.7597501106835
597,687.7410326124046
598,687.7230530244906
599,687.7058326711982
600,687.6893891667181
601,687.6737367052889
602,687.6588863713491
603,687.6448464647289
604,687.6316228362581
605,687.6192192294124
606,687.6076376235102
607,687.5968785733883
608,687.5869415397303
609,687.5778252040285
610,687.5695277627569
611,687.5620471960254
612,687.5553815058868
613,687.5495289188331
614,687.544488046905
615,687.5402580028467
616,687.5368384666095
617,687.5342297029314
618,687.5324325325106
619,687.5314482619332
620,687.53127857918
621,687.5319254218236
622,687.5333908242654
623,687.5356767492998
624,687.5387849084293
625,687.5427165748013
626,687.547472392448
627,687.5530521856773
628,687.559454772673
629,687.5666777873076
630,687.5747175129231
631,687.5835687316472
632,687.5932245925553
633,687.6036765011135
634,687.6149140306242
635,687.6269248544922
636,687.6396946970183
637,687.6532073004615
638,687.6674444068339
639,687.6823857537444
640,687.6980090843666
641,687.7142901720778
642,687.7312028603235
643,687.7487191179367
644,687.7668091099288
645,687.7854412838091
646,687.8045824714698
647,687.8241980062661
648,687.8442518541103
649,687.8647067564942
650,687.885524382767
651,687.9066654888966
652,687.9280900804115
653,687.9497575783272
654,687.9716269883264
655,687.9936570745759
656,688.0158065398249
657,688.0380342129667
658,688.0602992445234
659,688.0825613100334
660,688.104780821419
661,688.1269191469515
662,688.1489388408843
663,688.1708038837379
664,688.1924799335253
665,688.2139345871217
666,688.2351376497031
667,688.2560614087679
668,688.2766809077892
669,688.2969742132076
670,688.3169226675474
671,688.3365111213686
672,688.3557281377726
673,688.3745661648073
674,688.3930216723672
675,688.4110952504599
676,688.4287916653708
677,688.4461198699178
678,688.4630929637929
679,688.4797281000391
680,688.4960463346263
681,688.5120724182541
682,688.5278345321566
683,688.5433639717163
684,688.5586947831125
685,688.5738633599425
686,688.5889080091963
687,688.6038684983192
688,688.6187855960864
689,688.6337006191815
690,688.6486549943979
691,688.6636898443146
692,688.6788456026514
693,688.6941616640185
694,688.7096760710737
695,688.7254252403629
696,688.741443726923
697,688.7577640273328
698,688.7744164208455
699,688.7914288477722
700,688.808826823164
701,688.8266333824633
702,688.8448690547174
703,688.8635518583478
704,688.8826973143786
705,688.9023184724904
706,688.9224259458452
707,688.943027950603
708,688.9641303456298
709,688.9857366681506
710,689.0078481624658
711,689.03046380052
712,689.0535802940682
713,689.0771920982761
714,689.1012914064017
715,689.1258681352183
716,689.1509099009184
717,689.1764019850652
718,689.2023272899554
719,689.2286662831704
720,689.2553969323418
721,689.2824946325427
722,689.3099321292491
723,689.3376794391862
724,689.3657037703692
725,689.3939694423159
726,689.4224378081415
727,689.4510671816936
728,689.4798127743721
729,689.5086266471667
730,689.5374576834788
731,689.5662515877165
732,689.5949509138422
733,689.6234951273176
734,689.6518207033889
735,689.6798612642585
736,689.70754775692
737,689.7348086721163
738,689.7615703033392
739,689.7877570434475
740,689.8132917153293
741,689.8380959319329
742,689.8620904799899
743,689.8851957211087
744,689.9073320039683
745,689.9284200822161
746,689.9483815339333
747,689.9671391796282
748,689.9846174967028
749,690.0007430294576
750,690.0154447947217
751,690.0286546837257
752,690.0403078607458
753,690.0503431581571
754,690.0587034658956
755,690.0653361117418
756,690.0701932282094
757,690.0732321018535
758,690.0744155002526
759,690.0737119702766
760,690.0710960995679
761,690.0665487328139
762,690.0600571356488
763,690.0516151011873
764,690.041222996436
765,690.0288877475034
766,690.0146227631583
767,689.9984477959844
768,689.9803887402179
769,689.960477366472
770,689.9387509958885
771,689.9152521186412
772,689.8900279632347
773,689.8631300237549
774,689.8346135525644
775,689.8045370261273
776,689.7729615918587
777,689.739950504428
778,689.705568560681
779,689.6698815426339
780,689.6329556774173
781,689.5948571220811
782,689.5556514805274
783,689.5154033596075
784,689.474175971132
785,689.4320307858807
786,689.389027244802
787,689.3452225317925
788,689.3006714117689
789,689.2554261369011
790,689.2095364226104
791,689.1630494933436
792,689.1160101963325
793,689.0684611797179
794,689.0204431298936
795,688.9719950621973
796,688.9231546592588
797,688.873958651818
798,688.8244432367529
799,688.7746445261054
800,688.7245990196119
801,688.6743440922504
802,688.6239184878148
803,688.5733628094004
804,688.5227199976729
805,688.4720357877852
806,688.421359136088
807,688.3707426085342
808,688.320242723505
809,688.2699202422248
810,688.219840400231
811,688.1700730739124
812,688.120692876577
813,688.0717791781587
814,688.0234160418249
815,687.9756920707446
816,687.9287001600636
817,687.8825371523999
818,687.8373033991096
819,687.7931022336293
820,687.7500393669006
821,687.7082222176678
822,687.6677591919945
823,687.6287589268459
824,687.5913295122939
825,687.5555777059751
826,687.521608151991
827,687.489522614777
828,687.4594192367014
829,687.431391826194
830,687.4055291809925
831,687.3819144489019
832,687.3606245269951
833,687.3417294999091
834,687.325292118441
835,687.3113673203576
836,687.3000017961879
837,687.2912336040489
838,687.2850918388318
839,687.2815963614112
840,687.2807575926652
841,687.2825763757841
842,687.2870439095068
843,687.2941417547271
844,687.3038419168523
845,687.3161070057376
846,687.3308904736914
847,687.3481369302424
848,687.367782530581
849,687.3897554332299
850,687.4139763217042
851,687.4403589843544
852,687.4688109455776
853,687.4992341399542
854,687.5315256190898
855,687.5655782796446
856,687.6012816004705
857,687.6385223771845
858,687.6771854440107
859,687.717154374947
860,687.7583121581973
861,687.8005418386732
862,687.8437271234021
863,687.887752944518
864,687.9325059745214
865,687.9778750889266
866,688.0237517724896
867,688.0700304669891
868,688.116608860604
869,688.1633881207631
870,688.2102730735288
871,688.2571723330667
872,688.3039983848785
873,688.3506676268051
874,688.3971003725675
875,688.4432208231723
876,688.4889570110199
877,688.534240719968
878,688.5790073828964
879,688.623195957451
880,688.6667487808356
881,688.7096114054009
882,688.7517324177935
883,688.7930632450382
884,688.8335579509787
885,688.8731730264376
886,688.9118671768344
887,688.9496011118252
888,688.986337342167
889,689.0220399888302
890,689.0566746082834
891,689.0902080364563
892,689.1226082529788
893,689.1538442672958
894,689.1838860288944
895,689.2127043644518
896,689.240270944569
897,689.2665582817775
898,689.2915397601097
899,689.3151896952122
900,689.3374834228036
901,689.358397412135
902,689.3779094001919
903,689.3959985420696
904,689.4126455732695
905,689.4278329801012
906,689.4415451744132
907,689.4537686686291
908,689.4644922469253
909,689.4737071283571
910,689.4814071176631
911,689.4875887397538
912,689.4922513551458
913,689.4953972556121
914,689.4970317410289
915,689.4971631790033
916,689.495803048469
