acceleration,velocity,displacement
0.026425811996266993,0.0,0.0
0.024191613871589752,1.2654356466964187e-05,3.1635891167410466e-09
0.021963114987771506,2.41930386818045e-05,1.2375437903933218e-08
0.01974597114573125,3.4620310215180194e-05,2.707877512817939e-08
0.017545751960762627,4.3943240991803664e-05,4.6719662929925354e-08
0.015367899464040881,5.217165384800454e-05,7.07483866398774e-08
0.013217688642132448,5.931805087454787e-05,9.86208128205155e-08
0.011100190438872346,6.539752064479907e-05,1.2979970570035222e-07
0.009020237675321688,7.042762767334758e-05,1.6375599277988888e-07
0.006982394269058362,7.442828565944259e-05,1.9996997111308643e-07
0.004990928051724377,7.742161623963827e-05,2.3793244658785663e-07
0.0030497873960484926,7.943179510158149e-05,2.771457994231616e-07
0.0011625817759490084,8.048488739458087e-05,3.171249700472022e-07
-0.0006674337005414038,8.060867441343277e-05,3.573983604992056e-07
-0.002437369824177445,7.983247353225306e-05,3.9750864748562705e-07
-0.004144710986741862,7.818695332952323e-05,4.3701350420107114e-07
-0.005787319197548517,7.570394578345064e-05,4.754862289793146e-07
-0.0073634345795357626,7.241625733917957e-05,5.125162797599722e-07
-0.008871672524397791,6.835748056319618e-05,5.477097142355662e-07
-0.010311017705066526,6.35618080058301e-05,5.806895363778227e-07
-0.01168081516359402,5.806384978866496e-05,6.110959508264464e-07
-0.012980758703624843,5.1898456321860246e-05,6.385865273540777e-07
-0.014210876820452753,4.510054744084085e-05,6.62836278294753e-07
-0.015371516408933484,3.770494913349429e-05,6.835376524383368e-07
-0.01646332450539329,2.9746238904912593e-05,7.004004494479385e-07
-0.01748722833739663,2.1258600694215112e-05,7.131516593477205e-07
-0.018444413963352443,1.2275690119027844e-05,7.215352320510312e-07
-0.019336303777439178,2.830510683829939e-06,7.253117822517456e-07
-0.02016453314221571,-7.044698546083784e-06,7.242582352861822e-07
-0.020930926405550342,-1.73185634330253e-05,7.181674197914048e-07
-0.02163747256377338,-2.796066317535623e-05,7.068476131393095e-07
-0.0222863008388265,-3.89416065260062e-05,6.901220457139688e-07
-0.02287965643423285,-5.023309584427104e-05,6.678283701213995e-07
-0.02341987672273072,-6.180797913351194e-05,6.398181013769537e-07
-0.023909368098704028,-7.364029033887063e-05,6.05956034008858e-07
-0.024350583698343833,-8.570527828813259e-05,5.661196418521073e-07
-0.024746002151167176,-9.797942475051034e-05,5.201984660924465e-07
-0.025098107487958852,-0.00011044045216029184,4.68093496864746e-07
-0.025409370301272105,-0.00012306732160759958,4.0971655342277313e-07
-0.025682230237019175,-0.0001358402217421724,3.4498966758533013e-07
-0.025919079888962672,-0.00014874054927366785,2.7384447483137004e-07
-0.02612225016870148,-0.00016175088178808388,1.9622161706593213e-07
-0.026293997221649518,-0.00017485494363567164,1.1207016070999324e-07
-0.026436490944620136,-0.00018803756567723905,2.1347033381765558e-08
-0.02655180513527681,-0.00020128463969721328,-7.598351796184753e-08
-0.026641909276379508,-0.00021458306830012737,-1.799504449611827e-07
-0.026708661933225495,-0.0002279207111025286,-2.905763898118467e-07
-0.026753805723440178,-0.00024128632801669503,-4.078781495916526e-07
-0.026778963805437025,-0.00025466952039891435,-5.318671116955549e-07
-0.026785637823395946,-0.0002680606708061226,-6.625496594968142e-07
-0.02677520724109371,-0.00028145088207224504,-7.999275477164061e-07
-0.026748929995215363,-0.0002948319163813223,-9.43998247329798e-07
-0.02670794439825662,-0.0003081961349796903,-1.0947552601700512e-06
-0.026653272218133246,-0.00032153643913378774,-1.2521884036984206e-06
-0.02658582285585055,-0.00033484621290228367,-1.4162840667074384e-06
-0.026506398535147947,-0.0003481192682500333,-1.5870254369955176e-06
-0.02641570040837802,-0.0003613497929859148,-1.7643927023045045e-06
-0.026314335472076466,-0.0003745323019560284,-1.94836322603999e-06
-0.026202824181562806,-0.0003876615918694382,-2.138911699496357e-06
-0.026081608664598608,-0.00040073270008097854,-2.336010272483961e-06
-0.025951061454588618,-0.00041374086761077533,-2.5396286644068994e-06
-0.025811494676972496,-0.0004266815066436656,-2.7497342579705098e-06
-0.02566316961562664,-0.0004395501727168154,-2.96629217781063e-06
-0.025506306563223523,-0.00045234254176152795,-3.189265356430216e-06
-0.025341094832473328,-0.00046505439211045214,-3.4186145898982107e-06
-0.02516770277986243,-0.00047768159151353605,-3.654298585804208e-06
-0.024986287670892206,-0.0004902200891262247,-3.896274005964148e-06
-0.024797005200895863,-0.0005026659123441717,-4.144495506331747e-06
-0.024600018486116374,-0.0005150151682659247,-4.398915776484271e-06
-0.024395506358384896,-0.00052726404947705,-4.659485580920015e-06
-0.02418367082641014,-0.0005394088437732488,-4.926153804232589e-06
-0.023964743598327252,-0.0005514459473794332,-5.19886750202076e-06
-0.023738991590393898,-0.0005633718811766135,-5.477571959159772e-06
-0.023506721376781326,-0.0005751833094184073,-5.762210756808527e-06
-0.023268282564097062,-0.0005868770604036268,-6.052725849264035e-06
-0.02302407009690071,-0.0005984501485688763,-6.349057651507161e-06
-0.022774525514943154,-0.0006098997974718373,-6.651145138017339e-06
-0.02252013719236681,-0.0006212234631486648,-6.958925953172465e-06
-0.02226143959862881,-0.0006324188573464136,-7.272336533296235e-06
-0.021999011631770773,-0.0006434839701540136,-7.591312240171341e-06
-0.021733474086415745,-0.0006544170915835602,-7.915787505605734e-06
-0.021465486332609956,-0.0006652168316883166,-8.245695986423704e-06
-0.021195742298980042,-0.0006758821388462141,-8.580970729057337e-06
-0.020924965871835694,-0.0006864123158889181,-8.92154434274112e-06
-0.02065390583281741,-0.0006968070338150813,-9.267349180167119e-06
-0.02038333045274919,-0.0007070663428864729,-9.618317524342507e-06
-0.020114021838496157,-0.0007171906809592842,-9.974381780303946e-06
-0.019846770105559713,-0.0007271808789452982,-1.0335474670280092e-05
-0.019582367437503294,-0.0007370381633310639,-1.0701529430849182e-05
-0.01932160209723906,-0.0007467641557147495,-1.1072480010610636e-05
-0.019065252462582546,-0.0007563608693547048,-1.1448261266878e-05
-0.01881408115823816,-0.0007658307027599101,-1.1828809159906653e-05
-0.018568829350524597,-0.0007751764303871008,-1.2214060943193406e-05
-0.018330211266901254,-0.0007844011905414573,-1.2603955348425544e-05
-0.018098908998531837,-0.0007935084706078156,-1.2998432763712862e-05
-0.017875567636551994,-0.0008025020897665865,-1.3397435403806463e-05
-0.017660790783348566,-0.0008113861793715616,-1.3800907471091e-05
-0.01745513647584532,-0.0008201651611863601,-1.4208795306230481e-05
-0.017259113560544805,-0.0008288437236954576,-1.4621047527450936e-05
-0.017073178564578604,-0.0008374267967267385,-1.5037615157556486e-05
-0.01689773310500024,-0.0008459195246441331,-1.5458451737899203e-05
-0.01673312186678063,-0.0008543272383870784,-1.5883513428657005e-05
-0.016579631164990886,-0.0008626554266450213,-1.631275909491503e-05
-0.01643748809709278,-0.0008709097064605422,-1.674615037819142e-05
-0.016306860289098373,-0.00087909579355709,-1.7183651753195827e-05
-0.016187856238759766,-0.0008872194726890545,-1.7625230569757363e-05
-0.016080526253715078,-0.0008952865683121733,-1.807085708000767e-05
-0.015984863969683485,-0.000903302915868023,-1.8520504451052716e-05
-0.015900808412514296,-0.0009112743339635724,-1.8974148763510616e-05
-0.015828246540420005,-0.000919206597701806,-1.9431768996426962e-05
-0.01576701617634904,-0.0009271054133809983,-1.9893346999197663e-05
-0.015716909225321315,-0.0009349763947314159,-2.0358867451225766e-05
-0.01567767507238651,-0.0009428250408058429,-2.082831781011008e-05
-0.01564902406872421,-0.0009506567155911206,-2.130168824920932e-05
-0.015630631026335738,-0.0009584766293648855,-2.1778971585448323e-05
-0.015622138651084045,-0.0009662898217842404,-2.2260163198235603e-05
-0.015623160853441306,-0.0009741011466603718,-2.2745260940346757e-05
-0.01563328589169581,-0.000981915258346656,-2.3234265041598513e-05
-0.015652079322797434,-0.0009897365996502793,-2.3727178006097748e-05
-0.015679086756274087,-0.000997569391170047,-2.422400450380283e-05
-0.01571383642133645,-0.0010054176219644498,-2.4724751257086453e-05
-0.015755841562539938,-0.001013285041460419,-2.5229426922942672e-05
-0.01580460267594637,-0.0010211751525200405,-2.5738041971437786e-05
-0.01585960959079927,-0.0010290912055867269,-2.6250608560964477e-05
-0.015920343393121008,-0.001037036193832707,-2.6767140410819334e-05
-0.01598627817558341,-0.001045012849224883,-2.728765267158373e-05
-0.01605688258645459,-0.0010530236394153925,-2.7812161793743802e-05
-0.016131621149024347,-0.0010610707653492622,-2.8340685394934967e-05
-0.016209955332779,-0.001069156159469713,-2.887324212613971e-05
-0.016291344369159313,-0.0010772814843951976,-2.940985153710594e-05
-0.016375245810292476,-0.0010854481319400606,-2.9950533941189754e-05
-0.01646111583114439,-0.0010936572223504198,-3.0495310279762375e-05
-0.01654840928118399,-0.0011019096036285019,-3.10442019862571e-05
-0.016636579502921963,-0.0011102058508245284,-3.1597230849870364e-05
-0.016725077946706197,-0.0011185462651869356,-3.215441887887323e-05
-0.0168133536185308,-0.0011269308730782448,-3.2715788163439523e-05
-0.016900852399274306,-0.001135359424582696,-3.328136073785476e-05
-0.01698701627171171,-0.0011438313917504425,-3.385115844193804e-05
-0.01707128248897221,-0.0011523459664406134,-3.4425202781485807e-05
-0.01715308271832139,-0.0011609020577424368,-3.500351478753157e-05
-0.01723184219741548,-0.001169498288971371,-3.558611487421002e-05
-0.017306978942162835,-0.0011781329942562656,-3.617302269501693e-05
-0.017377903042511047,-0.001186804214752434,-3.6764256997269103e-05
-0.017444016078861806,-0.0011955096945327772,-3.735983547459041e-05
-0.017504710691922172,-0.0012042468762254732,-3.7959774617279974e-05
-0.017559370338938254,-0.0012130128964831883,-3.856408956045714e-05
-0.017607369261782205,-0.0012218045813833685,-3.917279392992378e-05
-0.017648072674690436,-0.0012306184418674866,-3.9785899685736494e-05
-0.01768083715775569,-0.001239450669325598,-4.0403416963534764e-05
-0.017705011226129917,-0.0012482971314215694,-4.102535391372156e-05
-0.017719936040541964,-0.0012571533682382374,-4.165171653863651e-05
-0.017724946232237013,-0.0012660145888064322,-4.2282508527897674e-05
-0.017719370829848712,-0.0012748756680719536,-4.291773109211727e-05
-0.01770253429001068,-0.0012837311443519184,-4.355738279522324e-05
-0.017673757642687783,-0.001292575217335093,-4.420145938564499e-05
-0.017632359766693497,-0.0013014017466874384,-4.484995362665062e-05
-0.01757765881382436,-0.001310204251332568,-4.550285512615562e-05
-0.01750897380213483,-0.0013189759094865577,-4.6160150166360404e-05
-0.017425626398774027,-0.0013277095595367848,-4.682182153361624e-05
-0.01732694291167854,-0.001336397701864398,-4.748784834896654e-05
-0.017212256510752713,-0.0013450325017200057,-4.815820589986264e-05
-0.0170809097023427,-0.0013536057932732797,-4.883286547361096e-05
-0.01693225708045372,-0.0013621090849689787,-4.951179419317152e-05
-0.016765668369871076,-0.00137053356633156,-5.0194954855996654e-05
-0.016580531762052743,-0.001378870116364541,-5.088230577667068e-05
-0.016376257531075838,-0.0013871093136878232,-5.157380063418377e-05
-0.01615228190652259,-0.0013952414485472228,-5.226938832474253e-05
-0.01590807116900239,-0.001403256536816104,-5.296901282108336e-05
-0.015643125920555424,-0.0014111443360884934,-5.367261303930951e-05
-0.015356985473993235,-0.0014188943639371306,-5.438012271431592e-05
-0.015049232310668433,-0.0014264959183832961,-5.5091470284896026e-05
-0.014719496572518457,-0.0014339381006040928,-5.5806578789642875e-05
-0.014367460569807212,-0.0014412098398896742,-5.6525365774766316e-05
-0.013992863291400643,-0.0014482999208549762,-5.724774321495248e-05
-0.01359550489807361,-0.0014551970129023446,-5.797361744839181e-05
-0.013175251164356309,-0.0014618897019179522,-5.870288912709688e-05
-0.012732037817373256,-0.0014683665241633846,-5.9435453183617216e-05
-0.012265874708807132,-0.0014746160022949296,-6.017119881523179e-05
-0.011776849751161448,-0.0014806266834099218,-6.0910009486658005e-05
-0.011265132550478077,-0.0014863871789853318,-6.165176295225682e-05
-0.010730977672227172,-0.001491886206541008,-6.23963312986384e-05
-0.010174727485578228,-0.0014971126328304594,-6.314358100848126e-05
-0.009596814544942305,-0.0015020555183380894,-6.38933730462734e-05
-0.008997763486599003,-0.0015067041628459748,-6.464556296656941e-05
-0.00837819243874976,-0.0015110481518273119,-6.540000104523774e-05
-0.007738813959416802,-0.0015150774034268534,-6.615653243405128e-05
-0.007080435522826871,-0.0015187822157974144,-6.691499733885735e-05
-0.006403959569685791,-0.0015221533145705426,-6.767523122144934e-05
-0.005710383121567748,-0.001525181900243356,-6.843706502515282e-05
-0.005000796937825852,-0.0015278596952582044,-6.920032542402821e-05
-0.004276384172374432,-0.0015301789905357544,-6.99648350954767e-05
-0.003538418477091415,-0.001532132691198121,-7.073041301591016e-05
-0.0027882615031690166,-0.001533714361193186,-7.149687477900799e-05
-0.002027359764755176,-0.0015349182665101671,-7.226403293593383e-05
-0.0012572408405668424,-0.0015357394166614976,-7.303169735672675e-05
-0.00047950889754717175,-0.001536173604096026,-7.379967561191613e-05
0.00030416047032647144,-0.0015362174412028313,-7.456777337324085e-05
0.001092026088621071,-0.0015358683945630943,-7.533579483218233e-05
0.001882287736758645,-0.0015351248161067494,-7.610354313484978e-05
0.002673093374864468,-0.0015339859708288436,-7.687082083158368e-05
0.0034625470568387822,-0.0015324520607209178,-7.763743033947112e-05
0.004248717496248867,-0.001530524244582646,-7.8403174415797e-05
0.005029647219836477,-0.0015282046534036246,-7.916785664029357e-05
0.005803362218968563,-0.0015254964010439234,-7.993128190390546e-05
0.006567881994685065,-0.00152240358999051,-8.069325690166407e-05
0.007321229882905622,-0.0015189313120211123,-8.145359062716697e-05
0.008061443540447548,-0.001515085643665274,-8.221209486608857e-05
0.008786585470611194,-0.0015108736364125093,-8.296858468610801e-05
0.009494753470294524,-0.0015063033016772828,-8.372287892063046e-05
0.01018409088712579,-0.0015013835905879278,-8.447480064369676e-05
0.010852796581719986,-0.0014961243687207162,-8.522417763352392e-05
0.011499134496211594,-0.0014905363859512334,-8.597084282219191e-05
0.012121442738469665,-0.001484631241642563,-8.671463472909036e-05
0.012718142103824003,-0.0014784213454319896,-8.745539787585899e-05
0.013287743969729017,-0.0014719198739136013,-8.819298318069538e-05
0.013828857510067238,-0.0014651407235436523,-8.892724833005969e-05
0.014340196185765089,-0.0014580984601196942,-8.965805812597552e-05
0.014820583481815267,-0.0014508082652027992,-9.038528480730615e-05
0.015268957880026395,-0.001443285879862339,-9.110880834357244e-05
0.015684377077178676,-0.0014355475461230375,-9.182851670006879e-05
0.016066021472666638,-0.0014276099464855762,-9.254430607322094e-05
0.016413196955638063,-0.0014194901418785,-9.325608109531196e-05
0.016725337020924762,-0.0014112055083843594,-9.396375500787768e-05
0.01700200423700474,-0.001402773673069877,-9.466724980324124e-05
0.017242891076743032,-0.00139421244924144,-9.536649633381906e-05
0.017447820103820493,-0.001385539771446299,-9.6061434388991e-05
0.017616743493340425,-0.001376773630547009,-9.675201273948934e-05
0.017749741864394285,-0.0013679320092075751,-9.743818914942798e-05
0.01784702241609354,-0.0013590328181374532,-9.811993035626424e-05
0.017908916379007156,-0.001350093833438678,-9.879721201915828e-05
0.017935875815716623,-0.001341132635389997,-9.947001863636545e-05
0.017928469828565705,-0.0013321665489789264,-0.00010013834343245768
0.01788738026096945,-0.0013232125864565427,-0.00010080218821631654
0.01781339700383982,-0.0013142873921403403,-0.00010146156321096576
0.01770741302855251,-0.0013054071896322422,-0.0001021164868564089
0.017570419255696093,-0.00129658773156118,-0.00010276698558670726
0.01740349933903631,-0.001287844251912497,-0.00010341309358257567
0.01720782440719833,-0.0012791914209759382,-0.00010405485250079778
0.016984647770892806,-0.0012706433029314153,-0.00010469231118177462
0.01673529957863508,-0.0012622133160940334,-0.00010532552533653099
0.016461181394801194,-0.0012539141958506743,-0.00010595455721451717
0.0161637606820653,-0.0012457579603314577,-0.00010657947525356271
0.015844565190653505,-0.001237755878863278,-0.00010720035371336139
0.015505177278336293,-0.0012299184432460306,-0.00010781727229388872
0.015147228197209251,-0.0012222553418771442,-0.00010843031574016951
0.014772392382300556,-0.0012147754367322669,-0.00010903957343482187
0.014382381767491435,-0.0012074867431948189,-0.00010964513897980364
0.013978940142214649,-0.0012003964127173924,-0.0001102471097687817
0.013563837549911525,-0.001193510718294361,-0.00011084558655153464
0.013138864714668252,-0.001186835042728216,-0.00011144067299179028
0.012705827464878134,-0.0011803738696833294,-0.00011203247521989317
0.012266541103259936,-0.001174130777541295,-0.00011262110138169932
0.01182282465494523,-0.0011681084361017436,-0.00011320666118511008
0.011376494916031715,-0.0011623086062089994,-0.00011378926544568776
0.010929360228802793,-0.0011567321424227907,-0.0001143690256328457
0.010483213927508108,-0.001151378998883713,-0.00011494605341817233
0.010039827426891749,-0.001146248238545113,-0.00011552046022752954
0.009600942957844258,-0.0011413380459489291,-0.00011609235679865305
0.009168265984617691,-0.0011366457437133135,-0.00011666185274606861
0.00874345736444958,-0.0011321678128760468,-0.00011722905613521595
0.00832812533545228,-0.0011278999172010713,-0.00011779407306773523
0.007923817443793921,-0.0011238369315062597,-0.00011835700727991206
0.007532012544944687,-0.0011199729740090751,-0.0001189179597562909
0.007154113031008828,-0.0011163014426150868,-0.00011947702836044693
0.006791437442859809,-0.0011128150549966197,-0.00012003430748484986
0.006445213625076385,-0.0011095058922296357,-0.00012058988772165643
0.00611657257926394,-0.0011063654456785505,-0.00012114385555613348
0.0058065431662095,-0.001103384666742182,-0.00012169629308423866
0.005516047791037353,-0.0011005540190028704,-0.00012224727775567493
0.005245899173430713,-0.0010978635322617533,-0.0001227968821434911
0.004996798261027509,-0.0010953028579031388,-0.00012334517374103232
0.004769333295432782,-0.0010928613250140236,-0.0001238922147867616
0.004563979994031992,-0.0010905279966916574,-0.000124438062117188
0.004381102772003441,-0.0010882917260001486,-0.00012498276704786095
0.00422095690062373,-0.0010861412110819918,-0.00012552637528213148
0.004083691483794053,-0.0010840650489858873,-0.00012606892684714844
0.003969353135632391,-0.0010820517878310308,-0.00012661045605635266
0.003877890249564626,-0.0010800899769847316,-0.0001271509914975566
0.0038091577530566583,-0.0010781682149840763,-0.00012769055604554882
0.0037629222426499805,-0.0010762751949851496,-0.00012822916689804112
0.0037388674003976654,-0.0010743997475743876,-0.000128766835633681
0.003736599608965006,-0.001072530880822047,-0.00012930356829078012
0.0037556537025554637,-0.0010706578174941668,-0.00012983936546535918
0.0037954988067119364,-0.00106877002936685,-0.00013037422242707442
0.003855544230917273,-0.0010668572686074428,-0.000130908129251568
0.003935145386366043,-0.001064909596203122,-0.00013144107096777063
0.004033609706276437,-0.0010629174074299613,-0.0001319730277186789
0.004150202543949367,-0.001060871454367405,-0.00013250397493412824
0.004284153014353228,-0.0010587628654778294,-0.00013303388351408954
0.004434659734331881,-0.0010565831622906582,-0.00013356272002103167
0.004600896410796866,-0.001054324273254376,-0.00013409044687991793
0.004782017227007605,-0.0010519785448449249,-0.00013461702258444277
0.004977161982332097,-0.00104953875004259,-0.00013514240190816464
0.005185460946583124,-0.0010469980943103611,-0.00013566653611925289
0.005406039392872454,-0.0010443502192254972,-0.00013618937319763685
0.00563802177509503,-0.0010415892039335054,-0.0001367108580534266
