frame_number,force
0,724.1973880001073
1,723.8673046085337
2,723.5407996929532
3,723.2213638711579
4,722.9123156833051
5,722.6167242385254
6,722.3373413650653
7,722.0765453201285
8,721.8362975632834
9,721.6181135285414
10,721.423047717008
11,721.2516927949441
12,721.1041917797646
13,720.9802618611968
14,720.8792279513422
15,720.8000637694073
16,720.741438249704
17,720.7017652820457
18,720.6792550752517
19,720.6719656446188
20,720.6778531016313
21,720.6948196718648
22,720.7207586662009
23,720.7535958534033
24,720.7913267671573
25,720.8320495032025
26,720.8739926510074
27,720.9155382170887
28,720.955239641743
29,720.9918351271855
30,721.024256444699
31,721.0516332906614
32,721.073293226949
33,721.0887572756055
34,721.097731329257
35,721.1000937217713
36,721.0958795666141
37,721.0852627040559
38,721.0685362049805
39,721.0460923424233
40,721.0184027720272
41,720.9859993996446
42,720.9494561830713
43,720.9093720299174
44,720.8663549918986
45,720.8210080235798
46,720.7739166178993
47,720.7256386250781
48,720.6766964953673
49,720.6275720848984
50,720.5787040432161
51,720.5304876550629
52,720.4832768655954
53,720.4373881217979
54,720.3931056171751
55,720.3506875179393
56,720.3103727849772
57,720.2723882736276
58,720.2369558025673
59,720.2042987418178
60,720.1746474333052
61,720.148242622508
62,720.1253361891861
63,720.1061887737052
64,720.0910642669004
65,720.0802214965711
66,720.0739037902648
67,720.0723273649639
68,720.0756695964722
69,720.0840581269397
70,720.0975615550171
71,720.1161822229323
72,720.1398514045716
73,720.1684269926674
74,720.2016935942247
75,720.2393648224637
76,720.2810875438756
77,720.3264478609273
78,720.3749786279784
79,720.4261682916248
80,720.4794708216748
81,720.5343164412263
82,720.5901227550761
83,720.6463057441224
84,720.7022900325637
85,720.7575179427477
86,720.8114571287869
87,720.8636068803728
88,720.9135033325535
89,720.9607237702298
90,721.0048901167225
91,721.0456716725662
92,721.0827871987283
93,721.1160064392222
94,721.1451511633031
95,721.1700958285436
96,721.1907679992464
97,721.2071486251826
98,721.2192721700827
99,721.2272264407724
100,721.2311519027887
101,721.2312403128846
102,721.2277325826557
103,721.2209158097894
104,721.211119355603
105,721.1987097759469
106,721.1840843987762
107,721.1676634221072
108,721.1498805901371
109,721.1311727680933
110,721.1119689943874
111,721.0926797274795
112,721.0736869691277
113,721.0553357931744
114,721.0379276527675
115,721.0217157328736
116,721.0069025133372
117,720.9936395478925
118,720.9820292536526
119,720.9721283030372
120,720.9639520770847
121,720.9574796185561
122,720.9526586056181
123,720.9494099927787
124,720.9476321123689
125,720.9472042182914
126,720.9479896355799
127,720.9498387457015
128,720.9525919737905
129,720.9560828590185
130,720.9601412710431
131,720.9645968547352
132,720.9692827599999
133,720.9740396207735
134,720.9787196420612
135,720.9831905972613
136,720.9873395434612
137,720.9910761061838
138,720.9943352309762
139,720.997079309247
140,720.9992995554488
141,721.0010164946764
142,721.0022794520178
143,721.0031649734528
144,721.0037741016703
145,721.0042284194708
146,721.0046648483911
147,721.0052293789806
148,721.0060701423877
149,721.0073304009659
150,721.009142067017
151,721.0116202531055
152,721.014859171353
153,721.018929513715
154,721.023877316715
155,721.0297242382771
156,721.0364691151053
157,721.0440906183497
158,721.0525507992257
159,721.0617993000591
160,721.0717779616549
161,721.0824254909022
162,721.0936818250041
163,721.1054918917547
164,721.1178085959644
165,721.1305949849752
166,721.1438256317855
167,721.1574873695412
168,721.1715796330076
169,721.1861147247054
170,721.2011182310752
171,721.2166295982039
172,721.2327026720969
173,721.249405921965
174,721.2668221171311
175,721.2850473812808
176,721.3041897286769
177,721.3243673183953
178,721.3457067130314
179,721.368341416786
180,721.3924109192549
181,721.4180603838864
182,721.4454409777861
183,721.474710643954
184,721.5060349080038
185,721.5395871593112
186,721.5755478129471
187,721.6141018614564
188,721.6554345478256
189,721.6997251934857
190,721.7471395146591
191,721.797820943317
192,721.8518814827274
193,721.9093925466898
194,721.9703761722918
195,722.0347969728916
196,722.1025551660464
197,722.1734810105191
198,722.2473310772722
199,722.3237868746685
200,722.4024562850134
201,722.4828780176541
202,722.5645289731315
203,722.6468341793224
204,722.729178830766
205,722.8109218886891
206,722.891410652506
207,722.9699957044671
208,723.0460456675485
209,723.1189612837709
210,723.1881883795126
211,723.2532293264766
212,723.3136526664225
213,723.3691006665298
214,723.4192946773913
215,723.4640382371074
216,723.5032179161589
217,723.5368019848564
218,723.5648371349021
219,723.5874436476452
220,723.6048094942915
221,723.617183849038
222,723.6248704176896
223,723.6282208484691
224,723.6276282852468
225,723.6235208607932
226,723.6163547100745
227,723.6066060289586
228,723.5947618211219
229,723.5813091771748
230,723.5667231533155
231,723.5514535778846
232,723.5359114263465
233,723.5204556889933
234,723.505381769918
235,723.4909123230883
236,723.4771911020241
237,723.4642799917323
238,723.4521590126246
239,723.4407288210693
240,723.4298151466139
241,723.4191747197092
242,723.4085024944831
243,723.3974402330227
244,723.3855866679787
245,723.3725094569785
246,723.3577590361089
247,723.3408843407605
248,723.3214502116833
249,723.2990561256878
250,723.2733556721101
251,723.2440759502081
252,723.2110358357131
253,723.1741619290057
254,723.1335010092795
255,723.0892279895739
256,723.0416486591248
257,722.9911968373239
258,722.9384258798073
259,722.8839947565281
260,722.8286491893197
261,722.7731986134321
262,722.7184899962461
263,722.665379748052
264,722.6147050509863
265,722.56725594695
266,722.5237495309545
267,722.4848075794914
268,722.4509388080199
269,722.4225266437105
270,722.3998229620745
271,722.3829477513596
272,722.3718942156789
273,722.3665384635277
274,722.3666526856294
275,722.3719206454788
276,722.381954396329
277,722.3963113018638
278,722.414510552862
279,722.436048445005
280,722.4604118167175
281,722.4870892834548
282,722.5155801758905
283,722.5454013061097
284,722.5760918351523
285,722.6072166266144
286,722.6383685335767
287,722.6691700357862
288,722.699274521555
289,722.7283673623971
290,722.756166829203
291,722.7824248663738
292,722.8069277518274
293,722.8294966802935
294,722.8499882782816
295,722.8682950182874
296,722.8843455152395
297,722.8981047755456
298,722.909574564143
299,722.9187940761644
300,722.9258410268451
301,722.9308331642765
302,722.9339301119094
303,722.9353353155018
304,722.9352976377102
305,722.9341118688832
306,722.9321172814755
307,722.9296934846752
308,722.9272532019027
309,722.9252320401907
310,722.9240756998107
311,722.9242253152453
312,722.9261017358559
313,722.9300896050927
314,722.9365221250994
315,722.9456673936999
316,722.9577171357176
317,722.9727784850525
318,722.9908692116427
319,723.0119164970203
320,723.0357591387983
321,723.0621529519178
322,723.0907791108889
323,723.1212551886986
324,723.1531486109391
325,723.1859920793959
326,723.219300254982
327,723.2525867582925
328,723.2853804423053
329,723.317239916124
330,723.3477654514122
331,723.3766077055517
332,723.4034730849396
333,723.4281259079407
334,723.4503877539794
335,723.4701345707196
336,723.4872922763695
337,723.5018316326639
338,723.5137629996491
339,723.5231313036927
340,723.5300113132487
341,723.534503189269
342,723.5367282186826
343,723.5368246017214
344,723.5349431511864
345,723.5312428115823
346,723.5258860379646
347,723.5190342548649
348,723.5108437673906
349,723.501462540696
350,723.4910281638544
351,723.4796671019403
352,723.4674951115383
353,723.454618551314
354,723.4411362824761
355,723.427141844815
356,723.412725521511
357,723.3979757782776
358,723.3829794946707
359,723.3678205105265
360,723.3525763041787
361,723.337313031988
362,723.3220795751174
363,723.3069015157195
364,723.2917760070062
365,723.2766683476453
366,723.2615108295341
367,723.2462041636063
368,723.23062152498
369,723.2146150406829
370,723.1980244017336
371,723.180687180116
372,723.1624503141384
373,723.1431820920849
374,723.1227838655473
375,723.1012007151232
376,723.0784303910117
377,723.05453003131
378,723.0296203646855
379,723.0038872801543
380,722.97758077962
381,722.951011434619
382,722.9245445599769
383,722.8985923839765
384,722.8736045073426
385,722.8500568780823
386,722.8284394046465
387,722.8092422938222
388,722.792941307005
389,722.7799823204095
390,722.7707657094163
391,722.7656310824619
392,722.7648428257662
393,722.7685768879185
394,722.7769092666257
395,722.7898067198287
396,722.8071202641768
397,722.8285820321219
398,722.8538060391677
399,722.8822933533144
400,722.9134420041544
401,722.9465616497856
402,722.980892547
403,723.0156278670742
404,723.0499380062505
405,723.0829953421862
406,723.1139979302043
407,723.1421909153139
408,723.1668848781203
409,723.1874707925524
410,723.2034316097236
411,723.2143506348618
412,723.2199168881153
413,723.2199276267631
414,723.2142881822795
415,723.203009216506
416,723.1862014628418
417,723.1640680744523
418,723.1368948825352
419,723.1050390947637
420,723.0689171309909
421,723.0289923678016
422,722.9857635542459
423,722.9397545571492
424,722.8915059043294
425,722.8415683648874
426,722.7904985565697
427,722.7388562807456
428,722.6872029776986
429,722.6361004741195
430,722.5861091822932
431,722.5377851460186
432,722.4916757348062
433,722.4483142024196
434,722.4082135775413
435,722.3718603777335
436,722.3397085111428
437,722.3121735645406
438,722.2896275148889
439,722.2723937666565
440,722.2607423623994
441,722.2548852659371
442,722.254971718487
443,722.2610837402058
444,722.2732318817939
445,722.291351362561
446,722.3152987795764
447,722.3448496134621
448,722.3796967611546
449,722.4194503023292
450,722.4636387018716
451,722.5117116950718
452,722.5630451582342
453,722.616948272015
454,722.6726732173273
455,722.7294275263649
456,722.7863890431103
457,722.8427231757455
458,722.8976017400701
459,722.950222341656
460,722.9998271293808
461,723.0457199343824
462,723.0872811594717
463,723.1239801381158
464,723.1553849461003
465,723.1811697841956
466,723.2011200399254
467,723.2151350178463
468,723.2232282023566
469,723.225524877041
470,723.2222569906545
471,723.2137553126422
472,723.2004391309797
473,723.1828039515843
474,723.1614077882708
475,723.1368566436613
476,723.1097896691102
477,723.080864301124
478,723.0507415039347
479,723.0200711793791
480,722.9894778427591
481,722.9595467986242
482,722.9308112591887
483,722.903741027794
484,722.8787333838675
485,722.856106619092
486,722.8360964083901
487,722.8188550167807
488,722.804453274825
489,722.792885188373
490,722.7840748908866
491,722.7778854356935
492,722.7741287665608
493,722.7725761738369
494,722.7729686573942
495,722.7750268407137
496,722.7784603344795
497,722.7829766392939
498,722.7882897254914
499,722.7941283031026
500,722.8002435451533
501,722.8064157534343
502,722.8124592587085
503,722.8182248050183
504,722.8235988248232
505,722.8284993685595
506,722.8328689621508
507,722.836665233291
508,722.8398506261818
509,722.8423827479314
510,722.8442067668478
511,722.8452508875358
512,722.845425440711
513,722.8446256861899
514,722.8427380677683
515,722.839649341863
516,722.8352577170441
517,722.8294849757646
518,722.8222886047736
519,722.8136731906138
520,722.8037005563125
521,722.7924981951155
522,722.7802655366693
523,722.7672775830468
524,722.7538855383223
525,722.7405141740663
526,722.7276557368841
527,722.7158602273498
528,722.7057219773429
529,722.6978626781057
530,722.6929112930885
531,722.6914815486518
532,722.6941479240822
533,722.701421267763
534,722.7137253046467
535,722.7313753079807
536,722.7545600897663
537,722.7833282856379
538,722.8175796933814
539,722.8570621395959
540,722.9013740255332
541,722.949972443325
542,723.0021866072461
543,723.0572362471161
544,723.1142544561926
545,723.1723142267427
546,723.2304575887571
547,723.2877259807653
548,723.3431903086878
549,723.3959791612327
550,723.4453038881335
551,723.4904796635512
552,723.5309421223658
553,723.5662595254756
554,723.5961405862154
555,723.6204380935704
556,723.6391484225418
557,723.6524070344983
558,723.6604801663059
559,723.6637530744842
560,723.6627154005581
561,723.6579443830724
562,723.6500867052428
563,723.6398397221093
564,723.6279326678751
565,723.6151082673151
566,723.6021050877979
567,723.5896410289985
568,723.578398456785
569,723.569011480268
570,723.5620556654203
571,723.5580401469211
572,723.5574018295534
573,723.5605013076308
574,723.5676202180821
575,723.5789597842189
576,723.5946402245519
577,723.6147006285926
578,723.6390989803098
579,723.6677122019967
580,723.7003362831471
581,723.7366867305468
582,723.7763997530252
583,723.8190347263567
584,723.8640784900413
585,723.9109519250003
586,723.9590191449014
587,724.0075995251701
588,724.0559825894653
589,724.1034454047273
590,724.1492717192999
591,724.1927718172491
592,724.2333020257897
593,724.2702829114219
594,724.3032153493696
595,724.3316938442671
596,724.3554167051385
597,724.3741928736274
598,724.3879453264665
599,724.39671104204
600,724.4006375877905
601,724.399976470175
602,724.3950734864673
603,724.3863564415146
604,724.3743207481745
605,724.3595135594837
606,724.3425170979004
607,724.3239317295156
608,724.3043591453618
609,724.28438586102
610,724.2645672118077
611,724.2454121298723
612,724.2273691868292
613,724.2108145502427
614,724.1960425167462
615,724.1832591127392
616,724.1725789735988
617,724.1640254701354
618,724.1575339478261
619,724.1529579574163
620,724.1500783676593
621,724.1486151544403
622,724.1482414535046
623,724.1485992535547
624,724.1493159922311
625,724.1500212877983
626,724.150363027148
627,724.1500220377102
628,724.1487246489512
629,724.1462525864421
630,724.1424497700071
631,724.1372256810408
632,724.1305550677079
633,724.1224739472442
634,724.1130721701691
635,724.1024831469393
636,724.0908715724796
637,724.0784200651902
638,724.0653156077509
639,724.0517366105532
640,724.0378413417665
641,724.023758329717
642,724.0095790894825
643,723.9953532013541
644,723.9810855109187
645,723.9667351535726
646,723.952216239796
647,723.9374002532708
648,723.9221203531584
649,723.9061777344374
650,723.8893499989384
651,723.8714012357007
652,723.8520933148039
653,723.8311977915597
654,723.808507766144
655,723.7838490292146
656,723.7570898466674
657,723.7281487775266
658,723.6969999715247
659,723.6636755162644
660,723.6282646606192
661,723.5909100964475
662,723.5518018247153
663,723.5111693692969
664,723.4692731888753
665,723.4263960786653
666,723.3828351884465
667,723.3388950702193
668,723.2948819688036
669,723.251099419129
670,723.2078451019933
671,723.1654087928481
672,723.1240711032685
673,723.0841026030199
674,723.0457628810971
675,723.0092991967839
676,722.9749445754699
677,722.9429154314859
678,722.9134089502081
679,722.8866005149339
680,722.8626414433764
681,722.8416571890409
682,722.8237459854862
683,722.8089777857406
684,722.7973933617673
685,722.7890035174111
686,722.7837884034842
687,722.7816968601874
688,722.7826456209763
689,722.7865181849443
690,722.7931632394691
691,722.8023927025916
692,722.8139797335662
693,722.8276573034973
694,722.8431179578151
695,722.8600151984807
696,722.8779665767303
697,722.8965582711298
698,722.9153507631285
699,722.9338852658616
700,722.9516907155793
701,722.9682912260553
702,722.9832138703739
703,722.9959965791949
704,723.0061959222189
705,723.0133945497338
706,723.0172080366315
707,723.0172907919372
708,723.0133406680653
709,723.0051019963713
710,722.9923669598129
711,722.9749754120822
712,722.9528134015243
713,722.925810725298
714,722.8939378376502
715,722.8572024196163
716,722.8156459335829
717,722.7693405262592
718,722.7183866532415
719,722.6629117448541
720,722.603070127429
721,722.5390442663457
722,722.471047219433
723,722.3993260422525
724,722.3241658262874
725,722.2458940439285
726,722.1648848550923
727,722.081562997241
728,721.9964068499647
729,721.9099502116002
730,721.822782250642
731,721.7355450828214
732,721.648928551835
733,721.5636620312741
734,721.4805033237645
735,721.4002249469925
736,721.3235982698504
737,721.2513761256469
738,721.1842746779926
739,721.1229554103612
740,721.0680081388916
741,721.0199359289179
742,720.9791427175325
743,720.9459242556087
744,720.9204626816004
745,720.9028247194177
746,720.8929632593533
747,720.8907219617166
748,720.8958424660892
749,720.9079737291388
750,720.9266829492796
751,720.9514675335347
752,720.981767648841
753,721.01697901713
754,721.0564657133787
755,721.0995728250728
756,721.1456389207685
757,721.1940082894081
758,721.2440428282747
759,721.2951333398448
760,721.3467099177293
761,721.3982510629429
762,721.4492911352563
763,721.4994257123394
764,721.5483144642221
765,721.5956813162343
766,721.6413119846892
767,721.6850493734245
768,721.7267876915566
769,721.7664663386633
770,721.8040645177568
771,721.8395972212828
772,721.8731128030165
773,721.9046919129444
774,721.9344472417151
775,721.9625233676649
776,721.9890960185478
777,722.0143702074334
778,722.038576920954
779,722.061968246954
780,722.0848109872022
781,722.1073789746705
782,722.1299445596736
783,722.1527699576706
784,722.1760992151128
785,722.2001513992999
786,722.2251153471924
787,722.2511460719179
788,722.2783628008806
789,722.3068485487066
790,722.3366510351707
791,722.3677846542595
792,722.4002331501349
793,722.4339527042074
794,722.4688752715526
795,722.5049121436352
796,722.5419577770399
797,722.5798939212558
798,722.6185940656378
799,722.6579282205478
800,722.6977680041736
801,722.7379919174888
802,722.7784906212721
803,722.8191720083635
804,722.8599658176372
805,722.9008274224626
806,722.941740352131
807,722.9827171955596
808,723.0237987628116
809,723.0650516201803
810,723.1065643154882
811,723.1484427688767
812,723.1908053750652
813,723.2337782887771
814,723.2774911571362
815,723.3220733071886
816,723.367650207936
817,723.4143399865295
818,723.4622498786233
819,723.5114726387138
820,723.5620830398033
821,723.6141346397076
822,723.6676570043226
823,723.7226535542303
824,723.7791001277991
825,723.8369442406449
826,723.8961049081744
827,723.9564728436638
828,724.0179108908824
829,724.0802546891128
830,724.1433137366218
831,724.2068731227199
832,724.2706961714222
833,724.3345281092832
834,724.3981007494006
835,724.4611381628347
836,724.523363377635
837,724.5845062204382
838,724.6443123922941
839,724.7025536849469
840,724.7590389459201
841,724.8136251280728
842,724.8662276181591
843,724.9168290664124
844,724.9654861168393
845,725.0123336555599
846,725.0575863130184
847,725.1015369782638
848,725.144552146709
849,725.1870640952922
850,725.2295600765857
851,725.2725688324158
852,725.3166447410017
853,725.3623499358965
854,725.4102348803077
855,725.4608181438472
856,725.5145663985147
857,725.5718758113293
858,725.6330559892384
859,725.6983173845815
860,725.7677626441479
861,725.8413819480309
862,725.9190520793112
863,726.0005388027629
864,726.0855020718295
865,726.173503624448
866,726.2640166480836
867,726.3564373044828
868,726.4500979015535
869,726.5442813409918
870,726.6382362228956
871,726.7311918120377
872,726.8223720925791
873,726.9110083350312
874,726.996349841981
875,727.0776727389758
876,727.1542868416191
877,727.2255407952827
878,727.2908258301369
879,727.349578522704
880,727.40128286376
881,727.4454717849461
882,727.4817282398805
883,727.509686010475
884,727.5290305094579
885,727.5394998715964
886,727.5408865675968
887,727.5330396731343
888,727.5158677882948
889,727.4893424265476
890,727.4535014916972
891,727.4084522885622
892,727.3543734667628
893,727.2915154421313
894,727.220199103977
895,727.1408128463053
896,727.0538081006821
897,726.9596936555124
898,726.8590291387434
899,726.7524180537181
900,726.6405006675787
901,726.5239469292346
902,726.4034495212919
903,726.2797171487788
904,726.1534682118895
905,726.0254250632964
906,725.8963090517475
907,725.7668364257836
908,725.637714921417
909,725.5096406233063
910,725.3832946182924
911,725.259339079389
912,725.1384126296185
913,725.0211250053859
914,724.9080510980147
915,724.7997244219282
916,724.6966300109104
