frame_number,force
0,724.1973879896059
1,724.0331536694437
2,723.8693364101301
3,723.7063501069198
4,723.5446023743356
5,723.3844915289505
6,723.2264037130376
7,723.0707101972127
8,722.9177648952143
9,722.7679021185531
10,722.6214345927924
11,722.4786517508438
12,722.3398183123103
13,722.2051731518073
14,722.0749284535067
15,721.9492691444342
16,721.8283525960384
17,721.712308582061
18,721.6012394797135
19,721.4952206997835
20,721.3943013298623
21,721.2985049740622
22,721.2078307723184
23,721.1222545818296
24,721.0417303020387
25,720.9661913232599
26,720.8955520784655
27,720.8297096782115
28,720.7685456096318
29,720.7119274808341
30,720.6597107916522
31,720.611740711277
32,720.5678538434992
33,720.527879961162
34,720.491643692853
35,720.4589661470537
36,720.4296664618129
37,720.4035632708119
38,720.3804760787885
39,720.3602265405586
40,720.3426396383715
41,720.3275447522715
42,720.3147766182951
43,720.3041761704161
44,720.2955912639901
45,720.2888772804372
46,720.283897614686
47,720.280524048299
48,720.2786370121338
49,720.2781257430169
50,720.2788883393051
51,720.2808317203439
52,720.2838714948648
53,720.2879317435895
54,720.2929447217352
55,720.2988504876508
56,720.3055964645235
57,720.3131369428802
58,720.321432531911
59,720.3304495668741
60,720.3401594783514
61,720.3505381281808
62,720.3615651173856
63,720.3732230730827
64,720.3854969233174
65,720.3983731706106
66,720.4118391766467
67,720.4258824716146
68,720.4404901016744
69,720.4556480266654
70,720.4713405780227
71,720.4875499845741
72,720.5042559716926
73,720.5214354371
74,720.5390622045337
75,720.5571068548501
76,720.5755366330853
77,720.5943154293009
78,720.613403830355
79,720.632759238949
80,720.6523360554422
81,720.6720859169302
82,720.6919579868264
83,720.7118992868606
84,720.7318550626147
85,720.7517691740743
86,720.7715845041789
87,720.791243380109
88,720.8106880028838
89,720.8298608805608
90,720.8487052597862
91,720.8671655504693
92,720.8851877387683
93,720.9027197838903
94,720.9197119944761
95,720.9361173808971
96,720.9518919804626
97,720.966995152851
98,720.9813898428782
99,720.9950428073855
100,721.0079248031793
101,721.0200107338055
102,721.0312797540288
103,721.0417153315793
104,721.0513052658865
105,721.0600416635647
106,721.0679208707908
107,721.0749433636483
108,721.0811135990551
109,721.0864398308889
110,721.0909338978342
111,721.0946109905753
112,721.0974894058987
113,721.0995902944068
114,721.1009374076078
115,721.1015568494715
116,721.1014768368416
117,721.1007274719819
118,721.099340529051
119,721.0973492548251
120,721.0947881829321
121,721.0916929604723
122,721.0881001861516
123,721.0840472595598
124,721.0795722418444
125,721.0747137289113
126,721.0695107391225
127,721.0640026175554
128,721.0582289581822
129,721.0522295444832
130,721.0460443086051
131,721.0397133090295
132,721.0332767263027
133,721.0267748755665
134,721.020248233753
135,721.0137374787746
136,721.0072835379159
137,721.0009276427917
138,720.994711388423
139,720.9886767939742
140,720.9828663624537
141,720.9773231365385
142,720.9720907478885
143,720.9672134575775
144,720.9627361852635
145,720.9587045247081
146,720.9551647438021
147,720.9521637685335
148,720.9497491519116
149,720.9479690300345
150,720.946872067801
151,720.9465073962261
152,720.9469245422733
153,720.9481733510814
154,720.9503038998008
155,720.9533664019242
156,720.9574111007859
157,720.9624881507522
158,720.9686474846341
159,720.9759386659339
160,720.9844107244427
161,720.9941119734762
162,721.0050898070597
163,721.0173904759806
164,721.031058842657
165,721.0461381157644
166,721.062669566314
167,721.0806922276855
168,721.1002425830992
169,721.1213542446015
170,721.1440576272475
171,721.1683796209721
172,721.1943432615166
173,721.2219674013779
174,721.2512663822141
175,721.2822497112212
176,721.3149217452345
177,721.3492813872033
178,721.3853218000432
179,721.4230301428017
180,721.4623873337351
181,721.5033678442857
182,721.5459395269446
183,721.5900634786183
184,721.6356939396196
185,721.6827782272421
186,721.731256702419
187,721.7810627683476
188,721.8321229010609
189,721.8843567135062
190,721.9376770562216
191,721.9919901584644
192,722.047195813318
193,722.1031876093489
194,722.159853210565
195,722.2170746858194
196,722.274728888142
197,722.3326878840182
198,722.3908194327673
199,722.4489875163471
200,722.5070529191072
201,722.5648738550417
202,722.6223066377828
203,722.6792063868083
204,722.7354277622615
205,722.7908257201256
206,722.8452562790649
207,722.8985772901077
208,722.9506492005771
209,723.0013358041496
210,723.0505049694036
211,723.0980293396592
212,723.143786997505
213,723.1876620883161
214,723.2295453980512
215,723.2693348814382
216,723.3069361373807
217,723.3422628293935
218,723.3752370502714
219,723.4057896316768
220,723.4338604003736
221,723.4593983832721
222,723.4823619633954
223,723.5027189884422
224,723.5204468327164
225,723.5355324118996
226,723.5479721491009
227,723.5577718905661
228,723.5649467704266
229,723.5695210253591
230,723.5715277615997
231,723.5710086785322
232,723.5680137551271
233,723.5626009073303
234,723.5548356252248
235,723.5447905979056
236,723.5325453318437
237,723.5181857658389
238,723.5018038831469
239,723.4834973195613
240,723.4633689655705
241,723.4415265613103
242,723.4180822845083
243,723.3931523331797
244,723.3668565057155
245,723.3393177809287
246,723.3106618999354
247,723.2810169508732
248,723.2505129565527
249,723.2192814640848
250,723.1874551342502
251,723.155167326958
252,723.1225516778669
253,723.0897416605624
254,723.0568701289596
255,723.0240688358871
256,722.9914679258546
257,722.9591954023483
258,722.9273765721737
259,722.8961334712857
260,722.8655842783546
261,722.8358427241438
262,722.8070175064985
263,722.7792117219935
264,722.7525223257736
265,722.7270396310631
266,722.7028468596504
267,722.6800197542738
268,722.6586262626508
269,722.6387263005707
270,722.6203715982659
271,722.6036056307559
272,722.5884636294917
273,722.5749726698147
274,722.5631518266878
275,722.5530123901281
276,722.5445581318356
277,722.5377856150607
278,722.5326845400197
279,722.5292381172086
280,722.5274234614245
281,722.527212000483
282,722.5285698940581
283,722.5314584592246
284,722.5358346000727
285,722.5416512393732
286,722.5488577506378
287,722.5574003887597
288,722.5672227167353
289,722.5782660251945
290,722.5904697410439
291,722.6037718215903
292,722.6181091308886
293,722.6334177954756
294,722.6496335368557
295,722.6666919782648
296,722.6845289237815
297,722.7030806088716
298,722.7222839225233
299,722.7420766017409
300,722.7623973991725
301,722.7831862244141
302,722.8043842593553
303,722.8259340475067
304,722.847779556168
305,722.8698662089001
306,722.8921408851762
307,722.9145518851599
308,722.9370488600886
309,722.9595827117208
310,722.9821054668046
311,723.0045701341013
312,723.026930552221
313,723.0491412367597
314,723.0711572352806
315,723.0929339984835
316,723.1144272752707
317,723.1355930380787
318,723.1563874428751
319,723.176766826029
320,723.1966877384837
321,723.2161070165643
322,723.2349818882172
323,723.2532701131631
324,723.2709301548317
325,723.2879213805476
326,723.3042042844163
327,723.3197407255846
328,723.3344941736095
329,723.3484299525895
330,723.3615154764728
331,723.3737204697218
332,723.3850171698582
333,723.3953805104727
334,723.4047882846868
335,723.4132212902342
336,723.420663458418
337,723.4271019695176
338,723.4325273562853
339,723.4369335955244
340,723.4403181864011
341,723.4426822135038
342,723.4440303924849
343,723.4443710960833
344,723.443716358454
345,723.4420818562703
346,723.4394868661117
347,723.4359541990178
348,723.4315101142668
349,723.4261842149261
350,723.4200093272964
351,723.4130213652157
352,723.4052591789376
353,723.3967643875593
354,723.387581193916
355,723.3777561809567
356,723.3673380883054
357,723.3563775670441
358,723.3449269104489
359,723.333039759197
360,723.3207707815357
361,723.3081753316175
362,723.2953090919441
363,723.2822277076898
364,723.2689864210269
365,723.2556397126664
366,723.2422409563595
367,723.2288420904905
368,723.2154933092763
369,723.2022427747547
370,723.1891363498918
371,723.1762173525386
372,723.1635263292601
373,723.1511008472374
374,723.1389753018433
375,723.1271807374384
376,723.1157446795678
377,723.1046909778555
378,723.0940396601464
379,723.0838067994964
380,723.0740043963577
381,723.0646402788589
382,723.0557180244984
383,723.047236906803
384,723.0391918703477
385,723.0315735368521
386,723.0243682440884
387,723.0175581187551
388,723.0111211847576
389,723.0050315091217
390,722.9992593881595
391,722.993771576046
392,722.9885315570464
393,722.9834998618968
394,722.9786344285172
395,722.9738910070803
396,722.9692236091922
397,722.9645850004939
398,722.9599272353906
399,722.9552022318151
400,722.9503623825681
401,722.9453611974429
402,722.9401539670941
403,722.934698436254
404,722.928955471325
405,722.9228897061258
406,722.9164701499402
407,722.9096707439954
408,722.9024708555927
409,722.8948557024037
410,722.8868167020456
411,722.8783517435647
412,722.8694653782328
413,722.8601689276666
414,722.85048050787
415,722.8404249682807
416,722.8300337454847
417,722.8193446324642
418,722.8084014662502
419,722.7972537391427
420,722.7859561405621
421,722.7745680378771
422,722.7631529052741
423,722.7517777097949
424,722.7405122631344
425,722.7294285469371
426,722.718600018274
427,722.7081009005917
428,722.6980054638312
429,722.6883872962735
430,722.6793185707643
431,722.6708693095349
432,722.663106654388
433,722.6560941515224
434,722.6498910616468
435,722.6445517058664
436,722.6401248566192
437,722.636653181393
438,722.6341727453636
439,722.6327125775947
440,722.6322943043814
441,722.6329318528841
442,722.634631228027
443,722.6373903652435
444,722.6411990609759
445,722.6460389821477
446,722.6518837552381
447,722.65869913496
448,722.6664432517052
449,722.6750669359358
450,722.684514116877
451,722.6947222924133
452,722.7056230667633
453,722.7171427519427
454,722.729203028069
455,722.7417216563946
456,722.7546132375438
457,722.7677900054766
458,722.7811626451319
459,722.7946411194487
460,722.8081354908062
461,722.8215567232476
462,722.8348174543539
463,722.8478327282414
464,722.8605206832804
465,722.8728031895168
466,722.884606431305
467,722.8958614305543
468,722.9065045058924
469,722.9164776635146
470,722.9257289166541
471,722.9342125323245
472,722.9418892060659
473,722.9487261674559
474,722.9546972206741
475,722.9597827251328
476,722.963969521088
477,722.9672508044887
478,722.9696259547455
479,722.971100319083
480,722.9716849577276
481,722.971396355311
482,722.9702561053833
483,722.9682905761932
484,722.9655305660266
485,722.9620109551867
486,722.957770359924
487,722.9528507923176
488,722.9472973294779
489,722.9411577947701
490,722.9344824524774
491,722.927323715672
492,722.9197358657228
493,722.9117747813228
494,722.9034976752913
495,722.8949628384701
496,722.8862293913022
497,722.8773570445667
498,722.8684058707425
499,722.8594360864006
500,722.8505078441813
501,722.8416810309569
502,722.8330150673357
503,722.8245687032437
504,722.8163998051912
505,722.8085651330132
506,722.8011201070541
507,722.7941185703479
508,722.7876125533988
509,722.7816520506269
510,722.7762848168376
511,722.7715561896708
512,722.7675089410111
513,722.7641831577024
514,722.7616161497851
515,722.7598423826398
516,722.7588934277941
517,722.7587979262896
518,722.759581559041
519,722.7612670202649
520,722.7638739916284
521,722.767419115433
522,722.7719159651656
523,722.7773750118808
524,722.7838035855152
525,722.791205831044
526,722.7995826598086
527,722.8089316964648
528,722.8192472225458
529,722.8305201189416
530,722.8427378112126
531,722.8558842230728
532,722.8699397445645
533,722.8848812224272
534,722.9006819806999
535,722.9173118792496
536,722.9347374167646
537,722.9529218831842
538,722.9718255647292
539,722.9914060024602
540,723.0116183028167
541,723.0324154965538
542,723.0537489412012
543,723.0755687612456
544,723.0978243189934
545,723.1204647072448
546,723.1434392527735
547,723.1666980177524
548,723.1901922852072
549,723.2138750147838
550,723.2377012568274
551,723.261628515696
552,723.2856170565367
553,723.3096301525217
554,723.3336342711359
555,723.357599198672
556,723.3814981023734
557,723.4053075303433
558,723.429007350563
559,723.4525806320371
560,723.4760134729571
561,723.4992947823612
562,723.5224160227111
563,723.5453709210192
564,723.5681551556863
565,723.5907660254625
566,723.613202106689
567,723.6354629055847
568,723.6575485131772
569,723.6794592704856
570,723.70119545024
571,723.7227569592044
572,723.7441430632788
573,723.7653521368946
574,723.7863814384494
575,723.8072269134008
576,723.8278830256817
577,723.848342617156
578,723.8685967948254
579,723.8886348461763
580,723.9084441837327
581,723.9280103204152
582,723.9473168778945
583,723.9663456304498
584,723.9850765863891
585,724.0034881079948
586,724.021557069815
587,724.0392590540866
588,724.0565685805005
589,724.0734593649595
590,724.0899045991933
591,724.1058772413625
592,724.1213503075487
593,724.1362971547261
594,724.1506917468879
595,724.1645088974332
596,724.177724482604
597,724.1903156223194
598,724.2022608258798
599,724.2135401008418
600,724.2241350242043
601,724.2340287760111
602,724.2432061365312
603,724.2516534493877
604,724.2593585544067
605,724.266310695166
606,724.2725004066887
607,724.2779193882968
608,724.2825603657342
609,724.2864169459266
610,724.2894834677003
611,724.2917548525802
612,724.293226461094
613,724.2938939610476
614,724.2937532142739
615,724.2928001871636
616,724.2910308883562
617,724.2884413352413
618,724.285027550041
619,724.2807855860707
620,724.2757115845761
621,724.2698018616449
622,724.263053023077
623,724.2554621034662
624,724.2470267247229
625,724.2377452687982
626,724.2276170590217
627,724.2166425442525
628,724.2048234803137
629,724.192163103836
630,724.178666294271
631,724.1643397202683
632,724.1491919671319
633,724.1332336431669
634,724.1164774645824
635,724.0989383206739
636,724.0806333224552
637,724.0615818383968
638,724.0418055207322
639,724.021328325382
640,724.0001765280797
641,723.9783787384476
642,723.9559659122207
643,723.9329713598294
644,723.9094307480138
645,723.8853820908216
646,723.8608657273204
647,723.8359242848732
648,723.8106026278817
649,723.7849477918587
650,723.7590089016319
651,723.7328370711174
652,723.7064852811279
653,723.6800082312936
654,723.653462162152
655,723.6269046436977
656,723.6003943271755
657,723.573990657512
658,723.5477535444818
659,723.521742991857
660,723.4960186857824
661,723.4706395462413
662,723.445663248003
663,723.4211457192845
664,723.3971406272198
665,723.3736988591422
666,723.3508680078854
667,723.3286918681663
668,723.3072099500165
669,723.2864570144019
670,723.2664626355327
671,723.2472507936468
672,723.2288395011647
673,723.2112404643174
674,723.1944587820226
675,723.1784926841799
676,723.1633333125953
677,723.1489645488865
678,723.1353628943191
679,723.1224974064618
680,723.1103296969694
681,723.0988139936211
682,723.0878972680894
683,723.0775194295611
684,723.0676135838266
685,723.0581063574027
686,723.0489182858563
687,723.0399642644592
688,723.0311540580833
689,723.0223928664416
690,723.0135819406258
691,723.0046192474742
692,722.9954001794798
693,722.9858183089417
694,722.9757661847917
695,722.96513616876
696,722.9538213049772
697,722.9417162147356
698,722.9287180067868
699,722.914727193584
700,722.899648604674
701,722.8833922889127
702,722.865874396923
703,722.8470180347813
704,722.8267540799001
705,722.8050219503441
706,722.7817703188736
707,722.7569577628603
708,722.7305533414632
709,722.7025370925289
710,722.6729004434122
711,722.6416465317809
712,722.6087904340868
713,722.574359300527
714,722.5383923960624
715,722.5009410477485
716,722.4620684995464
717,722.4218496768685
718,722.3803708640196
719,722.3377292981919
720,722.2940326838465
721,722.2493986311929
722,722.203954022156
723,722.1578343070515
724,722.1111827355402
725,722.0641495260728
726,722.0168909785434
727,721.9695685352307
728,721.9223477954175
729,721.8753974891637
730,721.8288884155834
731,721.7829923511648
732,721.7378809346507
733,721.6937245365954
734,721.650691123338
735,721.6089451263736
736,721.5686463289886
737,721.5299487827634
738,721.4929997670786
739,721.4579388048763
740,721.4248967475294
741,721.3939949408913
742,721.3653444833798
743,721.3390455849543
744,721.3151870330981
745,721.2938457690075
746,721.2750865747973
747,721.2589618708517
748,721.2455116211537
749,721.2347633431307
750,721.2267322172399
751,721.2214212906275
752,721.2188217689255
753,721.2189133902184
754,721.2216648751364
755,721.2270344470232
756,721.234970416131
757,721.2454118214062
758,721.2582891225047
759,721.2735249336266
760,721.2910347900374
761,721.3107279377742
762,721.332508136764
763,721.3562744674255
764,721.3819221311776
765,721.4093432365261
766,721.4384275646484
767,721.4690633112931
768,721.5011378045559
769,721.5345381997125
770,721.5691521522234
771,721.6048684685302
772,721.6415777320568
773,721.6791728996094
774,721.7175498618273
775,721.756607960918
776,721.7962504595773
777,721.8363849564581
778,721.876923745459
779,721.9177841179079
780,721.9588886081826
781,722.0001651848312
782,722.0415473911935
783,722.0829744413156
784,722.1243912776521
785,722.1657485963524
786,722.2070028444218
787,722.2481161917162
788,722.2890564800663
789,722.329797151461
790,722.3703171566763
791,722.410600845086
792,722.4506378360514
793,722.4904228725418
794,722.529955658409
795,722.5692406815243
796,722.6082870252619
797,722.6471081706443
798,722.6857217912376
799,722.7241495427022
800,722.7624168484734
801,722.8005526823214
802,722.8385893479491
803,722.876562255497
804,722.9145096943761
805,722.9524726009798
806,722.9904943192109
807,723.0286203521987
808,723.0668981048879
809,723.1053766185793
810,723.1441062996576
811,723.1831386456413
812,723.2225259720336
813,723.2623211428853
814,723.302577306574
815,723.3433476365977
816,723.3846850759118
817,723.4266420830165
818,723.4692703785827
819,723.5126206922725
820,723.5567425100359
821,723.601683822432
822,723.6474908746001
823,723.6942079183424
824,723.7418769663412
825,723.7905375478363
826,723.8402264644253
827,723.8909775443757
828,723.9428213942177
829,723.9957851473857
830,724.0498922108684
831,724.1051620116525
832,724.1616097447447
833,724.2192461239358
834,724.2780771359229
835,724.3381037985192
836,724.3993219243738
837,724.4617218923687
838,724.525288428999
839,724.5900004011517
840,724.6558306201023
841,724.7227456551076
842,724.7907056543539
843,724.859664171459
844,724.9295679970895
845,725.0003569968472
846,725.0719639575022
847,725.1443144439218
848,725.2173266695262
849,725.2909113842163
850,725.3649717849336
851,725.4394034545982
852,725.5140943350817
853,725.5889247397724
854,725.6637674118899
855,725.738487635983
856,725.812943411282
857,725.8869856960636
858,725.9604587314451
859,726.033200450805
860,726.1050429776236
861,726.1758132110274
862,726.2453334956141
863,726.3134223703133
864,726.3798953898727
865,726.4445660120339
866,726.507246543455
867,726.5677491373997
868,726.6258868355009
869,726.6814746442645
870,726.7343306348355
871,726.7842770529356
872,726.8311414256102
873,726.8747576523449
874,726.9149670694309
875,726.9516194776003
876,726.9845741239773
877,727.013700630525
878,727.0388798622929
879,727.0600047293709
880,727.0769809162827
881,727.0897275321153
882,727.0981776749204
883,727.1022789050813
884,727.1019936237444
885,727.0972993533903
886,727.0881889181554
887,727.0746705218348
888,727.0567677216391
889,727.0345192957016
890,727.0079790021359
891,726.9772152274282
892,726.9423105227389
893,726.9033610286871
894,726.860475791914
895,726.8137759791969
896,726.7633939967435
897,726.709472523897
898,726.65216347191
899,726.5916268793013
900,726.5280297554249
901,726.4615448836857
902,726.3923495958758
903,726.320624529464
904,726.2465523802246
905,726.1703166630693
906,726.0921004939858
907,726.0120854050684
908,725.9304502028302
909,725.8473698781445
910,725.7630145752614
911,725.6775486275146
912,725.5911296679787
913,725.5039078236225
914,725.4160250009736
915,725.3276142701328
916,725.2387993526029
917,725.1496942173026
