frame_number,force
0,724.1973879837074
1,724.0331536634172
2,723.8693364039801
3,723.7063501006513
4,723.5446023679549
5,723.384491522465
6,723.2264037064555
7,723.0707101905429
8,722.9177648884663
9,722.7679021117374
10,722.6214345859196
11,722.478651743925
12,722.3398183053563
13,722.2051731448292
14,722.0749284465156
15,721.9492691374412
16,721.8283525890539
17,721.7123085750952
18,721.601239472776
19,721.4952206928841
20,721.3943013230106
21,721.2985049672678
22,721.2078307655908
23,721.1222545751783
24,721.0417302954731
25,720.9661913167889
26,720.8955520720973
27,720.829709671954
28,720.7685456034918
29,720.7119274748175
30,720.6597107857639
31,720.6117407055216
32,720.5678538378805
33,720.5278799556831
34,720.4916436875167
35,720.4589661418619
36,720.4296664567672
37,720.4035632659143
38,720.3804760740408
39,720.3602265359626
40,720.3426396339293
41,720.3275447479845
42,720.314776614164
43,720.3041761664407
44,720.2955912601693
45,720.2888772767691
46,720.2838976111675
47,720.2805240449259
48,720.2786370089008
49,720.2781257399183
50,720.2788883363354
51,720.280831717497
52,720.2838714921336
53,720.2879317409668
54,720.2929447192137
55,720.2988504852235
56,720.3055964621833
57,720.3131369406199
58,720.3214325297239
59,720.3304495647533
60,720.3401594762896
61,720.3505381261704
62,720.3615651154183
63,720.3732230711498
64,720.3854969214096
65,720.3983731687185
66,720.4118391747606
67,720.4258824697254
68,720.4404900997727
69,720.4556480247418
70,720.471340576068
71,720.4875499825793
72,720.5042559696489
73,720.5214354349987
74,720.539062202367
75,720.5571068526108
76,720.5755366307669
77,720.5943154268974
78,720.6134038278618
79,720.6327592363627
80,720.6523360527609
81,720.6720859141534
82,720.6919579839548
83,720.7118992838962
84,720.7318550595604
85,720.7517691709334
86,720.7715845009548
87,720.791243376805
88,720.8106879995034
89,720.8298608771075
90,720.8487052562637
91,720.867165546881
92,720.885187735118
93,720.9027197801823
94,720.9197119907153
95,720.936117377089
96,720.9518919766128
97,720.9669951489659
98,720.9813898389647
99,720.9950428034509
100,721.0079247992318
101,721.0200107298533
102,721.0312797500802
103,721.0417153276425
104,721.0513052619692
105,721.0600416596743
106,721.0679208669342
107,721.0749433598315
108,721.0811135952836
109,721.0864398271674
110,721.0909338941668
111,721.0946109869656
112,721.0974894023495
113,721.0995902909207
114,721.1009374041867
115,721.1015568461165
116,721.1014768335529
117,721.1007274687586
118,721.0993405258906
119,721.097349251724
120,721.0947881798859
121,721.0916929574759
122,721.0881001832
123,721.0840472566481
124,721.0795722389671
125,721.0747137260632
126,721.0695107362978
127,721.0640026147478
128,721.058228955385
129,721.0522295416896
130,721.0460443058083
131,721.0397133062222
132,721.0332767234776
133,721.0267748727161
134,721.0202482308704
135,721.0137374758525
136,721.0072835349471
137,721.000927639769
138,720.9947113853397
139,720.9886767908246
140,720.982866359233
141,720.9773231332429
142,720.9720907445155
143,720.9672134541263
144,720.9627361817345
145,720.9587045211028
146,720.9551647401229
147,720.9521637647831
148,720.9497491480938
149,720.9479690261539
150,720.9468720638628
151,720.9465073922358
152,720.9469245382369
153,720.9481733470053
154,720.950303895692
155,720.9533663977898
156,720.9574110966335
157,720.9624881465897
158,720.9686474804696
159,720.9759386617752
160,720.9844107202973
161,720.9941119693513
162,721.0050898029622
163,721.0173904719168
164,721.0310588386325
165,721.0461381117846
166,721.0626695623839
167,721.08069222381
168,721.100242579283
169,721.1213542408489
170,721.1440576235623
171,721.1683796173576
172,721.1943432579754
173,721.2219673979124
174,721.2512663788262
175,721.2822497079128
176,721.3149217420073
177,721.3492813840588
178,721.3853217969826
179,721.423030139825
180,721.4623873308414
181,721.5033678414729
182,721.54593952421
183,721.5900634759577
184,721.635693937028
185,721.6827782247138
186,721.7312566999478
187,721.7810627659271
188,721.8321228986845
189,721.8843567111669
190,721.9376770539124
191,721.9919901561789
192,722.0471958110501
193,722.1031876070929
194,722.159853208316
195,722.217074683574
196,722.2747288858977
197,722.3326878817737
198,722.3908194305222
199,722.4489875141024
200,722.5070529168652
201,722.5648738528047
202,722.6223066355534
203,722.6792063845888
204,722.7354277600538
205,722.7908257179312
206,722.8452562768845
207,722.8985772879408
208,722.9506491984223
209,723.0013358020042
210,723.0505049672643
211,723.0980293375219
212,723.1437869953655
213,723.1876620861694
214,723.2295453958913
215,723.2693348792579
216,723.3069361351722
217,723.3422628271483
218,723.3752370479807
219,723.4057896293313
220,723.4338603979635
221,723.4593983807881
222,723.4823619608287
223,723.5027189857842
224,723.5204468299587
225,723.5355324090345
226,723.5479721461218
227,723.5577718874664
228,723.5649467672008
229,723.5695210220028
230,723.5715277581096
231,723.5710086749066
232,723.5680137513652
233,723.5626009034326
234,723.5548356211933
235,723.5447905937436
236,723.5325453275552
237,723.5181857614286
238,723.50180387862
239,723.4834973149229
240,723.4633689608264
241,723.4415265564668
242,723.4180822795721
243,723.3931523281584
244,723.3668565006171
245,723.3393177757621
246,723.3106618947099
247,723.2810169455987
248,723.2505129512397
249,723.2192814587443
250,723.1874551288934
251,723.1551673215965
252,723.1225516725126
253,723.0897416552273
254,723.0568701236558
255,723.024068830626
256,722.9914679206468
257,722.9591953972035
258,722.9273765671013
259,722.8961334662945
260,722.8655842734528
261,722.8358427193384
262,722.8070175017955
263,722.7792117173977
264,722.7525223212886
265,722.7270396266916
266,722.7028468553948
267,722.6800197501354
268,722.6586262586313
269,722.6387262966716
270,722.6203715944891
271,722.6036056271035
272,722.5884636259658
273,722.5749726664172
274,722.5631518234208
275,722.5530123869933
276,722.5445581288346
277,722.5377856121947
278,722.5326845372902
279,722.5292381146166
280,722.5274234589709
281,722.5272119981682
282,722.5285698918823
283,722.5314584571872
284,722.5358345981724
285,722.5416512376073
286,722.5488577490023
287,722.5574003872491
288,722.5672227153434
289,722.5782660239139
290,722.5904697398664
291,722.6037718205066
292,722.6181091298884
293,722.6334177945475
294,722.6496335359875
295,722.6666919774431
296,722.6845289229921
297,722.7030806080995
298,722.7222839217529
299,722.742076600956
300,722.7623973983566
301,722.7831862235511
302,722.8043842584296
303,722.825934046504
304,722.847779555075
305,722.8698662077051
306,722.8921408838684
307,722.9145518837296
308,722.9370488585271
309,722.95958271002
310,722.9821054649569
311,723.0045701321005
312,723.0269305500611
313,723.0491412344356
314,723.0711572327876
315,723.0929339958182
316,723.1144272724304
317,723.1355930350619
318,723.1563874396815
319,723.1767668226589
320,723.1966877349385
321,723.2161070128468
322,723.234981884332
323,723.2532701091158
324,723.2709301506293
325,723.2879213761983
326,723.3042042799293
327,723.3197407209697
328,723.3344941688771
329,723.3484299477503
330,723.361515471538
331,723.3737204647025
332,723.3850171647649
333,723.3953805053151
334,723.4047882794739
335,723.4132212849748
336,723.4206634531209
337,723.4271019641922
338,723.4325273509404
339,723.4369335901686
340,723.4403181810422
341,723.4426822081492
342,723.4440303871417
343,723.4443710907577
344,723.4437163531527
345,723.4420818509997
346,723.4394868608777
347,723.4359541938252
348,723.431510109119
349,723.4261842098255
350,723.4200093222433
351,723.4130213602095
352,723.4052591739762
353,723.3967643826397
354,723.3875811890346
355,723.3777561761087
356,723.3673380834858
357,723.3563775622475
358,723.3449269056698
359,723.3330397544302
360,723.3207707767759
361,723.3081753268602
362,723.2953090871846
363,723.2822277029233
364,723.2689864162488
365,723.2556397078725
366,723.2422409515458
367,723.2288420856535
368,723.2154933044133
369,723.2022427698637
370,723.1891363449719
371,723.17621734759
372,723.1635263242838
373,723.1511008422357
374,723.138975296819
375,723.1271807323949
376,723.1157446745088
377,723.1046909727853
378,723.0940396550702
379,723.0838067944196
380,723.0740043912856
381,723.0646402737965
382,723.0557180194509
383,723.0472369017751
384,723.0391918653445
385,723.0315735318787
386,723.0243682391505
387,723.0175581138586
388,723.0111211799082
389,723.0050315043244
390,722.9992593834187
391,722.9937715713656
392,722.9885315524298
393,722.9834998573463
394,722.9786344240341
395,722.973891002665
396,722.9692236048445
397,722.9645849962127
398,722.9599272311743
399,722.9552022276611
400,722.9503623784731
401,722.945361193403
402,722.9401539631046
403,722.9346984323098
404,722.9289554674207
405,722.9228897022563
406,722.9164701461004
407,722.9096707401809
408,722.9024708517993
409,722.8948556986273
410,722.8868166982821
411,722.8783517398101
412,722.8694653744835
413,722.8601689239193
414,722.8504805041215
415,722.840424964528
416,722.8300337417251
417,722.8193446286951
418,722.8084014624691
419,722.7972537353467
420,722.7859561367477
421,722.7745680340407
422,722.763152901412
423,722.7517777059032
424,722.7405122592096
425,722.7294285429756
426,722.7186000142726
427,722.7081008965486
428,722.6980054597454
429,722.6883872921452
430,722.6793185665945
431,722.6708693053253
432,722.6631066501408
433,722.6560941472399
434,722.6498910573313
435,722.6445517015206
436,722.6401248522461
437,722.636653176996
438,722.634172740947
439,722.6327125731634
440,722.6322942999406
441,722.6329318484384
442,722.6346312235811
443,722.6373903608021
444,722.6411990565434
445,722.646038977728
446,722.6518837508349
447,722.6586991305769
448,722.6664432473458
449,722.6750669316032
450,722.684514112574
451,722.6947222881422
452,722.7056230625261
453,722.7171427477406
454,722.7292030239028
455,722.741721652264
456,722.7546132334479
457,722.7677900014137
458,722.7811626410999
459,722.7946411154454
460,722.8081354868297
461,722.8215567192957
462,722.8348174504246
463,722.8478327243329
464,722.8605206793915
465,722.8728031856468
466,722.8846064274535
467,722.8958614267214
468,722.9065045020784
469,722.9164776597205
470,722.9257289128811
471,722.9342125285748
472,722.9418892023422
473,722.9487261637619
474,722.9546972170141
475,722.9597827215114
476,722.96396951751
477,722.9672508009593
478,722.9696259512691
479,722.9711003156634
480,722.9716849543687
481,722.9713963520162
482,722.9702561021553
483,722.9682905730336
484,722.9655305629361
485,722.962010952165
486,722.9577703569691
487,722.9528507894264
488,722.9472973266459
489,722.941157791992
490,722.9344824497477
491,722.9273237129852
492,722.9197358630734
493,722.9117747787052
494,722.9034976726998
495,722.8949628358987
496,722.8862293887449
497,722.8773570420178
498,722.868405868197
499,722.8594360838537
500,722.8505078416285
501,722.8416810283942
502,722.8330150647599
503,722.8245687006527
504,722.8163998025833
505,722.8085651303871
506,722.8011201044087
507,722.7941185676826
508,722.7876125507136
509,722.7816520479219
510,722.7762848141139
511,722.7715561869298
512,722.7675089382545
513,722.7641831549319
514,722.7616161470027
515,722.7598423798479
516,722.7588934249956
517,722.7587979234871
518,722.7595815562365
519,722.7612670174601
520,722.7638739888249
521,722.7674191126324
522,722.7719159623693
523,722.77737500909
524,722.7838035827302
525,722.7912058282649
526,722.7995826570346
527,722.8089316936945
528,722.8192472197768
529,722.8305201161711
530,722.842737808437
531,722.8558842202885
532,722.8699397417669
533,722.8848812196111
534,722.9006819778592
535,722.9173118763777
536,722.934737413854
537,722.9529218802269
538,722.9718255617167
539,722.9914059993836
540,723.0116182996668
541,723.0324154933218
542,723.0537489378795
543,723.0755687578278
544,723.0978243154744
545,723.1204647036204
546,723.1434392490403
547,723.1666980139081
548,723.1901922812509
549,723.2138750107156
550,723.2377012526487
551,723.2616285114087
552,723.2856170521438
553,723.3096301480265
554,723.3336342665417
555,723.3575991939827
556,723.3814980975933
557,723.4053075254775
558,723.4290073456166
559,723.4525806270155
560,723.4760134678666
561,723.499294777208
562,723.5224160175019
563,723.545370915761
564,723.5681551503867
565,723.5907660201294
566,723.613202101331
567,723.6354629002111
568,723.6575485077979
569,723.6794592651113
570,723.7011954448817
571,723.722756953873
572,723.7441430579846
573,723.7653521316473
574,723.7863814332583
575,723.8072269082752
576,723.8278830206307
577,723.848342612188
578,723.8685967899481
579,723.8886348413969
580,723.9084441790576
581,723.9280103158499
582,723.9473168734437
583,723.9663456261171
584,723.9850765821776
585,724.0034881039074
586,724.0215570658542
587,724.0392590502544
588,724.0565685767984
589,724.0734593613886
590,724.0899045957541
591,724.105877238055
592,724.1213503043723
593,724.1362971516794
594,724.1506917439689
595,724.1645088946392
596,724.1777244799322
597,724.1903156197664
598,724.202260823441
599,724.2135400985114
600,724.2241350219754
601,724.2340287738758
602,724.2432061344814
603,724.2516534474148
604,724.2593585525018
605,724.2663106933196
606,724.2725004048907
607,724.277919386537
608,724.2825603640016
609,724.2864169442093
610,724.2894834659858
611,724.2917548508553
612,724.2932264593453
613,724.293893959261
614,724.2937532124357
615,724.2928001852606
616,724.2910308863754
617,724.2884413331701
618,724.2850275478673
619,724.2807855837832
620,724.2757115821648
621,724.269801859102
622,724.2630530203969
623,724.2554621006448
624,724.2470267217569
625,724.2377452656858
626,724.2276170557617
627,724.2166425408448
628,724.2048234767586
629,724.1921631001347
630,724.1786662904259
631,724.1643397162832
632,724.1491919630113
633,724.1332336389164
634,724.1164774602083
635,724.0989383161834
636,724.0806333178566
637,724.0615818336996
638,724.0418055159477
639,724.0213283205229
640,724.0001765231598
641,723.9783787334812
642,723.9559659072222
643,723.9329713548129
644,723.9094307429926
645,723.8853820858077
646,723.8608657223242
647,723.8359242799038
648,723.8106026229469
649,723.7849477869646
650,723.7590088967834
651,723.732837066318
652,723.70648527638
653,723.6800082265985
654,723.6534621575096
655,723.6269046391074
656,723.6003943226361
657,723.5739906530221
658,723.5477535400394
659,723.5217429874597
660,723.4960186814276
661,723.4706395419262
662,723.4456632437245
663,723.4211457150394
664,723.3971406230047
665,723.3736988549537
666,723.3508680037197
667,723.3286918640198
668,723.3072099458853
669,723.2864570102818
670,723.2664626314189
671,723.2472507895347
672,723.2288394970496
673,723.2112404601944
674,723.194458777887
675,723.1784926800274
676,723.1633333084218
677,723.1489645446878
678,723.1353628900913
679,723.1224974022016
680,723.1103296926744
681,723.0988139892896
682,723.08789726372
683,723.0775194251531
684,723.0676135793793
685,723.0581063529152
686,723.0489182813279
687,723.0399642598895
688,723.0311540534719
689,723.022392861788
690,723.01358193593
691,723.0046192427362
692,722.9954001747003
693,722.985818304122
694,722.9757661799334
695,722.9651361638653
696,722.9538213000483
697,722.9417162097745
698,722.928718001795
699,722.9147271885627
700,722.8996485996242
701,722.8833922838357
702,722.8658743918204
703,722.8470180296547
704,722.8267540747514
705,722.8050219451756
706,722.7817703136876
707,722.7569577576592
708,722.7305533362485
709,722.7025370873023
710,722.6729004381751
711,722.6416465265346
712,722.6087904288324
713,722.5743592952656
714,722.5383923907951
715,722.5009410424768
716,722.4620684942714
717,722.4218496715914
718,722.3803708587413
719,722.3377292929134
720,722.2940326785689
721,722.2493986259179
722,722.203954016886
723,722.1578343017887
724,722.1111827302875
725,722.0641495208334
726,722.0168909733204
727,721.969568530027
728,721.9223477902361
729,721.8753974840075
730,721.8288884104552
731,721.7829923460673
732,721.7378809295865
733,721.6937245315667
734,721.6506911183469
735,721.6089451214218
736,721.5686463240776
737,721.5299487778943
738,721.4929997622522
739,721.4579388000927
740,721.424896742788
741,721.3939949361913
742,721.3653444787207
743,721.3390455803352
744,721.3151870285184
745,721.2938457644668
746,721.275086570296
747,721.2589618663901
748,721.2455116167318
749,721.2347633387491
750,721.226732212899
751,721.2214212863281
752,721.2188217646687
753,721.2189133860057
754,721.2216648709696
755,721.2270344429036
756,721.2349704120596
757,721.2454118173838
758,721.2582891185316
759,721.2735249297024
760,721.291034786161
761,721.3107279339443
762,721.3325081329789
763,721.3562744636835
764,721.3819221274771
765,721.4093432328657
766,721.4384275610278
767,721.4690633077126
768,721.5011378010162
769,721.5345381962146
770,721.569152148769
771,721.6048684651215
772,721.6415777286965
773,721.6791728963003
774,721.7175498585726
775,721.7566079577213
776,721.7962504564418
777,721.8363849533872
778,721.8769237424559
779,721.9177841149758
780,721.958888605324
781,722.0001651820481
782,722.0415473884879
783,722.0829744386891
784,722.1243912751064
785,722.1657485938888
786,722.2070028420408
787,722.2481161894176
788,722.2890564778494
789,722.3297971493241
790,722.3703171546163
791,722.4106008430982
792,722.4506378341301
793,722.4904228706799
794,722.5299556565984
795,722.5692406797552
796,722.6082870235234
797,722.6471081689248
798,722.6857217895252
799,722.7241495409853
800,722.7624168467404
801,722.800552680561
802,722.8385893461507
803,722.8765622536505
804,722.9145096924724
805,722.9524725990108
806,722.9904943171695
807,723.0286203500788
808,723.0668981026846
809,723.1053766162881
810,723.1441062972746
811,723.1831386431635
812,723.2225259694595
813,723.2623211402151
814,723.3025773038089
815,723.3433476337394
816,723.3846850729624
817,723.4266420799787
818,723.4692703754595
819,723.5126206890675
820,723.5567425067527
821,723.6016838190745
822,723.6474908711716
823,723.6942079148464
824,723.7418769627815
825,723.7905375442162
826,723.8402264607483
827,723.8909775406447
828,723.9428213904355
829,723.9957851435544
830,724.04989220699
831,724.1051620077285
832,724.1616097407765
833,724.2192461199244
834,724.2780771318688
835,724.3381037944226
836,724.3993219202345
837,724.4617218881863
838,724.5252884247732
839,724.5900003968821
840,724.655830615789
841,724.722745650751
842,724.7907056499554
843,724.859664167021
844,724.9295679926154
845,725.000356992341
846,725.071963952969
847,725.1443144393673
848,725.2173266649569
849,725.2909113796383
850,725.3649717803522
851,725.4394034500189
852,725.5140943305098
853,725.5889247352131
854,725.6637674073487
855,725.7384876314655
856,725.8129434067945
857,725.886985691612
858,725.9604587270351
859,726.0332004464415
860,726.1050429733107
861,726.1758132067682
862,726.2453334914105
863,726.313422366166
864,726.3798953857813
865,726.4445660079969
866,726.5072465394699
867,726.5677491334634
868,726.6258868316099
869,726.6814746404145
870,726.7343306310212
871,726.7842770491512
872,726.8311414218492
873,726.8747576486003
874,726.9149670656956
875,726.9516194738677
876,726.9845741202411
877,727.0137006267795
878,727.0388798585327
879,727.0600047255908
880,727.0769809124777
881,727.0897275282807
882,727.0981776710524
883,727.1022789011773
884,727.101993619803
885,727.097299349411
886,727.088188914138
887,727.0746705177795
888,727.0567677175461
889,727.0345192915715
890,727.00797899797
891,726.9772152232276
892,726.9423105185052
893,726.9033610244222
894,726.8604757876199
895,726.8137759748746
896,726.7633939923943
897,726.7094725195224
898,726.652163467512
899,726.5916268748828
900,726.5280297509886
901,726.4615448792347
902,726.392349591413
903,726.3206245249924
904,726.2465523757465
905,726.170316658587
906,726.0921004895008
907,726.0120854005824
908,725.9304501983439
909,725.8473698736584
910,725.7630145707758
911,725.6775486230293
912,725.5911296634937
913,725.503907819138
914,725.4160249964909
915,725.3276142656541
916,725.2387993481317
917,725.1496942128433
