frame_number,force
0,724.197387983676
1,724.0363015114917
2,723.8756015916098
3,723.7156719955466
4,723.5568909760722
5,723.3996286124465
6,723.244244275416
7,723.0910842445068
8,722.940479505973
9,722.7927437552294
10,722.6481716225766
11,722.5070371356892
12,722.3695924269872
13,722.2360666888902
14,722.1066653751578
15,721.9815696425424
16,721.860936024405
17,721.7448963266547
18,721.6335577354445
19,721.5270031248494
20,721.4252915514936
21,721.328458922342
22,721.2365188215836
23,721.1494634820153
24,721.0672648853184
25,720.9898759744798
26,720.9172319610597
27,720.8492517103423
28,720.7858391881449
29,720.7268849533543
30,720.6722676798987
31,720.6218556914619
32,720.5755084923946
33,720.5330782789622
34,720.4944114162375
35,720.4593498677548
36,720.4277325673908
37,720.3993967252666
38,720.3741790612065
39,720.3519169603495
40,720.3324495459237
41,720.3156186641525
42,720.3012697764015
43,720.2892527545977
44,720.279422577498
45,720.2716399270693
46,720.2657716857499
47,720.261691336562
48,720.2592792688475
49,720.2584229929569
50,720.2590172675854
51,720.2609641436006
52,720.264172928274
53,720.2685600740518
54,720.2740489963959
55,720.2805698257105
56,720.2880590990039
57,720.2964593976234
58,720.3057189376904
59,720.3157911192599
60,720.3266340390257
61,720.338209970635
62,720.3504848171198
63,720.3634275413684
64,720.377009582222
65,720.3912042653369
66,720.4059862193453
67,720.4213308087675
68,720.4372135951144
69,720.4536098365018
70,720.470494034319
71,720.4878395335935
72,720.505618181869
73,720.5238000496022
74,720.542353213354
75,720.5612436016764
76,720.5804349027273
77,720.5998885320566
78,720.6195636584322
79,720.6394172849025
80,720.6594043815762
81,720.6794780657507
82,720.6995898239684
83,720.7196897694593
84,720.7397269277541
85,720.7596495435351
86,720.779405403033
87,720.7989421677214
88,720.8182077157438
89,720.8371504872534
90,720.8557198293848
91,720.873866336575
92,720.8915421822871
93,720.908701438433
94,720.9253003790052
95,720.9412977648748
96,720.9566551072622
97,720.971336907637
98,720.9853108716226
99,720.9985480941988
100,721.0110232136095
101,721.0227145320821
102,721.0336041023644
103,721.0436777796542
104,721.0529252386206
105,721.0613399552486
106,721.0689191535473
107,721.0756637179336
108,721.081578073391
109,721.0866700371583
110,721.090950647292
111,721.0944339743664
112,721.097136922519
113,721.0990790253302
114,721.1002822412506
115,721.1007707527214
116,721.1005707725565
117,721.0997103602266
118,721.0982192494474
119,721.0961286872582
120,721.0934712838844
121,721.0902808723682
122,721.0865923771582
123,721.0824416912708
124,721.0778655621575
125,721.0729014871495
126,721.067587620044
127,721.0619626904931
128,721.0560659372572
129,721.0499370556938
130,721.043616159518
131,721.037143756752
132,721.0305607394439
133,721.0239083860608
134,721.0172283747396
135,721.0105628051368
136,721.0039542265271
137,720.9974456699275
138,720.9910806821968
139,720.984903360049
140,720.9789583817344
141,720.9732910340254
142,720.9679472323241
143,720.9629735319331
144,720.9584171285325
145,720.9543258459132
146,720.9507481094678
147,720.9477329050225
148,720.9453297239148
149,720.9435884962052
150,720.942559514183
151,720.942293347886
152,720.9428407534873
153,720.9442525745521
154,720.9465796356185
155,720.9498726272966
156,720.9541819819096
157,720.95955773858
158,720.96604939668
159,720.9737057566425
160,720.9825747470509
161,720.9927032367433
162,721.004136830694
163,721.0169196489371
164,721.0310940886706
165,721.0467005705002
166,721.0637772704133
167,721.0823598397499
168,721.102481116252
169,721.1241708297667
170,721.1474553058456
171,721.1723571694928
172,721.1988950503693
173,721.2270832904202
174,721.2569316552776
175,721.2884450516829
176,721.3216232541944
177,721.3564606451846
178,721.3929459724116
179,721.4310621283834
180,721.4707859554395
181,721.512088079949
182,721.5549327781767
183,721.5992778752135
184,721.6450746771026
185,721.692267935307
186,721.7407958422666
187,721.790590057091
188,721.8415757613315
189,721.8936717460724
190,721.9467905328387
191,722.0008385314311
192,722.0557162375122
193,722.1113184719513
194,722.1675346632339
195,722.2242491737201
196,722.2813416699646
197,722.3386875369155
198,722.3961583358985
199,722.453622306427
200,722.5109449111948
201,722.5679894219553
202,722.6246175420555
203,722.6806900599111
204,722.7360675268061
205,722.7906109518491
206,722.8441825065512
207,722.8966462313801
208,722.947868736831
209,722.9977198919504
210,723.0460734936564
211,723.0928079105635
212,723.1378066955251
213,723.1809591618686
214,723.2221609191264
215,723.2613143647618
216,723.2983291290011
217,723.3331224707101
218,723.3656196234311
219,723.3957540919457
220,723.4234679006155
221,723.4487117951313
222,723.4714453992783
223,723.4916373279824
224,723.5092652571666
225,723.5243159498926
226,723.5367852374144
227,723.5466779537496
228,723.5540078232315
229,723.5587973017599
230,723.5610773738117
231,723.5608873087654
232,723.5582743818318
233,723.5532935664247
234,723.546007205426
235,723.5364846680826
236,723.5248019974948
237,723.5110415514416
238,723.4952916372084
239,723.4776461396033
240,723.4582041408058
241,723.43706953121
242,723.4143506116641
243,723.3901596888264
244,723.3646126660971
245,723.3378286325348
246,723.3099294515976
247,723.2810393508275
248,723.2512845128495
249,723.2207926671745
250,723.1896926812427
251,723.1581141479545
252,723.1261869658755
253,723.0940409077363
254,723.0618051730685
255,723.0296079218867
256,722.9975757880235
257,722.965833372665
258,722.9345027204404
259,722.9037027820044
260,722.8735488685469
261,722.8441521051723
262,722.8156188915167
263,722.7880503789904
264,722.7615419744259
265,722.7361828798457
266,722.7120556779063
267,722.6892359722398
268,722.6677920909132
269,722.6477848592664
270,722.6292674457121
271,722.6122852811195
272,722.5968760495886
273,722.5830697460568
274,722.5708887944494
275,722.5603482192118
276,722.5514558631008
277,722.5442126445488
278,722.5386128481272
279,722.5346444416472
280,722.5322894138139
281,722.5315241273124
282,722.5323196833921
283,722.5346422949681
284,722.5384536659046
285,722.5437113746436
286,722.5503692606409
287,722.5583778119312
288,722.5676845515696
289,722.5782344200464
290,722.5899701504221
291,722.6028326329717
292,722.6167612664486
293,722.6316942934204
294,722.6475691173015
295,722.6643225988466
296,722.6818913303173
297,722.7002118863885
298,722.719221051759
299,722.7388560259388
300,722.7590546057041
301,722.7797553455158
302,722.8008976960596
303,722.8224221207173
304,722.8442701888856
305,722.8663846438993
306,722.8887094428378
307,722.911189766391
308,722.9337719990768
309,722.9564036825907
310,722.9790334471573
311,723.001610927075
312,723.0240866672472
313,723.0464120277038
314,723.0685390931575
315,723.0904205944871
316,723.1120098485111
317,723.1332607213068
318,723.1541276186939
319,723.1745655056841
320,723.1945299552171
321,723.2139772255972
322,723.2328643655995
323,723.2511493459627
324,723.2687912154744
325,723.2857502786924
326,723.301988290673
327,723.3174686625954
328,723.3321566714011
329,723.3460196664946
330,723.3590272672006
331,723.3711515461366
332,723.3823671956278
333,723.3926516760055
334,723.4019853458051
335,723.4103515748703
336,723.4177368422795
337,723.424130821282
338,723.4295264526584
339,723.4339200065548
340,723.4373111317267
341,723.4397028906042
342,723.4411017784472
343,723.4415177248351
344,723.4409640758485
345,723.4394575557521
346,723.4370182078701
347,723.433669315489
348,723.4294373046104
349,723.4243516307848
350,723.4184446519129
351,723.4117514879388
352,723.4043098673242
353,723.3961599595772
354,723.3873441930668
355,723.3779070574362
356,723.3678948896718
357,723.3573556423291
358,723.3463386321648
359,723.3348942680773
360,723.3230737588984
361,723.3109288038459
362,723.2985112707119
363,723.2858728683937
364,723.2730648206524
365,723.260137547227
366,723.2471403572017
367,723.234121158172
368,723.2211261833995
369,723.208199738028
370,723.1953839647133
371,723.1827186285092
372,723.1702409202519
373,723.1579852769888
374,723.1459832174822
375,723.1342631907664
376,723.1228504362456
377,723.1117668547408
378,723.1010308909216
379,723.0906574284174
380,723.0806576995184
381,723.0710392118137
382,723.061805694455
383,723.0529570669107
384,723.0444894329416
385,723.0363951019353
386,723.0286626389199
387,723.0212769440775
388,723.0142193628063
389,723.007467828028
390,723.0009970367508
391,722.9947786625127
392,722.9887816045522
393,722.9829722739433
394,722.9773149166507
395,722.9717719733324
396,722.966304475496
397,722.9608724772387
398,722.9554355213069
399,722.9499531375467
400,722.9443853706863
401,722.9386933324529
402,722.9328397703323
403,722.926789642493
404,722.9205106862618
405,722.9139739665106
406,722.907154390638
407,722.9000311784935
408,722.8925882781856
409,722.8848147214737
410,722.8767049146302
411,722.8682588619384
412,722.8594823196605
413,722.8503868788275
414,722.8409899757241
415,722.8313148293537
416,722.8213903056784
417,722.8112507094459
418,722.8009355061072
419,722.7904889782569
420,722.779959822624
421,722.7694006947296
422,722.7588677089361
423,722.748419901685
424,722.7381186652797
425,722.728027158874
426,722.7182097024526
427,722.7087311584365
428,722.6996563042292
429,722.6910491980644
430,722.6829725406069
431,722.675487036046
432,722.6686507585573
433,722.6625185320812
434,722.6571413325084
435,722.6525657212162
436,722.6488333178785
437,722.6459803191807
438,722.6440370687225
439,722.643027682129
440,722.6429697304953
441,722.6438739849054
442,722.6457442246023
443,722.6485771110422
444,722.6523621294813
445,722.6570815991465
446,722.6627107525317
447,722.6692178838128
448,722.6765645656587
449,722.6847059328686
450,722.6935910305643
451,722.7031632242633
452,722.7133606688677
453,722.7241168331124
454,722.735361075206
455,722.7470192644031
456,722.7590144420627
457,722.771267514101
458,722.7836979645966
459,722.7962245784177
460,722.8087661601843
461,722.8212422379753
462,722.8335737422659
463,722.8456836527542
464,722.8574976075001
465,722.8689444699539
466,722.879956849894
467,722.8904715742098
468,722.9004301033854
469,722.909778889942
470,722.9184696760695
471,722.9264597291256
472,722.9337120154171
473,722.9401953143922
474,722.9458842766478
475,722.9507594297851
476,722.9548071360734
477,722.958019505357
478,722.9603942661711
479,722.9619345980439
480,722.9626489284648
481,722.9625506989559
482,722.9616581059663
483,722.9599938233803
484,722.9575847135535
485,722.954461532809
486,722.9506586358599
487,722.9462136825558
488,722.9411673498379
489,722.9355630512434
490,722.9294466652508
491,722.9228662723899
492,722.9158718999444
493,722.9085152726233
494,722.9008495679049
495,722.8929291756459
496,722.8848094626187
497,722.8765465433772
498,722.868197058864
499,722.8598179632735
500,722.8514663181619
501,722.8431990911589
502,722.8350729554394
503,722.8271440857576
504,722.8194679475756
505,722.8120990776292
506,722.805090856919
507,722.7984952800955
508,722.7923627277431
509,722.786741749276
510,722.7816788635655
511,722.7772183824038
512,722.7734022594274
513,722.7702699649137
514,722.767858385082
515,722.7662017429899
516,722.765331536754
517,722.7652764900922
518,722.7660625106179
519,722.767712652677
520,722.7702470828124
521,722.7736830464827
522,722.7780348346672
523,722.7833137490812
524,722.7895280652467
525,722.7966829933231
526,722.8047806369393
527,722.8138199503611
528,722.8237966947652
529,722.834703395473
530,722.8465293033305
531,722.859260364595
532,722.8728792046633
533,722.8873651317945
534,722.9026941674066
535,722.9188391092439
536,722.9357696327356
537,722.9534524345611
538,722.9718514209251
539,722.9909279411804
540,723.0106410653749
541,723.030947902597
542,723.0518039559241
543,723.0731635090029
544,723.0949800382626
545,723.1172066432406
546,723.139796485724
547,723.162703226873
548,723.1858814506128
549,723.2092870617594
550,723.2328776487786
551,723.2566128035188
552,723.2804543930231
553,723.3043667808395
554,723.3283169965882
555,723.3522748530229
556,723.3762130100691
557,723.4001069859014
558,723.4239351161497
559,723.4476784637305
560,723.4713206833699
561,723.4948478462151
562,723.5182482307337
563,723.5415120862779
564,723.5646313753118
565,723.5875994996834
566,723.6104110161186
567,723.6330613466301
568,723.6555464902332
569,723.6778627423772
570,723.7000064274007
571,723.7219736474793
572,723.7437600499628
573,723.7653606144504
574,723.7867694611454
575,723.8079796819333
576,723.8289831948232
577,723.8497706216133
578,723.8703311886293
579,723.8906526509509
580,723.910721241099
581,723.9305216436034
582,723.9500369973541
583,723.9692489279062
584,723.9881376115235
585,724.0066818718315
586,724.0248593089921
587,724.0426464604474
588,724.0600189909572
589,724.0769519075218
590,724.0934197924471
591,724.1093970463668
592,724.1248581328284
593,724.1397778166272
594,724.1541313889624
595,724.1678948736759
596,724.1810452102318
597,724.1935604103799
598,724.2054196863847
599,724.2166035493796
600,724.2270938770974
601,724.2368739510331
602,724.2459284639558
603,724.2542434997032
604,724.2618064883404
605,724.2686061407725
606,724.2746323672789
607,724.2798761840779
608,724.284329611266
609,724.2879855648589
610,724.2908377456157
611,724.2928805279894
612,724.2941088536313
613,724.2945181347416
614,724.2941041725833
615,724.2928630954802
616,724.2907913190126
617,724.2878855296811
618,724.2841426925796
619,724.2795600834665
620,724.2741353454668
621,724.2678665698802
622,724.2607523992369
623,724.2527921493775
624,724.2439859464909
625,724.234334874655
626,724.2238411291369
627,724.2125081705424
628,724.2003408751315
629,724.1873456771727
630,724.1735306997438
631,724.1589058707533
632,724.1434830214072
633,724.127275965261
634,724.1103005575565
635,724.0925747362643
636,724.0741185474706
637,724.0549541581651
638,724.0351058593357
639,724.0146000619449
640,723.9934652879879
641,723.9717321581503
642,723.949433376303
643,723.9266037094338
644,723.9032799603422
645,723.8795009301716
646,723.8553073686868
647,723.8307419114717
648,723.8058490041225
649,723.7806748134808
650,723.7552671250866
651,723.7296752248967
652,723.7039497625228
653,723.6781425929204
654,723.6523065934522
655,723.6264954534553
656,723.6007634338496
657,723.5751650948438
658,723.5497549903777
659,723.5245873289015
660,723.4997156017571
661,723.4751921825996
662,723.4510679034064
663,723.4273916141441
664,723.4042097338747
665,723.3815658010003
666,723.3595000296679
667,723.3380488783954
668,723.3172446360463
669,723.2971150295793
670,723.2776828574541
671,723.2589656519516
672,723.240975372912
673,723.2237181347103
674,723.2071939679956
675,723.1913966180223
676,723.1763133822488
677,723.161924990802
678,723.1482055338805
679,723.1351224400915
680,723.1226365092095
681,723.110702001832
682,723.0992667870123
683,723.0882725477898
684,723.0776550440951
685,723.0673444324459
686,723.0572656414885
687,723.0473388015594
688,723.0374797254035
689,723.0276004364974
690,723.0176097412813
691,723.0074138420722
692,722.9969169884041
693,722.9860221653479
694,722.9746318171414
695,722.9626486029728
696,722.9499761796257
697,722.9365200037103
698,722.9221881450936
699,722.9068921031652
700,722.8905476182498
701,722.8730754708804
702,722.8544022614415
703,722.8344611623527
704,722.813192634963
705,722.7905451035674
706,722.7664755790342
707,722.7409502244274
708,722.7139448552387
709,722.6854453677714
710,722.6554480906855
711,722.623960056307
712,722.5909991896834
713,722.5565944143478
714,722.520785674416
715,722.48362387324
716,722.445170729645
717,722.4054985537101
718,722.364689944849
719,722.3228374153913
720,722.2800429430437
721,722.2364174555446
722,722.1920802505854
723,722.1471583539642
724,722.1017858192529
725,722.056102972818
726,722.0102556084868
727,721.9643941364649
728,721.9186726913944
729,721.8732482045242
730,721.8282794448771
731,721.7839260344635
732,721.7403474434144
733,721.6977019722409
734,721.6561457297844
735,721.6158316164489
736,721.5769083230465
737,721.539519356185
738,721.5038021015662
739,721.4698869366413
740,721.4378964037248
741,721.4079444539993
742,721.3801357718016
743,721.3545651869034
744,721.3313171801825
745,721.3104654856246
746,721.29207278958
747,721.2761905267643
748,721.2628587713865
749,721.2521062206698
750,721.2439502669048
751,721.2383971534016
752,721.2354422094443
753,721.2350701592937
754,721.2372555001864
755,721.241962944235
756,721.2491479191117
757,721.2587571220332
758,721.2707291207693
759,721.2849949944919
760,721.3014790066546
761,721.3200993017533
762,721.3407686175717
763,721.3633950043654
764,721.387882542703
765,721.4141320527132
766,721.4420417893363
767,721.4715081205792
768,721.5024261880509
769,721.5346905503907
770,721.5681958101408
771,721.6028372233643
772,721.6385112894702
773,721.6751163168556
774,721.712552958696
775,721.7507247128677
776,721.789538380546
777,721.8289044792562
778,721.8687376077455
779,721.9089567615641
780,721.9494855994742
781,721.9902526620916
782,722.0311915457931
783,722.0722410364314
784,722.113345208004
785,722.154453490862
786,722.1955207128065
787,722.2365071153403
788,722.2773783468031
789,722.3181054338396
790,722.3586647322206
791,722.39903785752
792,722.4392115958877
793,722.4791777953945
794,722.5189332390953
795,722.5584795016262
796,722.59782279141
797,722.6369737804217
798,722.6759474233035
799,722.7147627674805
800,722.7534427555983
801,722.7920140210131
802,722.8305066765956
803,722.8689540968891
804,722.9073926933005
805,722.9458616813025
806,722.9844028381234
807,723.0230602497857
808,723.0618800474539
809,723.1009101342319
810,723.1401999045254
811,723.1797999588446
812,723.2197618172166
813,723.2601376339153
814,723.3009799150514
815,723.3423412391534
816,723.3842739798145
817,723.4268300292193
818,723.4700605218492
819,723.5140155583925
820,723.5587439304061
821,723.6042928464988
822,723.6507076608651
823,723.6980316048664
824,723.7463055219753
825,723.7955676058273
826,723.8458531405538
827,723.8971942423398
828,723.9496196014577
829,724.0031542248485
830,724.0578191803046
831,724.1136313439843
832,724.1706031529719
833,724.2287423640677
834,724.28805181952
835,724.3485292204874
836,724.41016690958
837,724.4729516644304
838,724.5368645043394
839,724.6018805112805
840,724.6679686651938
841,724.735091692281
842,724.8032059244722
843,724.8722611685769
844,724.9422005847439
845,725.0129605751572
846,725.0844706846395
847,725.1566535150356
848,725.229424655623
849,725.3026926327052
850,725.3763588825256
851,725.4503177521051
852,725.5244565325074
853,725.5986555289305
854,725.6727881725029
855,725.7467211796973
856,725.8203147662945
857,725.8934229232103
858,725.9658937608637
859,726.0375699269009
860,726.1082890992401
861,726.1778845534624
862,726.2461858013135
863,726.3130192955509
864,726.3782091953966
865,726.4415781864119
866,726.5029483486044
867,726.5621420665457
868,726.6189829746922
869,726.6732969297341
870,726.7249130000249
871,726.7736644608106
872,726.8193897837613
873,726.8619336101016
874,726.9011476977423
875,726.9368918337963
876,726.9690347047343
877,726.9974547174115
878,727.0220407651507
879,727.0426929336073
880,727.0593231410243
881,727.0718557071508
882,727.0802278453366
883,727.084390073309
884,727.084306539345
885,727.0799552613998
886,727.0713282772379
887,727.0584317039098
888,727.0412857050736
889,727.0199243646314
890,726.9943954650175
891,726.9647601684974
892,726.9310926005229
893,726.8934793358858
894,726.8520187907035
895,726.8068205253603
896,726.7580044650963
897,726.7057000462869
898,726.6500452976649
899,726.5911858664618
900,726.529273999551
901,726.4644674895267
902,726.3969285956791
903,726.326822950137
904,726.2543184598956
905,726.179584215854
906,726.1027894199958
907,726.0241023410823
908,725.9436893077051
909,725.8617137460038
910,725.778335268571
911,725.6937088211916
912,725.6079838945736
913,725.521303808433
914,725.4338050748289
915,725.3456168466275
916,725.2568604558015
917,725.1676490453202
