acceleration,velocity,displacement
0.0264165184172575,0.0,0.0
0.024228560185671773,1.2661269650732318e-05,3.1653174126830797e-09
0.022045852303767616,2.422987277309217e-05,1.2388103018639203e-08
0.01987360735109369,3.4709737686807496e-05,2.7123005633614118e-08
0.017716962948775606,4.410738026177482e-05,4.6827285120759695e-08
0.015580945701174718,5.2431857424262396e-05,7.0962094542269e-08
0.0134704367641863,5.969470304060265e-05,9.899373465848527e-08
0.011390139482104284,6.590984710217529e-05,1.3039487219417975e-07
0.009344549478249057,7.109351934226363e-05,1.6464571380528946e-07
0.00733792752296633,7.526413859256748e-05,2.0123512828899724e-07
0.005374275434551195,7.844218933194685e-05,2.396617102701258e-07
0.003457315195972886,8.065008698957788e-05,2.79434779350507e-07
0.0015904713977376362,8.19120336380055e-05,3.2007530950740283e-07
-0.00022314295237715672,8.225386574934563e-05,3.611167843542406e-07
-0.001980737277121261,8.170289569197102e-05,4.0210597471456975e-07
-0.003679851013536094,8.028774861930668e-05,4.4260363579238917e-07
-0.005318358046053945,7.803819635440917e-05,4.821851220358181e-07
-0.0068944681199192845,7.498498981291586e-05,5.204409185776494e-07
-0.008406725378407082,7.115969143833427e-05,5.569770888904619e-07
-0.009854004183769065,6.659450904779023e-05,5.914156390119931e-07
-0.011235502398978985,6.132213240210322e-05,6.233947993744664e-07
-0.012550732317425012,5.5375573723002216e-05,6.525692259057428e-07
-0.013799509431777154,4.8788013285701675e-05,6.786101226579188e-07
-0.014981939240144373,4.1592651117721295e-05,7.012052887587745e-07
-0.016098402301570638,3.3822565732292544e-05,7.20059092971278e-07
-0.01714953776830806,2.551058071482287e-05,7.348923795830569e-07
-0.018136225629842347,1.668913986528527e-05,7.454423097280839e-07
-0.01905956789908126,7.390191483054368e-06,7.514621425651689e-07
-0.019920868961055067,-2.354917731979715e-06,7.527209610029375e-07
-0.02072161530052648,-1.2515538797375102e-05,7.490033468705988e-07
-0.021463454829804145,-2.306180632995776e-05,7.401090105887656e-07
-0.02214817604345971,-3.3964714048273724e-05,7.258523804942077e-07
-0.022777687224726142,-4.519617986532019e-05,7.060621570158092e-07
-0.023353995918969563,-5.672910065124411e-05,6.805808368866681e-07
-0.02387918887375909,-6.853739684942627e-05,6.492642125115005e-07
-0.024355412620601518,-8.059604722301643e-05,6.119808514933898e-07
-0.024784854841352417,-9.288111408850491e-05,5.686115611655094e-07
-0.025169726630788387,-0.00010536975945654011,5.190488427792481e-07
-0.02551224574314564,-0.00011804025255002362,4.631963397776072e-07
-0.025814620896012237,-0.0001308719692098131,4.0096828433764797e-07
-0.026079037199362283,-0.00014384538373365672,3.3228894610178055e-07
-0.026307642778071676,-0.0001569420537280152,2.5709208673636256e-07
-0.02650253665430926,-0.00017014459858611045,1.7532042365783115e-07
-0.02666575794376537,-0.0001834366722356291,8.692510595239627e-08
-0.026799276398577317,-0.00019680293082121477,-8.1347948118147e-09
-0.026904984306996546,-0.00021022899599760825,-1.0989277651652046e-07
-0.026984689739314182,-0.00022370141450918593,-2.1837537914321902e-07
-0.027040111113341942,-0.00023720761472234998,-3.33602636451103e-07
-0.027072873041749535,-0.00025073586076112284,-4.5558850532197125e-07
-0.027084503416059582,-0.0002642752048755751,-5.843412717311458e-07
-0.027076431677093536,-0.0002778154386488634,-7.198639326122554e-07
-0.027049988219687064,-0.0002913470436230585,-8.621545531802359e-07
-0.027006404878512816,-0.0003048611418976085,-1.0112065995604026e-06
-0.026946816438848154,-0.0003183494472269487,-1.167009246841542e-06
-0.026872263110764287,-0.00033180421711435183,-1.3295476629268671e-06
-0.026783693898567044,-0.00034521820636668465,-1.4988032687971261e-06
-0.026681970788809753,-0.0003585846225385289,-1.6747539760234295e-06
-0.026567873670767114,-0.0003718970836534231,-1.8573744025714176e-06
-0.026442105899345893,-0.0003851495785459514,-2.0466360681212612e-06
-0.026305300418634103,-0.0003983364301254464,-2.242507570289111e-06
-0.02615802638058572,-0.00041145226182525134,-2.444954743276785e-06
-0.026000796203662205,-0.00042449196747131333,-2.653940800600926e-06
-0.025834073010175825,-0.00043745068477477284,-2.8694264636624475e-06
-0.025658278361918422,-0.0004503237726177964,-3.09137007801059e-06
-0.025473800191035928,-0.00046310679225603494,-3.319727719229048e-06
-0.025281000801989428,-0.0004757954925042913,-3.5544532904191295e-06
-0.02508022480156493,-0.0004883857989051799,-3.795498613271497e-06
-0.024871806801335307,-0.000500873806805905,-4.042813514699268e-06
-0.02465607873725119,-0.0005132557781905516,-4.296345910948383e-06
-0.02443337666613327,-0.0005255281420413977,-4.55604189100637e-06
-0.02420404692304309,-0.0005376874979386918,-4.821845801001392e-06
-0.023968451549345963,-0.0005497306225567891,-5.093700331125262e-06
-0.023726972925995682,-0.0005616544786756245,-5.371546606433366e-06
-0.023480017571239756,-0.0005734562262999334,-5.655324282677255e-06
-0.0232280190854368,-0.0005851332354641026,-5.944971648118264e-06
-0.02297144024428629,-0.0005966831002965333,-6.2404257320584226e-06
-0.02271077425365925,-0.0006081036539210197,-6.541622420612811e-06
-0.02244654518713846,-0.0006193929837812191,-6.848496580038371e-06
-0.022179307635242614,-0.0006305494469868144,-7.160982187730379e-06
-0.021909645604390127,-0.0006415716852967226,-7.479012470801263e-06
-0.021638170713426493,-0.0006524586393761768,-7.802520051969488e-06
-0.02136551974701218,-0.0006632095619912864,-8.131437102311354e-06
-0.021092351639545686,-0.0006738240298379259,-8.465695500268657e-06
-0.020819343978447556,-0.0006843019537424242,-8.805226996163744e-06
-0.020547189124823544,-0.0006946435870182421,-9.14996338135391e-06
-0.020276590045661548,-0.0007048495318108634,-9.499836661061187e-06
-0.020008255934865757,-0.0007149207433059952,-9.854779229840402e-06
-0.01974289768085298,-0.0007248585317099249,-1.0214724048594381e-05
-0.01948122322912657,-0.0007346645619374198,-1.0579604822006217e-05
-0.019223932891685152,-0.0007443408509676227,-1.0949356175232479e-05
-0.018971714661449868,-0.0007538897628559065,-1.132391382868836e-05
-0.01872523958984591,-0.0007633140014187304,-1.170321476975702e-05
-0.018485157281172917,-0.0007726166006364852,-1.2087197420270825e-05
-0.018252091554040294,-0.0007818009128452884,-1.2475801798641268e-05
-0.018026636317282223,-0.0007908705948131191,-1.286896967555587e-05
-0.017809351701687744,-0.0007998295918178616,-1.3266644722213616e-05
-0.01760076048140147,-0.0008086821198636339,-1.366877265013399e-05
-0.01740134481548575,-0.0008174326461878557,-1.4075301341646862e-05
-0.017211543342559445,-0.000826085868227367,-1.4486180970250666e-05
-0.01703174866528575,-0.0008346466912293283,-1.490136411011484e-05
-0.016862305259917304,-0.000843120204710629,-1.532080583409983e-05
-0.016703507836627222,-0.0008515116579847652,-1.574446379977368e-05
-0.016555600164111124,-0.0008598264349849498,-1.6172298323016108e-05
-0.01641877436425853,-0.0008680700286170422,-1.6604272438916606e-05
-0.016293170680966973,-0.0008762480148783486,-1.7040351949790454e-05
-0.01617887772673697,-0.0008843660269802746,-1.7480505460255108e-05
-0.016075933206511954,-0.0008924297297135868,-1.7924704399428573e-05
-0.01598432510771015,-0.0009004447942921423,-1.8372923030430005e-05
-0.015903993327975787,-0.0009084168739010638,-1.8825138447478308e-05
-0.01583483168962308,-0.0009163515801554635,-1.928133056099244e-05
-0.015776690268176293,-0.0009242544606449134,-1.9741482071192534e-05
-0.015729377949960027,-0.0009321309776994474,-2.0205578430778624e-05
-0.015692665134413704,-0.0009399864884705409,-2.0673607797321123e-05
-0.015666286506541414,-0.0009478262263807797,-2.1145560976033955e-05
-0.015649943815530653,-0.0009556552839612978,-2.1621431353619475e-05
-0.015643308603200023,-0.0009634785970659805,-2.2101214823876296e-05
-0.0156460248338111,-0.0009713009304252332,-2.2584909705749098e-05
-0.015657711389403174,-0.0009791268644810368,-2.3072516654475663e-05
-0.015677964411563567,-0.0009869607834312785,-2.356403856645374e-05
-0.015706359487155194,-0.000994806864405958,-2.405948047841305e-05
-0.015742453687553486,-0.0010026690676996353,-2.4558849461439447e-05
-0.015785787475209728,-0.001010551127990326,-2.5062154510361938e-05
-0.015835886488541367,-0.0010184565464812637,-2.5569406428979835e-05
-0.015892263210384,-0.001026388583905995,-2.608061771157665e-05
-0.01595441851819831,-0.0010343502543381407,-2.6595802421137682e-05
-0.016021843104205374,-0.0010423443197437416,-2.7114976064658153e-05
-0.016094018744164114,-0.001050373285205834,-2.7638155465895547e-05
-0.01617041939228341,-0.001058439394739946,-2.816535863588199e-05
-0.016250512087800102,-0.0010665446276099668,-2.869660464146947e-05
-0.016333757668213697,-0.0010746906950489703,-2.9231913472134202e-05
-0.016419611288678998,-0.0010828790372881935,-2.9771305905218494e-05
-0.016507522748674595,-0.0010911108207975319,-3.0314803369739925e-05
-0.016596936631645225,-0.001099386935642612,-3.086242780884996e-05
-0.016687292272491164,-0.0011077079928686461,-3.1414201540977776e-05
-0.01677802357759574,-0.001116074321831168,-3.197014711965273e-05
-0.0168685587280408,-0.0011244859674075772,-3.253028719196242e-05
-0.016958319797970994,-0.0011329426870390802,-3.3094644355574084e-05
-0.01704672231825802,-0.0011414439475681375,-3.366324101422589e-05
-0.01713317481335685,-0.0011499889218510413,-3.4236099231580684e-05
-0.01721707833930151,-0.0011585764851392059,-3.481324058332824e-05
-0.017297826053405428,-0.0011672052112373826,-3.539468600742239e-05
-0.017374802847722883,-0.0011758733684626647,-3.59804556523474e-05
-0.017447385075940996,-0.0011845789154435807,-3.657056872332396e-05
-0.01751494040030632,-0.0011933194968126424,-3.716504332638802e-05
-0.01757682778511782,-0.0012020924388589985,-3.776389631030593e-05
-0.017632397663354792,-0.0012108947452211167,-3.836714310632596e-05
-0.017680992296740746,-0.0012197230927111407,-3.897479756580902e-05
-0.01772194633490261,-0.0012285738273690515,-3.9586871795829066e-05
-0.01775458756135998,-0.0012374429608431171,-4.020337599288211e-05
-0.017778237800682186,-0.0012463261671836277,-4.082431827488879e-05
-0.017792213957455748,-0.0012552187801231623,-4.144970451171549e-05
-0.01779582916375016,-0.0012641157909034637,-4.2079538154472145e-05
-0.017788394023456063,-0.0012730118467002653,-4.271382006387308e-05
-0.01776921795346648,-0.001281901249694496,-4.335254833797177e-05
-0.017737610629105303,-0.001290777956840139,-4.399571813960543e-05
-0.017692883544771196,-0.001299635580383608,-4.464332152391136e-05
-0.01763435170304876,-0.0013084673891955632,-4.529534726630616e-05
-0.01756133544717729,-0.0013172663109831196,-4.595178069135083e-05
-0.01747316245155112,-0.0013260249354578016,-4.661260350296106e-05
-0.01736916988391434,-0.001334735518541668,-4.727779361646093e-05
-0.017248706753917653,-0.001343389987701126,-4.7947324993021623e-05
-0.017111136465209963,-0.0013519799485059078,-4.862116747707338e-05
-0.016955839587889793,-0.0013604966925191827,-4.929928663732965e-05
-0.016782216861262363,-0.0013689312066314707,-4.998164361211732e-05
-0.016589692425069462,-0.0013772741839530537,-5.066819495976345e-05
-0.016377717266131662,-0.001385516036375854,-5.135889251484568e-05
-0.01614577285881869,-0.0013936469089070916,-5.205368325116642e-05
-0.01589337496854833,-0.0014016566958639334,-5.2752509152359175e-05
-0.015620077576453437,-0.0014095350590001838,-5.345530709107521e-05
-0.015325476876676552,-0.0014172714476134664,-5.416200871772862e-05
-0.015009215302229853,-0.001424855120658193,-5.487254035979653e-05
-0.014670985548827606,-0.0014322751708709574,-5.558682293267882e-05
-0.01431053457897044,-0.001439520550902907,-5.630477186312229e-05
-0.013927667593091341,-0.0014465801014459225,-5.7026297026209495e-05
-0.013522251949437299,-0.0014534425813315546,-5.775130269690386e-05
-0.013094221002175761,-0.0014600966995694578,-5.847968751712911e-05
-0.012643577813379341,-0.0014665311492733466,-5.9211344479339815e-05
-0.012170398684525371,-0.0014727346433978227,-5.9946160927507606e-05
-0.011674836449283407,-0.001478695952181275,-6.068401857640238e-05
-0.011157123470301079,-0.0014844039421611712,-6.1424793549988e-05
-0.010617574286684155,-0.0014898476166004175,-6.21683564396784e-05
-0.010056587866005292,-0.00149501615713859,-6.291457238311314e-05
-0.009474649426170628,-0.001499898966461634,-6.36633011640132e-05
-0.008872331808214444,-0.0015044857117702303,-6.441439733357117e-05
-0.008250296398185903,-0.0015087663688218304,-6.516771035371919e-05
-0.007609293609770772,-0.0015127312663238196,-6.59230847625056e-05
-0.006950162944630725,-0.00151637113046242,-6.668036036170215e-05
-0.006273832643434177,-0.0015196771293594362,-6.743937242665762e-05
-0.005581318928330657,-0.0015226409172523774,-6.819995193831057e-05
-0.004873724820031306,-0.0015252546781894679,-6.896192583717103e-05
-0.0041522384955951334,-0.0015275111690183744,-6.972511729897299e-05
-0.003418131144609762,-0.0015294037614284257,-7.048934603158469e-05
-0.0026727542854917243,-0.0015309264827859511,-7.125442859263829e-05
-0.0019175365145779175,-0.0015320740554859685,-7.202017872720627e-05
-0.0011539796702983284,-0.0015328419345321876,-7.278640772471081e-05
-0.00038365440177383744,-0.0015332263430502056,-7.355292479410641e-05
0.0003918048610700871,-0.0015332243054353815,-7.43195374562278e-05
0.0011707055333552866,-0.0015328336778367751,-7.508605195204585e-05
0.0019513030958207302,-0.0015320531756794812,-7.585227366542491e-05
0.0027318079106584247,-0.0015308823979278614,-7.661800755882674e-05
0.0035103926238878695,-0.0015293218477942247,-7.738305862025726e-05
0.004285200123061737,-0.0015273729496074874,-7.814723231960769e-05
0.005054351992851047,-0.0015250380615785093,-7.891033507240419e-05
0.005815957390862132,-0.0015223204842325809,-7.967217470885697e-05
0.006568122253862057,-0.0015192244643214,-8.043256094599546e-05
0.007308958737021259,-0.0015157551940736791,-8.119130586059422e-05
0.008036594783859416,-0.001511918805693459,-8.1948224360536e-05
0.008749183723013244,-0.0015077223610667407,-8.270313465222605e-05
0.00944491379053291,-0.0015031738366883542,-8.345585870166482e-05
0.010122017481768887,-0.0014982821038702788,-8.420622268680448e-05
0.01077878064241751,-0.0014930569043392322,-8.495405743885685e-05
0.01141355121327183,-0.0014875088213753098,-8.56991988702855e-05
0.012024747550092786,-0.0014816492466844687,-8.644148838730044e-05
0.012610866250319812,-0.0014754903432343655,-8.718077328478015e-05
0.0131704894296432,-0.0014690450043143748,-8.791690712166734e-05
0.013702291400873697,-0.0014623268091067455,-8.864975007502261e-05
0.014205044715875513,-0.001455349975077558,-8.937916927106869e-05
0.014677625542561091,-0.001448129307512949,-9.010503909171632e-05
0.015119018364949556,-0.0014406801465360712,-9.082724145522858e-05
0.015528320011227061,-0.001433018311942027,-9.15456660698481e-05
0.015904743026839467,-0.0014251600461825103,-9.226021065937924e-05
0.0162476184147559,-0.0014171219558221115,-9.297078115988039e-05
0.016556397764732823,-0.0014089209517772394,-9.367729188678023e-05
0.016830654788760446,-0.0014005741886388662,-9.437966567188426e-05
0.017070086269890296,-0.0013920990033742034,-9.507783396988753e-05
0.01727451241730686,-0.001383512853702404,-9.577173693415668e-05
0.017443876608979166,-0.0013748332564458325,-9.646132346169375e-05
0.01757824450298721,-0.001366077726167841,-9.714655120734716e-05
0.017677802510186982,-0.0013572637144145473,-9.782738656749276e-05
0.017742855638007114,-0.0013484085498774987,-9.850380463356578e-05
0.01777382473333861,-0.0013395293797846624,-9.917578911598132e-05
0.017771243172818824,-0.001330643112808123,-9.984333223912952e-05
0.017735753072362113,-0.0013217663637468276,-0.00010050643460826825
0.01766810110877933,-0.0013129154002015423,-0.00010116510504925534
0.017569134054733225,-0.0013041060914106642,-0.0001018193604221584
0.017439794118543777,-0.0012953538593673448,-0.0001024692254098529
0.017281114156198017,-0.0012866736322986593,-0.0001031147322827694
0.01709421279284933,-0.0012780798005613974,-0.00010375592064098441
0.0168802894628766,-0.001269586174997466,-0.00010439283713487413
0.016640619357400806,-0.0012612059477923967,-0.0001050255351655716
0.016376548260880475,-0.0012529516558878265,-0.00010565407456649165
0.016089487265384048,-0.0012448351470062604,-0.00010627852126721517
0.015780907368011615,-0.0012368675483479113,-0.00010689894694105372
0.015452333974810469,-0.0012290592380122059,-0.00010751542863764375
0.015105341344593832,-0.0012214198191823548,-0.00010812804840194239
0.014741547005404905,-0.0012139580970948552,-0.00010873689288101169
0.014362606168585928,-0.0012066820588013574,-0.00010934205291998575
0.013970206155676087,-0.0011995988557202918,-0.00010994362314861616
0.013566060843136633,-0.0011927147889705886,-0.00011054170155978888
0.013151905118024047,-0.0011860352974802984,-0.0001111363890814016
0.012729489323323571,-0.0011795649488699615,-0.00011172778914298918
0.012300573655586955,-0.0011733074331252338,-0.00011231600723848798
0.011866922463069656,-0.0011672655590955695,-0.00011290115048654318
0.011430298384871303,-0.0011614412538835843,-0.00011348332718978797
0.010992456274609798,-0.001155835565218714,-0.00011406264639456355
0.010555136866648126,-0.0011504486669333997,-0.00011463921745260158
0.010120060165968893,-0.0011452798676752454,-0.00011521314958625374
0.009688918569125436,-0.0011403276229914718,-0.00011578455145892041
0.009263369748218075,-0.001135589550912136,-0.00011635353075239631
0.008845029351417335,-0.0011310624511372271,-0.00011692019375290865
0.008435463593833827,-0.0011267423279009143,-0.00011748464494766819
0.008036181833050054,-0.0011226244165441935,-0.00011804698663377947
0.007648629242937534,-0.0011187032137751965,-0.00011860731854135932
0.007274179713301544,-0.0011149725115361367,-0.00011916573747268715
0.006914129108169158,-0.001111425434330769,-0.00011972233695915387
0.006569689014689999,-0.001108054479800054,-0.00012027720693768658
0.0062419811124217964,-0.0011048515622682762,-0.00012083043344820366
0.005932032288271681,-0.001101808058918103,-0.00012138209835350025
0.005640770608723049,-0.0010989148581938542,-0.00012193227908277825
0.005369022234406105,-0.001096162409983072,-0.00012248104839982247
0.00511750932567603,-0.0010935407770930514,-0.00012302847419659151
0.004886848947640663,-0.0010910396875247223,-0.00012357461931274596
0.004677552944852541,-0.001088648587051599,-0.00012411954138139003
0.004490028723752501,-0.0010863566916344478,-0.00012466329270106153
0.004324580857454705,-0.001084153039239146,-0.00012520592013377994
0.004181413415588393,-0.0010820265406708853,-0.00012574746502875745
0.004060632922441318,-0.0010799660290863777,-0.00012628796317119676
0.003962251852621074,-0.0010779603078926122,-0.0001268274447554415
0.0038861925762670286,-0.0010759981967853902,-0.000127365934381611
0.0038322916660741414,-0.001074068575724805,-0.00012790345107473855
0.003800304483485625,-0.001072160426687415,-0.00012844000832534162
0.003789909974478031,-0.001070262873072924,-0.00012897561415028171
0.003800715621541984,-0.001068365216673919,-0.00012951027117271842
0.0038322625113399946,-0.0010664569721406986,-0.00013004397671992208
0.003884030486318292,-0.0010645278988912841,-0.00013057672293768008
0.003955443355345424,-0.0010625680304308682,-0.00013110849692001063
0.00404587414248679,-0.00106056770105641,-0.00013163928085288245
0.004154650351109512,-0.001058517569933011,-0.0001321690521706298
0.004281059212721821,-0.0010564086425420532,-0.00013269778372374858
0.004424352881130921,-0.00105423228951859,-0.00013322544395676374
0.0045837535277087,-0.0010519802629163802,-0.00013375199709487248
0.004758458294180054,-0.001049644709960908,-0.0001342774033380918
0.004947644063662935,-0.0010472181843714473,-0.00013480161906167487
0.005150472015371115,-0.0010446936553516887,-0.00013532459702160566
0.005366091930720768,-0.0010420645143651658,-0.00013584628656403488
0.005593646220442712,-0.001039324579827375,-0.00013636663383758302
