frame_number,force
0,741.8789700081015
1,741.9639961207375
2,742.0486915203555
3,742.1327274550034
4,742.215779072987
5,742.2975273185739
6,742.3776607634694
7,742.455877355335
8,742.5318860677592
9,742.6054084397517
10,742.6761799962345
11,742.7439515436685
12,742.8084903367768
13,742.8695811133396
14,742.9270269945141
15,742.9806502483078
16,743.0302929137653
17,743.075817283358
18,743.117106241453
19,743.1540634579177
20,743.1866134378481
21,743.2147014308645
22,743.2382932060136
23,743.2573747002515
24,743.2719515489558
25,743.2820485061914
26,743.2877087618496
27,743.2889931634185
28,743.2859793517875
29,743.2787608221624
30,743.2674459220618
31,743.2521567984467
32,743.2330283057739
33,743.2102068865863
34,743.1838494358572
35,743.1541221589938
36,743.1211994309662
37,743.0852626612891
38,743.0464991676988
39,743.0051010607252
40,742.9612641416222
41,742.9151868169317
42,742.8670690344246
43,742.817111247118
44,742.7655134135794
45,742.712474042918
46,742.6581892919163
47,742.6028521204221
48,742.5466515096215
49,742.4897717460716
50,742.4323917726671
51,742.3746846065915
52,742.3168168238271
53,742.258948109655
54,742.2012308744095
55,742.1438099334152
56,742.0868222496377
57,742.0303967372183
58,741.9746541236002
59,741.9197068672491
60,741.8656591270434
61,741.8126067783668
62,741.7606374701955
63,741.7098307177187
64,741.6602580263943
65,741.6119830450717
66,741.5650617470468
67,741.5195426385282
68,741.475466994112
69,741.4328691185034
70,741.3917766331231
71,741.3522107859361
72,741.3141867829374
73,741.2777141399183
74,741.2427970531659
75,741.2094347874282
76,741.1776220785677
77,741.1473495470616
78,741.1186041175584
79,741.0913694394691
80,741.0656263037589
81,741.0413530510506
82,741.0185259656846
83,740.9971196498412
84,740.9771073715083
85,740.9584613800503
86,740.9411531835513
87,740.9251537832647
88,740.9104338623918
89,740.8969639285308
90,740.8847144110683
91,740.8736557163376
92,740.8637582445178
93,740.8549923729156
94,740.8473284104938
95,740.840736528586
96,740.8351866732232
97,740.8306484656199
98,740.8270910984222
99,740.8244832354089
100,740.8227929214995
101,740.821987508815
102,740.8220336033642
103,740.8228970354719
104,740.824542855247
105,740.8269353524465
106,740.8300380985767
107,740.8338140084941
108,740.8382254191922
109,740.8432341844643
110,740.8488017852554
111,740.8548894564443
112,740.8614583311306
113,740.8684696027079
114,740.8758847029779
115,740.883665492006
116,740.8917744533637
117,740.9001748876659
118,740.9088310982206
119,740.9177085647043
120,740.9267741030238
121,740.9359960112423
122,740.9453442026798
123,740.9547903281908
124,740.9643078900415
125,740.9738723497487
126,740.983461231724
127,740.9930542234389
128,741.0026332710197
129,741.0121826670407
130,741.0216891253922
131,741.0311418369511
132,741.0405324996497
133,741.0498553173925
134,741.0591069636966
135,741.0682865071973
136,741.077395296748
137,741.0864368042636
138,741.095416424877
139,741.1043412368774
140,741.1132197271597
141,741.1220614900707
142,741.1308769082302
143,741.139676823833
144,741.1484722086784
145,741.1572738406206
146,741.1660919930067
147,741.1749361421307
148,741.1838146962103
149,741.1927347479493
150,741.2017018513397
151,741.2107198222004
152,741.2197905612833
153,741.2289138985115
154,741.2380874568455
155,741.2473065344537
156,741.2565640043003
157,741.265850230784
158,741.2751530035827
159,741.2844574894101
160,741.2937462028507
161,741.3029989973876
162,741.3121930770766
163,741.3213030285509
164,741.3303008728836
165,741.339156137492
166,741.3478359493677
167,741.356305151806
168,741.3645264469709
169,741.372460566131
170,741.3800664687209
171,741.3873015708671
172,741.3941220036127
173,741.4004829004962
174,741.4063387133061
175,741.4116435539438
176,741.4163515595656
177,741.4204172774797
178,741.423796065563
179,741.4264445034355
180,741.4283208097665
181,741.4293852619776
182,741.4296006155463
183,741.4289325201007
184,741.4273499283503
185,741.4248254924527
186,741.4213359415927
187,741.4168624346177
188,741.4113908821984
189,741.4049122337434
190,741.3974227250733
191,741.3889240838241
192,741.3794236907125
193,741.3689346959256
194,741.3574760907712
195,741.3450727352974
196,741.3317553428051
197,741.3175604220038
198,741.3025301772753
199,741.2867123674764
200,741.2701601239545
201,741.2529317286065
202,741.2350903525696
203,741.2167037556966
204,741.197843946781
205,741.178586804801
206,741.1590116621865
207,741.1392008520869
208,741.1192392227015
209,741.0992136229405
210,741.0792123652502
211,741.0593246734231
212,741.0396401251865
213,741.0202481006176
214,741.001237247478
215,740.9826949734409
216,740.9647069733348
217,740.9473567973439
218,740.930725463766
219,740.9148911176903
220,740.899928735102
221,740.8859098705545
222,740.8729024457114
223,740.8609705758292
224,740.8501744313993
225,740.8405701319437
226,740.832209667924
227,740.825140845183
228,740.8194072451439
229,740.8150481935738
230,740.8120987310015
231,740.8105895787363
232,740.8105470958805
233,740.8119932246034
234,740.8149454229214
235,740.8194165859238
236,740.8254149576125
237,740.8329440363211
238,740.8420024772897
239,740.8525839965222
240,740.864677280361
241,740.8782659048188
242,740.8933282674101
243,740.9098375323608
244,740.9277615884839
245,740.9470630184845
246,740.9676990791158
247,740.9896216926977
248,741.0127774511456
249,741.03710763374
250,741.062548239953
251,741.0890300393189
252,741.1164786417663
253,741.144814593794
254,741.1739535077775
255,741.2038062328105
256,741.2342790753424
257,741.2652740765049
258,741.2966893509504
259,741.3284194898298
260,741.3603560284315
261,741.392387976853
262,741.424402409717
263,741.4562851087757
264,741.4879212507967
265,741.519196132376
266,741.549995922762
267,741.5802084353296
268,741.6097239082452
269,741.6384357850033
270,741.6662414855149
271,741.6930431581553
272,741.7187484027154
273,741.7432709535733
274,741.7665313116378
275,741.788457312953
276,741.8089846217846
277,741.8280571369287
278,741.8456273018587
279,741.8616563118184
280,741.8761142137304
281,741.8889798975014
282,741.9002409798383
283,741.9098935840464
284,741.9179420214331
285,741.9243983816874
286,741.9292820407157
287,741.9326190950517
288,741.934441732836
289,741.934787552834
290,741.9336988442143
291,741.9312218397358
292,741.9274059536511
293,741.9223030142512
294,741.915966500541
295,741.9084507929688
296,741.8998104485366
297,741.8900995104002
298,741.8793708613182
299,741.8676756291078
300,741.8550626502869
301,741.8415779955561
302,741.8272645586883
303,741.8121617094921
304,741.7963050116074
305,741.7797260062263
306,741.7624520629156
307,741.7445062983227
308,741.7259075626536
309,741.7066704928825
310,741.6868056314751
311,741.6663196100594
312,741.6452153980033
313,741.6234926154165
314,741.6011479090565
315,741.5781753887246
316,741.5545671210454
317,741.5303136765347
318,741.5054047245064
319,741.4798296691571
320,741.4535783196227
321,741.4266415868672
322,741.3990122002409
323,741.3706854356647
324,741.3416598454206
325,741.3119379770746
326,741.2815270672862
327,741.2504396961871
328,741.2186943896919
329,741.1863161597186
330,741.1533369749641
331,741.1197961572499
332,741.0857407004062
333,741.0512255099272
334,741.0163135618549
335,740.9810759785672
336,740.9455920181193
337,740.909948973602
338,740.874241980147
339,740.8385737292007
340,740.8030540915696
341,740.7677996520644
342,740.7329331596294
343,740.6985828979583
344,740.6648819825787
345,740.6319675909783
346,740.5999801326315
347,740.5690623661654
348,740.5393584715865
349,740.5110130864005
350,740.4841703154249
351,740.458972725167
352,740.4355603349197
353,740.4140696177225
354,740.3946325241501
355,740.3773755404112
356,740.3624187903621
357,740.3498751896128
358,740.339849658905
359,740.3324384030713
360,740.327728260942
361,740.3257961302603
362,740.3267084700058
363,740.3305208812126
364,740.3372777672039
365,740.3470120749625
366,740.3597451199329
367,740.3754864958607
368,740.3942340693451
369,740.4159740563636
370,740.4406811758755
371,740.4683188740091
372,740.4988396113118
373,740.5321852052964
374,740.5682872213613
375,740.6070674067176
376,740.6484381631979
377,740.6923030551219
378,740.738557347913
379,740.7870885722228
380,740.8377771072363
381,740.8904967762272
382,740.9451154480848
383,741.0014956405049
384,741.0594951231438
385,741.1189675213591
386,741.1797629225371
387,741.2417284872386
388,741.3047090667704
389,741.3685478278552
390,741.4330868842328
391,741.4981679343109
392,741.563632903186
393,741.6293245862807
394,741.6950872903371
395,741.7607674655991
396,741.8262143213001
397,741.891280416057
398,741.9558222159413
399,742.0197006151511
400,742.082781416282
401,742.144935768756
402,742.2060405652359
403,742.2659787970033
404,742.3246398702723
405,742.381919886217
406,742.4377218881853
407,742.4919560800117
408,742.5445400191238
409,742.5953987869111
410,742.6444651369097
411,742.6916796195234
412,742.7369906807841
413,742.7803547319759
414,742.8217361866346
415,742.8611074614975
416,742.8984489384011
417,742.9337488847774
418,742.9670033311933
419,742.9982159052182
420,743.0273976216951
421,743.0545666300374
422,743.0797479193901
423,743.1029729825962
424,743.1242794404484
425,743.143710628913
426,743.1613151534167
427,743.1771464151847
428,743.1912621146503
429,743.2037237363265
430,743.2145960187647
431,743.2239464128007
432,743.2318445313857
433,743.2383615947325
434,743.2435698748899
435,743.2475421440357
436,743.2503511310772
437,743.2520689919504
438,743.252766800091
439,743.2525140639806
440,743.2513782778265
441,743.2494245098169
442,743.2467150313566
443,743.2433089909443
444,743.2392621373123
445,743.2346265968539
446,743.2294507097655
447,743.2237789282725
448,743.2176517792042
449,743.2111058916628
450,743.2041740883408
451,743.1968855364645
452,743.1892659518685
453,743.181337847727
454,743.1731208182244
455,743.1646318469478
456,743.1558856299041
457,743.1468949036914
458,743.1376707702725
459,743.1282230106775
460,743.1185603808236
461,743.1086908838356
462,743.0986220149357
463,743.0883609768096
464,743.0779148650605
465,743.0672908247664
466,743.0564961800023
467,743.0455385384113
468,743.0344258727632
469,743.023166581104
470,743.0117695264868
471,743.0002440567599
472,742.9886000050134
473,742.9768476719358
474,742.9649977916578
475,742.9530614822239
476,742.9410501810736
477,742.9289755655037
478,742.9168494583288
479,742.9046837195694
480,742.8924901257038
481,742.8802802388825
482,742.8680652696977
483,742.8558559383767
484,742.8436623401045
485,742.831493820139
486,742.8193588635105
487,742.8072650030497
488,742.7952187490743
489,742.7832255443523
490,742.7712897482227
491,742.7594146532217
492,742.7476025362884
493,742.7358547451532
494,742.7241718193867
495,742.7125536450204
496,742.7009996416047
497,742.689508980616
498,742.6780808336594
499,742.6667146474549
500,742.6554104403949
501,742.6441691134343
502,742.6329927671809
503,742.6218850173398
504,742.6108513012639
505,742.5998991683887
506,742.5890385465495
507,742.5782819748656
508,742.5676447925176
509,742.5571452721431
510,742.5468046875579
511,742.536647308315
512,742.5267003175227
513,742.5169936533513
514,742.5075597779269
515,742.4984333792025
516,742.4896510115628
517,742.4812506798888
518,742.4732713710761
519,742.4657525378831
520,742.4587335425681
521,742.4522530708824
522,742.4463485291535
523,742.4410554377647
524,742.4364068335836
525,742.4324326922883
526,742.4291593793496
527,742.4266091360241
528,742.4247996048006
529,742.4237433978384
530,742.4234477119188
531,742.4239139935991
532,742.4251376578289
533,742.4271078619798
534,742.4298073354768
535,742.4332122637325
536,742.4372922241698
537,742.4420101715652
538,742.4473224695871
539,742.4531789654604
540,742.4595231054416
541,742.4662920901369
542,742.4734170701017
543,742.4808233829795
544,742.4884308335025
545,742.4961540173274
546,742.5039026895089
547,742.5115821786769
548,742.5190938483554
549,742.5263356068372
550,742.5332024663317
551,742.5395871509335
552,742.5453807517237
553,742.5504734261938
554,742.5547551379711
555,742.5581164313078
556,742.5604492331261
557,742.5616476738625
558,742.561608917112
559,742.5602339873931
560,742.557428585454
561,742.5531038813465
562,742.547177276566
563,742.5395731272415
564,742.5302234201977
565,742.5190683929394
566,742.5060570878677
567,742.4911478307522
568,742.4743086236656
569,742.4555174431223
570,742.4347624350905
571,742.4120420000023
572,742.387364762684
573,742.3607494241364
574,742.3322244946088
575,742.3018279107786
576,742.2696065437244
577,742.2356156080127
578,742.1999179851013
579,742.1625834761566
580,742.1236880001281
581,742.0833127526677
582,742.041543340824
583,741.9984689081756
584,741.9541812652718
585,741.908774040202
586,741.8623418629911
587,741.8149795952467
588,741.766781613536
589,741.7178411520055
590,741.6682497073763
591,741.6180965078547
592,741.5674680464074
593,741.5164476779894
594,741.4651152797151
595,741.4135469726964
596,741.3618149043944
597,741.3099870907737
598,741.2581273180682
599,741.2062951039558
600,741.1545457170246
601,741.1029302516943
602,741.0514957536669
603,741.0002853890338
604,740.9493386486691
605,740.898691578511
606,740.8483770257167
607,740.7984248907569
608,740.748862376556
609,740.6997142274446
610,740.6510029522515
611,740.6027490269618
612,740.5549710734377
613,740.5076860121126
614,740.4609091880361
615,740.4146544706643
616,740.3689343280987
617,740.3237598761524
618,740.2791409020925
619,740.2350858629544
620,740.1916018593689
621,740.1486945874152
622,740.1063682722007
623,740.0646255872566
624,740.0234675636457
625,739.9828934922898
626,739.9429008226122
627,739.9034850603052
628,739.8646396671377
629,739.8263559662646
630,739.7886230572484
631,739.7514277456875
632,739.7147544928678
633,739.6785853909518
634,739.6429001683408
635,739.6076762277055
636,739.572888716457
637,739.5385106274794
638,739.5045129274082
639,739.4708647098533
640,739.437533370653
641,739.4044848015253
642,739.3716835981664
643,739.3390932791611
644,739.3066765122873
645,739.2743953442842
646,739.2422114292744
647,739.2100862505622
648,739.1779813307423
649,739.1458584257284
650,739.1136796993952
651,739.0814078770272
652,739.0490063773204
653,739.0164394238509
654,738.9836721375169
655,738.9506706115935
656,738.9174019708281
657,738.8838344156882
658,738.8499372528928
659,738.815680914116
660,738.7810369661512
661,738.7459781172676
662,738.7104782252237
663,738.6745123120673
664,738.6380565895266
665,738.6010884968712
666,738.563586751118
667,738.5255314080454
668,738.4869039321378
669,738.4476872741519
670,738.4078659556136
671,738.367426159545
672,738.3263558261749
673,738.2846447520449
674,738.2422846913308
675,738.1992694592726
676,738.1555950388483
677,738.1112596929321
678,738.0662640850727
679,738.0206114124655
680,737.9743075540933
681,737.9273612350977
682,737.8797842056047
683,737.8315914293423
684,737.7828012753776
685,737.7334357058054
686,737.6835204530956
687,737.6330851821979
688,737.5821636335977
689,737.5307937441727
690,737.4790177431308
691,737.4268822204397
692,737.3744381646112
693,737.3217409655781
694,737.2688503774156
695,737.2158304356283
696,737.1627493248537
697,737.1096791947674
698,737.0566959242162
699,737.0038788358335
700,736.9513103654558
701,736.8990756922705
702,736.8472623364058
703,736.795959730776
704,736.7452587739499
705,736.6952513709375
706,736.6460299688525
707,736.5976870944062
708,736.5503149004575
709,736.5040047294216
710,736.4588467016312
711,736.4149293360458
712,736.3723392088181
713,736.3311606526283
714,736.2914754972223
715,736.2533628496485
716,736.2168989111483
717,736.1821568262009
718,736.1492065578626
719,736.1181147824801
720,736.0889447964051
721,736.0617564277128
722,736.0366059469534
723,736.0135459722961
724,735.992625365817
725,735.9738891189285
726,735.9573782255976
727,735.9431295420046
728,735.9311756312718
729,735.9215445925678
730,735.9142598751602
731,735.9093400790895
732,735.9067987445786
733,735.9066441324127
734,735.9088789981093
735,735.9135003642988
736,735.9204992981563
737,735.9298607032131
738,735.9415631364305
739,735.9555786614038
740,735.9718727468928
741,735.9904042170674
742,736.0111252566139
743,736.0339814709127
744,736.0589119994689
745,736.0858496798929
746,736.114721259562
747,736.1454476519752
748,736.1779442345812
749,736.2121211848544
750,736.2478838518309
751,736.285133160919
752,736.3237660502342
753,736.363675936899
754,736.4047532116791
755,736.4468857598328
756,736.4899595051003
757,736.5338589729165
758,736.5784678688022
759,736.6236696683931
760,736.6693482159593
761,736.715388328016
762,736.7616763977918
763,736.8081009954678
764,736.8545534586194
765,736.9009284669232
766,736.947124594584
767,736.9930448335308
768,737.0385970811353
769,737.0836945879986
770,737.1282563633117
771,737.1722075366921
772,737.2154796763473
773,737.258011064215
774,737.2997469292775
775,737.3406396402501
776,737.3806488584753
777,737.4197416515988
778,737.4578925686985
779,737.4950836778722
780,737.5313045676506
781,737.5665523137193
782,737.600831411975
783,737.6341536779418
784,737.6665381117774
785,737.69801072837
786,737.7286043532323
787,737.7583583861073
788,737.7873185346755
789,737.8155365204177
790,737.8430697576184
791,737.8699810048137
792,737.8963379862453
793,737.9222129799301
794,737.947682369233
795,737.9728261560441
796,737.997727435164
797,738.0224718308408
798,738.0471468975982
799,738.0718414887505
800,738.0966450972053
801,738.1216471738192
802,738.1469364284065
803,738.1726001179286
804,738.1987233261793
805,738.2253882396869
806,738.2526734250034
807,738.2806531124122
808,738.3093964903626
809,738.338967014499
810,738.3694217358694
811,738.4008106549238
812,738.4331761104177
813,738.4665522141346
814,738.5009643426001
815,738.5364286955394
816,738.5729519283514
817,738.6105308634992
818,738.6491522843071
819,738.6887928139679
820,738.7294188819686
821,738.7709867796659
822,738.8134428067646
823,738.8567235106115
824,738.9007560197483
825,738.9454584719792
826,738.9907405359585
827,739.0365040243588
828,739.0826435955631
829,739.1290475389313
830,739.1755986359274
831,739.2221750862017
832,739.2686514847994
833,739.3148998346504
834,739.3607905778657
835,739.4061936302347
836,739.4509794053273
837,739.4950198169299
838,739.5381892501196
839,739.5803654916708
840,739.6214306103797
841,739.6612717783164
842,739.6997820253041
843,739.736860920592
844,739.7724151771719
845,739.8063591752732
846,739.8386154023917
847,739.8691148079038
848,739.8977970709612
849,739.9246107812041
850,739.9495135331917
851,739.972471937242
852,739.9934615508844
853,740.0124667357148
854,740.0294804442788
855,740.0445039414586
856,740.0575464651123
857,740.068624831101
858,740.0777629878501
859,740.0849915252724
860,740.0903471427971
861,740.0938720815981
862,740.0956135266174
863,740.0956229844682
864,740.0939556440259
865,740.0906697276838
866,740.0858258424036
867,740.0794863400035
868,740.0717146950224
869,740.0625749061871
870,740.052130925095
871,740.0404461144682
872,740.0275827386226
873,740.0136014896726
874,739.9985610533274
875,739.982517717486
876,739.9655250255003
877,739.9476334744461
878,739.9288902573646
879,739.9093390474728
880,739.8890198220683
881,739.8679687242603
882,739.8462179611672
883,739.8237957372181
884,739.8007262207656
885,739.7770295419509
886,739.7527218201177
887,739.7278152198297
888,739.7023180349829
889,739.6762348001063
890,739.6495664271291
891,739.6223103655066
892,739.594460784119
893,739.5660087743847
894,739.5369425747032
895,739.5072478161655
896,739.4769077885715
897,739.4459037247116
898,739.414215100219
899,739.3818199463191
900,739.3486951731181
901,739.3148169010595
902,739.2801607977066
903,739.2447024163592
904,739.2084175323213
905,739.1712824718265
906,739.1332744276931
907,739.0943717549977
908,739.0545542399983
909,739.0138033365408
910,738.9721023658315
911,738.9294366767076
912,738.8857937640366
913,738.8411633434231
914,738.7955373818585
915,738.7489100860836
916,738.7012778525309
