frame_number,force
0,831.4930400000565
1,831.4072389488538
2,831.3187729092334
3,831.2252258913988
4,831.1246799586248
5,831.0159506101393
6,830.8987777899343
7,830.7739323883719
8,830.6432043557792
9,830.5092640930659
10,830.375424618153
11,830.2453587703352
12,830.1228284344502
13,830.0114630703672
14,829.9146013144625
15,829.8351979627698
16,829.7757899416421
17,829.7384903648153
18,829.7249498014048
19,829.7362237518273
20,829.7725313725233
21,829.8329577176107
22,829.9151954340613
23,830.0154161750704
24,830.1283194804618
25,830.2473591286281
26,830.3651141702991
27,830.4737561903988
28,830.5655581618157
29,830.6333861500142
30,830.6711191000448
31,830.6739681211372
32,830.6387098944616
33,830.5638771538713
34,830.4499334065702
35,830.299403715197
36,830.1168779957483
37,829.9087935475696
38,829.6829537133823
39,829.4478208022158
40,829.2116896759154
41,828.9818793920557
42,828.7640755064469
43,828.5619266102926
44,828.3769533081065
45,828.2087706067047
46,828.0555654878956
47,827.9147246540306
48,827.7834812236572
49,827.6594456912428
50,827.540909567808
51,827.4268618841203
52,827.3167314395214
53,827.2099422654483
54,827.1054205600692
55,827.0011995740534
56,826.8942365247
57,826.7804997825328
58,826.6553212172166
59,826.5139483956083
60,826.3521854034185
61,826.1669926814682
62,825.9569366464174
63,825.7224331820667
64,825.4657826595758
65,825.1910178244352
66,824.9035884733489
67,824.6099152955755
68,824.3168610633245
69,824.0311725780668
70,823.7589373991364
71,823.5050916522406
72,823.2730266504087
73,823.0643670474317
74,822.8789965741669
75,822.7153597129255
76,822.5709872654406
77,822.4431314736327
78,822.3293806234007
79,822.2281393081981
80,822.1388839260608
81,822.062134744335
82,821.9991446734427
83,821.9513855244608
84,821.9199729377156
85,821.9051746610243
86,821.9061009455966
87,821.9206154849054
88,821.9454577122824
89,821.9765411473958
90,822.0093808270886
91,822.0395926568086
92,822.063397526878
93,822.0780660047348
94,822.082260607157
95,822.0762555613239
96,822.0620190933014
97,822.0431353398012
98,822.0245447890763
99,822.0121068812563
100,822.012027361096
101,822.0302240971635
102,822.0717119700403
103,822.1400750580693
104,822.2370818492351
105,822.362496375964
106,822.5141337879013
107,822.6881825679784
108,822.8797609077507
109,823.0836117894629
110,823.2948042298813
111,823.5093167311493
112,823.7244224071709
113,823.9388431993912
114,824.1526696540392
115,824.3670538875914
116,824.583696236805
117,824.8041772637583
118,825.0292342902463
119,825.2581259264775
120,825.4882395046055
121,825.7150490435629
122,825.9324318910576
123,826.1332518182187
124,826.3100712970204
125,826.4558751933591
126,826.5647348285648
127,826.6323746116948
128,826.6566101840585
129,826.6376186431685
130,826.5779955048303
131,826.4825634059207
132,826.3579332003303
133,826.2118750504568
134,826.052606870979
135,825.8881146487657
136,825.7255815727384
137,825.570955767239
138,825.4286600438664
139,825.3014394842957
140,825.1903378254093
141,825.0947885943639
142,825.0128095764774
143,824.9412969228306
144,824.87641225173
145,824.8140351277132
146,824.750228004442
147,824.681649913379
148,824.6058624657511
149,824.5214916832422
150,824.4282439649307
151,824.3268224727096
152,824.2188248386113
153,824.106692838581
154,823.9937336185418
155,823.8841755215717
156,823.7831860984631
157,823.6967708827979
158,823.6314889338961
159,823.5939637528135
160,823.5902267193188
161,823.6249873719687
162,823.700963803099
163,823.8184153896618
164,823.974987210092
165,824.1659003044516
166,824.3844377510354
167,824.6226278967421
168,824.8720208453435
169,825.124467863143
170,825.3728269225658
171,825.6115274939145
172,825.8369369239929
173,826.0474888811907
174,826.2435685404163
175,826.427189477446
176,826.6015242896789
177,826.7703541157141
178,826.9374855133033
179,827.1061667326211
180,827.278543979506
181,827.4552285521983
182,827.6350605126452
183,827.8151268545357
184,827.9910387003229
185,828.1574298728615
186,828.3086224030075
187,828.4393946344094
188,828.5457627436048
189,828.6256540475576
190,828.6793412375249
191,828.7095384609804
192,828.7211207873487
193,828.7204942598765
194,828.7147005578636
195,828.7103869427984
196,828.712807481818
197,828.7250315669066
198,828.7475019801742
199,828.7780114033317
200,828.8120842399447
201,828.8436850428719
202,828.8661276351137
203,828.8730310507667
204,828.8591725036708
205,828.8211274155668
206,828.7576447689141
207,828.6697604977651
208,828.560686614815
209,828.435521023224
210,828.3008094861478
211,828.1639795378467
212,828.0326759852732
213,827.9140589417498
214,827.814157186266
215,827.7373769122394
216,827.686239910477
217,827.6613789546893
218,827.661773816412
219,827.6851799254412
220,827.7286749519527
221,827.789221929026
222,827.8641422442435
223,827.9514299314443
224,828.0499042576924
225,828.1592486891433
226,828.2799966667847
227,828.4135058889124
228,828.5619330842283
229,828.7281943637355
230,828.9158759893958
231,829.1290488352046
232,829.3719463142385
233,829.6484996497868
234,829.9617780696537
235,830.3134286332523
236,830.7032275716717
237,831.1288391031381
238,831.5858401040007
239,832.0680177821456
240,832.5678872202033
241,833.0773231909398
242,833.5881812018303
243,834.0928072005137
244,834.5843914953882
245,835.0571832901636
246,835.5066200640034
247,835.9294281047961
248,836.323723606066
249,836.6891036637264
250,837.0266820520845
251,837.3390148146545
252,837.6298818700104
253,837.9039310992887
254,838.1662312263772
255,838.421801197677
256,838.6751779248539
257,838.9300616470979
258,839.1890608489931
259,839.4535552888108
260,839.7236920193778
261,839.9985082988898
262,840.2761427123087
263,840.5540790409013
264,840.8293843646645
265,841.0989358353861
266,841.3596423366936
267,841.6086454375334
268,841.8434565175074
269,842.0619894194756
270,842.2624855132001
271,842.4433713921372
272,842.6031071912629
273,842.740073967551
274,842.8525303272746
275,842.938648117629
276,842.9966104454497
277,843.0247337878938
278,843.0215800159895
279,842.9860523727876
280,842.9174950352398
281,842.8158157343692
282,842.681629325923
283,842.5164019539901
284,842.322576059654
285,842.1036645311567
286,841.8642971284961
287,841.6101835102888
288,841.3479458845798
289,841.084788671359
290,840.8280121849984
291,840.5844276548108
292,840.3597703027787
293,840.1582130426771
294,839.9820477908447
295,839.8315454569523
296,839.7049652686176
297,839.5986777202216
298,839.5073845628838
299,839.4244432731263
300,839.3423106321006
301,839.2530966596747
302,839.149177296921
303,839.0237844062647
304,838.8714969249284
305,838.6885910427679
306,838.4732468577668
307,838.2256317007549
308,837.9478802542016
309,837.6439827875743
310,837.3195890834908
311,836.9817357092411
312,836.6385038851024
313,836.2986151774553
314,835.9709731545771
315,835.6641622740532
316,835.3859232597819
317,835.1426350928194
318,834.938842710225
319,834.7768736447838
320,834.6565843061554
321,834.5752674612081
322,834.5277369347513
323,834.5065822759099
324,834.5025620878833
325,834.5050965111448
326,834.5028329007903
327,834.4842796793491
328,834.438512118925
329,834.3559389147767
330,834.2290787050133
331,834.0532448767334
332,833.8270064041152
333,833.5523155333543
334,833.2342738984
335,832.8806047919373
336,832.5009513373141
337,832.1061073970517
338,831.7072452344446
339,831.3151769506004
340,830.9396837560881
341,830.5889470087628
342,830.2691054191417
343,829.9839498105392
344,829.7347586582551
345,829.52027884919
346,829.3368665810045
347,829.1788135801572
348,829.0388783345385
349,828.9090112336762
350,828.7812139738959
351,828.6484328576036
352,828.5053763127913
353,828.3491681320944
354,828.1797790643487
355,828.0002016957948
356,827.816340927389
357,827.6365938721766
358,827.4711092282009
359,827.3307612730746
360,827.225937146764
361,827.1652903879336
362,827.1546388864971
363,827.1961753717906
364,827.288107104389
365,827.424750784789
366,827.5970156962758
367,827.7931677375832
368,827.9997927471306
369,828.2029205954054
370,828.3892729978174
371,828.5475470302478
372,828.6695817441858
373,828.7512265773618
374,828.7927605529968
375,828.798784772968
376,828.7775954220535
377,828.7401240788924
378,828.6986016482474
379,828.6651454407018
380,828.6504664100552
381,828.6628489707788
382,828.7074947743489
383,828.7862630298455
384,828.8977824801303
385,829.0378564228532
386,829.2000537512401
387,829.3763917696026
388,829.5580528528814
389,829.7361000911162
390,829.9021532354523
391,830.0489783936979
392,830.1709545960055
393,830.2643964648577
394,830.3277146922992
395,830.3613892371227
396,830.3677345553715
397,830.3504638593258
398,830.3141063458573
399,830.2633767997606
400,830.2026108300169
401,830.1353488019103
402,830.0641013638501
403,829.9902964365332
404,829.9143996809678
405,829.8361903433413
406,829.7551396238489
407,829.67079787109
408,829.5830897087327
409,829.4924549595148
410,829.3998312418549
411,829.3065179485291
412,829.213979771178
413,829.1236491452242
414,829.0367778047429
415,828.9543664622656
416,828.8771697956663
417,828.8057427271634
418,828.7404798680595
419,828.6816132008829
420,828.6291630148619
421,828.5828579496882
422,828.5420423907873
423,828.5055897950828
424,828.4718497239913
425,828.4386623599413
426,828.4034616305862
427,828.3634582370518
428,828.3158664215316
429,828.2581358579611
430,828.1881728566752
431,828.104555602296
432,828.0067441432667
433,827.8952637065164
434,827.7718133907645
435,827.6392273797914
436,827.5012117570803
437,827.3618280279431
438,827.2247925168408
439,827.0927573213652
440,826.966775424913
441,826.8461058563212
442,826.7284020512828
443,826.6102038820775
444,826.487589076432
445,826.3568563877702
446,826.2151658164607
447,826.0610859552077
448,825.8949802296705
449,825.7191470429555
450,825.537660116668
451,825.3559273218249
452,825.1800496279203
453,825.0160835251393
454,824.8693027598507
455,824.7435475873649
456,824.6407463367112
457,824.5606724617768
458,824.5009510670312
459,824.4572805720054
460,824.4238206052254
461,824.3937098033468
462,824.3596837817304
463,824.3147504643619
464,824.2528629986572
465,824.1695262638578
466,824.0622811714876
467,823.931022043496
468,823.7781087515059
469,823.6082375268757
470,823.4280461284403
471,823.2454689323633
472,823.068921728765
473,822.9064469963477
474,822.7649510102542
475,822.649621528365
476,822.5635712729891
477,822.5077308751474
478,822.4809973608545
479,822.4806107569273
480,822.5026928570791
481,822.5428609087605
482,822.5968300838005
483,822.6609329015397
484,822.7325012988155
485,822.810070925813
486,822.8933800910569
487,822.9831626230489
488,823.0807825578755
489,823.1878098976537
490,823.3056600855651
491,823.4354013759332
492,823.5777769597725
493,823.7334056137217
494,823.9030503561075
495,824.0878225797418
496,824.2892256440472
497,824.5089984542459
498,824.7487621997973
499,825.0095074308464
500,825.29100484828
501,825.5912739641561
502,825.9062598856153
503,826.229823475808
504,826.5540650431927
505,826.8699236184863
506,827.1679514097517
507,827.43915535857
508,827.6758116096738
509,827.872179865379
510,828.025061989206
511,828.1341575637921
512,828.2021703025137
513,828.2346266972485
514,828.2394013757566
515,828.2260037683211
516,828.2047378990595
517,828.1858622106586
518,828.1788386256767
519,828.1917008229111
520,828.2305371269297
521,828.2990912098409
522,828.3985098572055
523,828.5272774478975
524,828.6813635467882
525,828.8545857615144
526,829.039160216516
527,829.2263765389713
528,829.4073118875108
529,829.5735132166811
530,829.71761478427
531,829.8338754545747
532,829.9186027124548
533,829.9704095194245
534,829.9902614194694
535,829.9813140871881
536,829.9485868583986
537,829.8985390747885
538,829.8386086146749
539,829.7767495276762
540,829.7209860113624
541,829.6789954680961
542,829.657743997
543,829.6632052369291
544,829.7001760575226
545,829.7721637971924
546,829.8812905832457
547,830.0281674531509
548,830.2117364722592
549,830.4291411022436
550,830.6757244577144
551,830.945240380312
552,831.2303001467169
553,831.5230021506219
554,831.8156317712557
555,832.101289238898
556,832.3743148489691
557,832.6304372677439
558,832.866658305058
559,833.0809687185846
560,833.2720200741395
561,833.4388444541878
562,833.5806512312626
563,833.6966871384889
564,833.7861427047111
565,833.8481090622724
566,833.8816053494891
567,833.8856924507105
568,833.8596689063427
569,833.8033201024438
570,833.7171674685391
571,833.6026516730539
572,833.4621989924293
573,833.2991593546666
574,833.1176410293989
575,832.9222824473376
576,832.7180034233313
577,832.5097749780929
578,832.3024318176207
579,832.1005203523198
580,831.908145690764
581,831.7287781364042
582,831.5650109065294
583,831.4183139784454
584,831.2888799070048
585,831.1756698432381
586,831.0767140861012
587,830.9896234446169
588,830.912189040834
589,830.842929234882
590,830.7814702871251
591,830.7286906986973
592,830.6866015065821
593,830.65797515867
594,830.6457774645123
595,830.6524975150845
596,830.6794947437936
597,830.7264781591048
598,830.7912054322717
599,830.8694531371681
600,830.9552717333673
601,831.0415013010122
602,831.12048957432
603,831.1849291181555
604,831.2287195736252
605,831.2477566695857
606,831.2405413008067
607,831.2084995255511
608,831.155936809295
609,831.0896216849532
610,831.018071527193
611,830.9506666959834
612,830.8967423134715
613,830.8647924889535
614,830.8618659009542
615,830.8931597956856
616,830.9617740124745
617,831.0685858652644
618,831.2122335576937
619,831.3892216815668
620,831.5941682046085
621,831.8201932573381
622,832.0594153668266
623,832.303490861232
624,832.5441257328154
625,832.7735096000823
626,832.984653793669
627,833.1716410487311
628,833.3298060627454
629,833.4558695544908
630,833.5480470578324
631,833.606140040717
632,833.6315848256114
633,833.6274036636743
634,833.5980075164767
635,833.5488473228642
636,833.4859642690567
637,833.4155145660386
638,833.3433359029883
639,833.2745965052508
640,833.213540348652
641,833.1633242606814
642,833.1259346006136
643,833.1021656055525
644,833.0916374309231
645,833.0928400236533
646,833.1032148636721
647,833.1193136075246
648,833.1370710050812
649,833.1521902167096
650,833.1605919333726
651,833.1588632037341
652,833.144661100558
653,833.1170497346693
654,833.0767506602649
655,833.0262698648489
656,832.9698513779417
657,832.9132137186846
658,832.8630521921039
659,832.826333175448
660,832.8094568949967
661,832.81740565484
662,832.8530136278022
663,832.916494517193
664,833.0053410344249
665,833.1146486874965
666,833.2378190576164
667,833.3675050624722
668,833.4966134169244
669,833.6191819810056
670,833.7309854167052
671,833.8297835820347
672,833.9152096948847
673,833.9883811198576
674,834.0513730911233
675,834.1067012541992
676,834.1569162478952
677,834.2043502166708
678,834.2509971611057
679,834.2984673060341
680,834.347940826942
681,834.4000712976073
682,834.4548438691729
683,834.5114406403341
684,834.56817787271
685,834.6225603102563
686,834.6714661807396
687,834.7114447254473
688,834.7390810450021
689,834.7513688324509
690,834.7460398703821
691,834.7218236379846
692,834.6786257947615
693,834.6176081528652
694,834.5411478396983
695,834.4526769612486
696,834.3564460291274
697,834.2572785758827
698,834.1603717504574
699,834.071159081322
700,833.9952075299021
701,833.9380871671077
702,833.9051407965559
703,833.9011018596414
704,833.9295592372091
705,833.9923280991476
706,834.0888334045288
707,834.2156366577716
708,834.3662394416597
709,834.5312765322468
710,834.6991551453691
711,834.8571053405732
712,834.9925067359402
713,835.0942857922786
714,835.1541602767137
715,835.1675450073043
716,835.1340054326538
717,835.0572210869288
718,834.9444780906855
719,834.8057533809317
720,834.6525006480233
721,834.4962991634532
722,834.3475588490321
723,834.2144671627315
724,834.1023158181754
725,834.0132727853548
726,833.9465847201805
727,833.89912628423
728,833.8661742885132
729,833.8422779665606
730,833.8221053359646
731,833.8011582013661
732,833.7762701901567
733,833.745840573849
734,833.7098058188676
735,833.6693931414957
736,833.6267229714778
737,833.5843346306775
738,833.5447107087641
739,833.5098694912813
740,833.4810788623785
741,833.4587241960049
742,833.4423398781195
743,833.4307858646848
744,833.4225202528057
745,833.4159018710585
746,833.4094650749217
747,833.4021354263468
748,833.3933805981839
749,833.3833006523028
750,833.3726571106861
751,833.362835078669
752,833.355734054915
753,833.3535809880076
754,833.3586462108275
755,833.3728367436827
756,833.3971725911805
757,833.4312242251374
758,833.4726629251385
759,833.5170947957754
760,833.5582914449269
761,833.5888200943924
762,833.6009623130212
763,833.5877376585426
764,833.543835279203
765,833.4662927246009
766,833.3548259891398
767,833.2117929131866
768,833.0418453323064
769,832.8513692037783
770,832.647815689436
771,832.4390057326393
772,832.2324720739723
773,832.0348948541914
774,831.851677318075
775,831.6866875272617
776,831.5421687248626
777,831.4188025097975
778,831.3158913764032
779,831.2316108888118
780,831.1632766219057
781,831.107581977943
782,831.0607883136843
783,831.0188857566749
784,830.9777768039487
785,830.9335373598366
786,830.8827704056575
787,830.8230079482109
788,830.7530715870091
789,830.6732945816858
790,830.5855382599693
791,830.492978104673
792,830.3996679406627
793,830.3099218376691
794,830.2276004980703
795,830.1554382010131
796,830.0945540402801
797,830.044237820033
798,830.0020237077258
799,829.9640145851562
800,829.9254044483686
801,829.8811384036769
802,829.8266358543625
803,829.7584904644767
804,829.6750576110461
805,829.5768455308195
806,829.4666408477531
807,829.34932635698
808,829.2313885041242
809,829.1201577446125
810,829.0228710125845
811,828.9456863790798
812,828.8928042021316
813,828.8658433967389
814,828.8635824804167
815,828.8821110080346
816,828.9153612232531
817,828.9559188400569
818,828.9959661438342
819,829.0282048655951
820,829.0466356105238
821,829.0471125035336
822,829.027629302099
823,828.9883288807924
824,828.9312657607342
825,828.8599808370694
826,828.778958382246
827,828.6930331645164
828,828.6068116652552
829,828.5241703754003
830,828.4478922208285
831,828.3794921143794
832,828.3192609077606
833,828.2665258829363
834,828.2200884004786
835,828.1787598200821
836,828.1418882087221
837,828.1097677635659
838,828.0838535075588
839,828.0667476401741
840,828.0619599057773
841,828.0734676346021
842,828.105120263254
843,828.1599581397026
844,828.2395466284073
845,828.3434460056405
846,828.4689217943063
847,828.6109479877039
848,828.7624911720312
849,828.9150126176528
850,829.0591030556499
851,829.1851747570248
852,829.2841627443173
853,829.3482034244189
854,829.3712526745442
855,829.3495941483393
856,829.2821937787846
857,829.1708767461862
858,829.0203217632851
859,828.837872777036
860,828.6331619644918
861,828.4175361304231
862,828.2032993221993
863,828.0028237749538
864,827.8276152865172
865,827.6874335483882
866,827.5895631095669
867,827.5383051354003
868,827.5347190311089
869,827.5766081479663
870,827.6587317393625
871,827.7732290799506
872,827.9102437796248
873,828.0587270427176
874,828.2073803552989
875,828.3456777234087
876,828.4648853056541
877,828.5589717713746
878,828.6252891140267
879,828.6649160280055
880,828.6825924694527
881,828.6862241691002
882,828.6859944334911
883,828.6931845106295
884,828.7188656402996
885,828.7726670494784
886,828.8618156039062
887,828.9905735904595
888,829.1601020371576
889,829.368694050967
890,829.6122752577629
891,829.885050906486
892,830.1801860937095
893,830.4904328195129
894,830.8086515896931
895,831.1282036957111
896,831.443214741209
897,831.7487319315312
898,832.0408063287194
899,832.316518717424
900,832.5739444618262
901,832.8120417213854
902,833.0304639912457
903,833.229333255873
904,833.4090366964834
905,833.5701077799981
906,833.7132238402685
907,833.8393122539563
908,833.9497222537805
909,834.0464023982732
910,834.1320284377658
911,834.2100415916672
912,834.2845678790294
913,834.360195100658
914,834.4415990460194
915,834.5330380901481
916,834.6377613672167
917,834.7573935102229
