frame_number,force
0,601.5133600000543
1,601.7395223189146
2,601.9532344159701
3,602.143100998616
4,602.299709941076
5,602.4163318086463
6,602.4893248708285
7,602.5182183292637
8,602.5054886893456
9,602.4560876795048
10,602.3768091846495
11,602.2755850349449
12,602.1607852775604
13,602.0405875498534
14,601.9224728141342
15,601.8128828737359
16,601.7170341810219
17,601.6388442396599
18,601.5809131810912
19,601.544514110807
20,601.5295724806251
21,601.5346523947054
22,601.5570051926242
23,601.5927477316754
24,601.6372073635699
25,601.6854111886533
26,601.7326429096652
27,601.7749669468417
28,601.8096286155328
29,601.8352696504157
30,601.8519364526429
31,601.8608887525027
32,601.8642300399987
33,601.8643887924866
34,601.8635004643328
35,601.8627762327391
36,601.8619757073747
37,601.8591051706917
38,601.8504337623845
39,601.8308668386309
40,601.7946512395531
41,601.7363166929413
42,601.6516880235708
43,601.5387598901133
44,601.3982442975913
45,601.2336876222752
46,601.0511667515127
47,600.8586547232657
48,600.6651715693234
49,600.4798300688809
50,600.3108826451206
51,600.1648818894196
52,600.04606622183
53,599.9560566151201
54,599.8938984990324
55,599.8564184080266
56,599.8388069023567
57,599.8353079279156
58,599.8399033306295
59,599.8469189903853
60,599.8515141810731
61,599.850028546063
62,599.8401616718115
63,599.8209675731503
64,599.7926664663405
65,599.7563063626101
66,599.7133435602946
67,599.6652430909625
68,599.613205652944
69,599.5580894263453
70,599.5005243962187
71,599.4411501266546
72,599.3808754604714
73,599.3210627937501
74,599.2635669801733
75,599.2105986105777
76,599.1644277994966
77,599.1269905374247
78,599.0994912755261
79,599.0820982369511
80,599.07379951357
81,599.0724394089158
82,599.0749027387862
83,599.0773805396725
84,599.0756517845306
85,599.0653475907769
86,599.0421973098256
87,599.0022652262122
88,598.9421734405271
89,598.8592879266537
90,598.7518404645498
91,598.6189813268873
92,598.4607961328805
93,598.278341885168
94,598.0737346821506
95,597.8502657202465
96,597.6124739822328
97,597.366095853443
98,597.1178443575857
99,596.8750226398301
100,596.6450252213643
101,596.434809515898
102,596.2504189708716
103,596.0966124358062
104,595.9766200043391
105,595.8920180705633
106,595.8427011532532
107,595.8269302025095
108,595.8414534355347
109,595.881705704247
110,595.9420810565666
111,596.0162549145062
112,596.0975300145419
113,596.1791899809182
114,596.254844714952
115,596.3187415835675
116,596.3660157838104
117,596.3928710226689
118,596.3967055054825
119,596.3762103721962
120,596.3314556314178
121,596.2639453981034
122,596.1765954801973
123,596.0735877510945
124,595.9600839733646
125,595.8418148319586
126,595.7245854029841
127,595.6137552095503
128,595.5137570067778
129,595.4277105311227
130,595.3571712982018
131,595.3020390112688
132,595.2606344211829
133,595.2299334059936
134,595.2059289902124
135,595.1840840967764
136,595.1598348894635
137,595.1290954570449
138,595.0886987322397
139,595.0367008547171
140,594.9724948236401
141,594.8967237279576
142,594.8110309122529
143,594.717712524755
144,594.619346740834
145,594.518475400573
146,594.4174103660381
147,594.3182167135194
148,594.2228785377661
149,594.1335903922953
150,594.0530644609339
151,593.9847273216463
152,593.9327096836505
153,593.9015900561394
154,593.895912175805
155,593.919546442905
156,593.9750076770143
157,594.062861114617
158,594.1813292549203
159,594.3261656722494
160,594.4908186011805
161,594.6668782143738
162,594.8447730604494
163,595.0146427378816
164,595.1672765977215
165,595.2949913878
166,595.3923309824539
167,595.4564994356178
168,595.4874726916248
169,595.4877735036835
170,595.4619460541019
171,595.4158296298724
172,595.355781929247
173,595.2880102301842
174,595.218118706446
175,595.1508940458688
176,595.0902710689559
177,595.0393775372804
178,595.0005643481768
179,594.9753772944572
180,594.9644929587569
181,594.9676836630468
182,594.983868500646
183,595.0112631997205
184,595.0476009614432
185,595.0903831070318
186,595.1371231576221
187,595.185553604983
188,595.2337681093244
189,595.2802808910642
190,595.3240042132262
191,595.364164517576
192,595.4001800751115
193,595.4315065685091
194,595.4574464720304
195,595.4769383968992
196,595.4883882930844
197,595.4896372869914
198,595.4781421215649
199,595.4513729720735
200,595.4073480202957
201,595.3451683037237
202,595.26541491195
203,595.1703219044682
204,595.0637137819346
205,594.9507572417143
206,594.8376015087512
207,594.7309742540635
208,594.6377767755403
209,594.5646944564422
210,594.5178170440024
211,594.5022613659548
212,594.5218097484541
213,594.5786044819142
214,594.6729514919717
215,594.8032758221343
216,594.9662416463094
217,595.1570122436964
218,595.3695953225357
219,595.5972110895475
220,595.8326417399246
221,596.0685571336976
222,596.2978343201027
223,596.513885708188
224,596.710991905941
225,596.8846160344232
226,597.0316667154058
227,597.1506778141242
228,597.2418784063038
229,597.3071344243335
230,597.3497567126965
231,597.3741846738689
232,597.3855639729838
233,597.3892458685385
234,597.3902522248911
235,597.3927675776623
236,597.3997244094469
237,597.4125387377512
238,597.4310392368554
239,597.4536153837323
240,597.4775786498466
241,597.4996846532763
242,597.5167233736246
243,597.5260737291679
244,597.5261433443889
245,597.5166559446415
246,597.4987834846455
247,597.4751379828969
248,597.4496451694522
249,597.427324954704
250,597.4139988149798
251,597.4159267701381
252,597.4393587789265
253,597.4899952698296
254,597.5724000983586
255,597.6894634666365
256,597.8420237969289
257,598.0287155134258
258,598.2460489880896
259,598.4886883359694
260,598.7498803902984
261,599.0219874150844
262,599.297071653925
263,599.5674714310842
264,599.8263070627424
265,600.0678701408567
266,600.2878795330968
267,600.4836179392819
268,600.6539793100602
269,600.7994517785351
270,600.922037363966
271,601.0250883215213
272,601.1130404777418
273,601.1910445228567
274,601.2645183132527
275,601.3386555624435
276,601.4179354001765
277,601.5056921914336
278,601.6038160773611
279,601.7126389344351
280,601.8310161703736
281,601.9565724142285
282,602.0860614342904
283,602.2157861189692
284,602.3420181397429
285,602.4613582870445
286,602.5710009270894
287,602.6689030198335
288,602.7538874225696
289,602.8257104112672
290,602.8850926574363
291,602.9336782813796
292,602.9738830904431
293,603.0086277358956
294,603.0409947964293
295,603.0738663569402
296,603.1095875474089
297,603.1496884804251
298,603.1947009880299
299,603.2441146140854
300,603.2965034345685
301,603.349815346241
302,603.4017672580152
303,603.450263202725
304,603.4937665732404
305,603.5315973553594
306,603.5641494377112
307,603.5930114176622
308,603.6209545841751
309,603.6517626977663
310,603.6899165995894
311,603.740176578744
312,603.8071098850982
313,603.8946054252831
314,604.0054189184714
315,604.1407974631288
316,604.3002303057799
317,604.4813539313723
318,604.6800106578157
319,604.8904410084714
320,605.1055947861288
321,605.3175632682717
322,605.5181376979511
323,605.6994692406529
324,605.8547577204265
325,605.978868218758
326,606.0687873082753
327,606.1238714195272
328,606.1458810709579
329,606.1388205296897
330,606.1086150069956
331,606.0626621586941
332,606.0092900681242
333,605.9571441749174
334,605.9145279998246
335,605.8887449470024
336,605.885510453379
337,605.9084990551495
338,605.9590628160535
339,606.0361324912261
340,606.1363037616377
341,606.2541070554818
342,606.3824489463136
343,606.5131958981526
344,606.6378529415148
345,606.748276182677
346,606.8373509893107
347,606.8995676725465
348,606.9314386498614
349,606.931727609214
350,606.901487431294
351,606.8439133985614
352,606.764020203016
353,606.6681660336263
354,606.5634740319816
355,606.4572212019829
356,606.3562673971858
357,606.2665889605026
358,606.1929693336181
359,606.1388780917705
360,606.106533732287
361,606.0971006459481
362,606.1109400897359
363,606.1478405980664
364,606.2071932339388
365,606.2881230894689
366,606.3896081476302
367,606.5106013924164
368,606.650142947585
369,606.8074351371189
370,606.9818643529541
371,607.1729717167398
372,607.3803776259681
373,607.6036571652572
374,607.8421679139561
375,608.0948581897858
376,608.3601121214238
377,608.6356866235182
378,608.9187508457006
379,609.2059779582077
380,609.4936187936182
381,609.777536395713
382,610.0532580489405
383,610.316130535054
384,610.561616012899
385,610.7856844409846
386,610.9852084204641
387,611.158270612539
388,611.3043300501972
389,611.4242326683487
390,611.5200800899767
391,611.5949867345628
392,611.6527614430023
393,611.6975518371272
394,611.7334905114799
395,611.7643811380676
396,611.7934585474078
397,611.8232466088797
398,611.8555176841943
399,611.8913346100047
400,611.9311469305669
401,611.9749216050717
402,612.0222983452096
403,612.0727557749051
404,612.1257606954002
405,612.1808646581076
406,612.2377207445946
407,612.2960169506531
408,612.3553497070556
409,612.4150817126471
410,612.474237596935
411,612.5314853470131
412,612.5852294934346
413,612.633811596565
414,612.6757885391163
415,612.7102467156282
416,612.7371059563046
417,612.7573639679657
418,612.7732324873601
419,612.7881276709695
420,612.8064972088591
421,612.8334863025692
422,612.8744647210453
423,612.934461997715
424,613.0175774792311
425,613.1264332855841
426,613.2617278909906
427,613.4219414696536
428,613.6032398455978
429,613.7996070237313
430,614.0032033767179
431,614.2049135935159
432,614.3950326569229
433,614.56403701684
434,614.7033847192137
435,614.8062748592453
436,614.8682832329936
437,614.887790501839
438,614.8661360451605
439,614.8074624847321
440,614.7182577714917
441,614.606646527306
442,614.4815201051257
443,614.3516182826731
444,614.2246845596184
445,614.1068125028258
446,614.0020745951236
447,613.9124679599131
448,613.8381348263712
449,613.777756359649
450,613.7290048121254
451,613.6889646079178
452,613.6544730313179
453,613.6223676441781
454,613.5896531612267
455,613.5536124171706
456,613.5118856118042
457,613.4625368356999
458,613.4041222983944
459,613.3357653731313
460,613.2572274613021
461,613.1689552644101
462,613.07209397532
463,612.968464966167
464,612.8604968168563
465,612.7510829143657
466,612.6433436271305
467,612.5402971662135
468,612.444472013671
469,612.3575170182761
470,612.2798836978976
471,612.210658933214
472,612.1476007164014
473,612.0873796574875
474,612.025979058799
475,611.959175972658
476,611.8830158198263
477,611.7941997598774
478,611.6903271036107
479,611.5699704063923
480,611.4325974276363
481,611.2783837822232
482,611.1079811168868
483,610.922314356134
484,610.7224671084479
485,610.5096714996689
486,610.2853680500554
487,610.0512789054184
488,609.8094553562499
489,609.5622943771384
490,609.3125441861482
491,609.0633295154574
492,608.8182205649111
493,608.5813397182786
494,608.3574566504118
495,608.1519951885045
496,607.970885110053
497,607.8202290982023
498,607.7057983977755
499,607.6324140820974
500,607.6033136124315
501,607.6196284376406
502,607.6800852257401
503,607.780991240135
504,607.916500641009
505,608.0791100821142
506,608.260304942549
507,608.4512645401742
508,608.6435323695754
509,608.8295693788453
510,609.0031365611587
511,609.159492433648
512,609.2954261513875
513,609.4091595113598
514,609.5001411958298
515,609.5687501685487
516,609.6159411533175
517,609.642887749815
518,609.6506791074287
519,609.6401013814306
520,609.611508311929
521,609.5647707593035
522,609.4992872859833
523,609.4140351085531
524,609.3076530761783
525,609.1785722695671
526,609.0252209148268
527,608.8463122828713
528,608.6411876964671
529,608.4101544650539
530,608.1547468262222
531,607.8778537456395
532,607.5836963391181
533,607.2776784873779
534,606.9661501655512
535,606.6561074028272
536,606.3548257305482
537,606.0694135362841
538,605.8062928316423
539,605.5706580944536
540,605.3659992789246
541,605.1937762616831
542,605.0532997074672
543,604.9418329226402
544,604.8549011149039
545,604.7867722157592
546,604.731041681415
547,604.6812217498513
548,604.6312325699676
549,604.5757291969687
550,604.5102534777194
551,604.4312474489143
552,604.3359972450874
553,604.2225911360456
554,604.0899596514878
555,603.9380151094033
556,603.7678466766024
557,603.5818912758784
558,603.3840010036603
559,603.1793465234452
560,602.9741210850142
561,602.7750505260915
562,602.5887712758185
563,602.4211849429951
564,602.2769104895991
565,602.1589301740917
566,602.0684692928048
567,602.0050786200956
568,601.9668365275601
569,601.9505847605477
570,601.9521554540692
571,601.966602502311
572,601.9884739901454
573,602.0121363070654
574,602.0321130097847
575,602.0433817467064
576,602.0416020028603
577,602.0232947425997
578,601.9860095853417
579,601.9284818171847
580,601.8507410140106
581,601.7541241487178
582,601.641162395816
583,601.5153303401123
584,601.3806671620621
585,601.2413065224781
586,601.1009773663579
587,600.9625507852564
588,600.8277037862397
589,600.6967490730128
590,600.5686509802957
591,600.4412282638466
592,600.3115333068498
593,600.1763746355639
594,600.0329106686735
595,599.879210130312
596,599.714671669926
597,599.5402245139713
598,599.3582832689848
599,599.1724898698734
600,598.9873255790529
601,598.8076961568767
602,598.6385749307415
603,598.4847395562782
604,598.3505809850948
605,598.2399266886936
606,598.1558281688916
607,598.1003111652014
608,598.0741336501976
609,598.076601159444
610,598.105464694438
611,598.1569169881438
612,598.2257130268705
613,598.3054373363725
614,598.388911211524
615,598.4686976492301
616,598.5376393001017
617,598.5893632407805
618,598.6187084402006
619,598.6220664668768
620,598.5976484182831
621,598.5456835006769
622,598.4685215941
623,598.3705765760286
624,598.2580388685179
625,598.1383238793255
626,598.0192987694604
627,597.9084068600783
628,597.8118466902397
629,597.7339419842618
630,597.6767740433947
631,597.640080666757
632,597.6213911609908
633,597.6163655173641
634,597.6193098309354
635,597.6238252726295
636,597.6235162839886
637,597.6126600985573
638,597.5867459757955
639,597.542826773134
640,597.4796693954254
641,597.3977271380634
642,597.2989760159079
643,597.1866566424792
644,597.0649503072301
645,596.9386040941664
646,596.812515515981
647,596.6913017350681
648,596.5789094836775
649,596.4783422988608
650,596.3915627722963
651,596.3195735977428
652,596.2626274336618
653,596.2204937535878
654,596.1927208668569
655,596.1788468922568
656,596.1785205447358
657,596.1915056288746
658,596.2175725749523
659,596.2563098992546
660,596.3068970132332
661,596.3678675977081
662,596.436880748625
663,596.5105260981263
664,596.5842186690178
665,596.6522653161315
666,596.7081766103073
667,596.7452437842013
668,596.7573231248195
669,596.7397113553523
670,596.689971370183
671,596.6085605292586
672,596.4991172054098
673,596.3683034590139
674,596.2251979672174
675,596.0803444632213
676,595.9446278657098
677,595.8281522443657
678,595.7392551393028
679,595.6837463160911
680,595.6644272738121
681,595.680930611342
682,595.7298983039495
683,595.8054788748642
684,595.9000693801784
685,596.0051848671135
686,596.1123348152676
687,596.21382645359
688,596.3034627933339
689,596.3771141552658
690,596.4331132546589
691,596.4724013652994
692,596.498378537015
693,596.5164733592713
694,596.5334997562727
695,596.5568816545563
696,596.5938162459822
697,596.650443795492
698,596.7311058595443
699,596.8377852131556
700,596.9698058143327
701,597.1238279902377
702,597.2941276206524
703,597.4731248407488
704,597.6521236735905
705,597.8222088482372
706,597.9752045644697
707,598.1045557913234
708,598.2059850037366
709,598.2778215417646
710,598.3209761935485
711,598.3386005537218
712,598.3355016307138
713,598.3173861262443
714,598.2900202371621
715,598.2584258979149
716,598.2262675446289
717,598.1955710012494
718,598.1668388862778
719,598.1395131377628
720,598.1126400137159
721,598.0855549326902
722,598.0584240484745
723,598.0325310093119
724,598.0102555885882
725,597.9947466564441
726,597.9893471866757
727,597.9968799945517
728,598.0189350012454
729,598.0552996142635
730,598.103647162869
731,598.1595582691455
732,598.2169022509669
733,598.2685448470556
734,598.3072774392838
735,598.3268017207672
736,598.3225755975242
737,598.2923474862525
738,598.2362838738626
739,598.1567062769074
740,598.0575453784154
741,597.9436541941741
742,597.820105459803
743,597.6915608560801
744,597.5617666578588
745,597.4332114665784
746,597.3069691038444
747,597.1827345642629
748,597.0590459439611
749,596.9336716254178
750,596.8041200046839
751,596.6681968329768
752,596.524512786869
753,596.3728530877546
754,596.2143582032572
755,596.0515065328448
756,595.8879221426247
757,595.7280551926539
758,595.5768001102423
759,595.4391173216823
760,595.3197049018337
761,595.2227425805102
762,595.1517189326931
763,595.1093418569011
764,595.0975017284527
765,595.117225412068
766,595.1685733356074
767,595.2504924017593
768,595.3606915689048
769,595.4956117966865
770,595.6505242984188
771,595.8197440131456
772,595.9969168029718
773,596.1753413791166
774,596.3483173679305
775,596.5095458754066
776,596.6536083515183
777,596.7764951733233
778,596.8760845485973
779,596.9524445186893
780,597.0078663369667
781,597.046609866751
782,597.074412506262
783,597.0978578444324
784,597.1237116522026
785,597.1583141527102
786,597.2070784693685
787,597.2741044406281
788,597.3618968990959
789,597.4711869293634
790,597.6008791240039
791,597.7481594028269
792,597.9087784001223
793,598.0774845148592
794,598.2485456474141
795,598.4162852617837
796,598.5755637046759
797,598.7221524403545
798,598.8529722552862
799,598.9661941562374
800,599.0612313234544
801,599.1386680376299
802,599.2001565810489
803,599.2482722190294
804,599.2862891673265
805,599.3178570961445
806,599.3466061466479
807,599.3757513219821
808,599.4077766158025
809,599.4442513069092
810,599.4857823950287
811,599.532067958178
812,599.5820110740476
813,599.6338820594848
814,599.6855502043962
815,599.7348107914049
816,599.7797949577
817,599.8193888523107
818,599.853547546668
819,599.88340066383
820,599.9111052427137
821,599.9394719357283
822,599.9714416885473
823,600.0095117742127
824,600.0552070788065
825,600.1086758889604
826,600.168473089748
827,600.2315811536886
828,600.2936961921998
829,600.3497594087795
830,600.3946540306152
831,600.423943420895
832,600.434519237823
833,600.4250554281782
834,600.3962034474273
835,600.3505009325964
836,600.2920030609998
837,600.2256944864087
838,600.1567969662723
839,600.0901255654258
840,600.0296324342519
841,599.9782097185799
842,599.937738588844
843,599.9093116985217
844,599.893535288916
845,599.8908252727314
846,599.9016380258314
847,599.926610211579
848,599.966607032689
849,600.0226853035501
850,600.0959744083311
851,600.1874815960055
852,600.2978459961101
853,600.4270885556946
854,600.5744145761139
855,600.7381130126274
856,600.9155723094932
857,601.1034135559896
858,601.2977328417006
859,601.4944327402413
860,601.6895946595446
861,601.87980889406
862,602.0623663863427
863,602.2352455687585
864,602.396894487542
865,602.5458872991555
866,602.6805876513093
867,602.7989493838412
868,602.8985313906946
869,602.9767334264571
870,603.0312042979568
871,603.0603384430707
872,603.0637529785666
873,603.0426266322509
874,602.9998011526283
875,602.9396044075717
876,602.8674344876229
877,602.7892112816744
878,602.7108305369972
879,602.6377367866462
880,602.5746728409686
881,602.5255902747156
882,602.4936538421974
883,602.481263608526
884,602.490040151669
885,602.5207452465253
886,602.5731312279283
887,602.6457317918598
888,602.7356351932599
889,602.8383175516071
890,602.9476383633511
891,603.0560848947662
892,603.155295173739
893,603.236818211268
894,603.2930110290259
895,603.3179343807756
896,603.3080992428448
897,603.2629432078858
898,603.1849737541929
899,603.0795787888666
900,602.9545516630518
901,602.8194032173628
902,602.6845430424036
903,602.5604113526379
904,602.4566341311939
905,602.3812626765925
906,602.3401519273317
907,602.3365301738978
908,602.3708093416806
909,602.4406740365179
910,602.5414603964344
911,602.6667848011695
912,602.80932207845
913,602.9615998191865
914,603.116693036581
915,603.2687567103801
916,603.4133879566839
917,603.5478401383538
