frame_number,force
0,616.4544600000415
1,616.254114914955
2,616.0582927001875
3,615.8708821965108
4,615.6946612633466
5,615.5310823678042
6,615.3803429587765
7,615.2416861350852
8,615.1138332846855
9,614.9954394743769
10,614.8854771293554
11,614.7834841894405
12,614.6896441542344
13,614.6046934254716
14,614.5296845226787
15,614.4656675361833
16,614.4133677106943
17,614.372925955927
18,614.3437418701046
19,614.3244317582677
20,614.312897003841
21,614.3064913348511
22,614.3022713013685
23,614.2973009159354
24,614.2889562084432
25,614.2751599537679
26,614.2544991019537
27,614.2262289324841
28,614.1902056924055
29,614.1467903575472
30,614.0967487768141
31,614.041160660082
32,613.9813406219461
33,613.9187619889776
34,613.8549664790596
35,613.7914503366599
36,613.729534101731
37,613.6702358504606
38,613.6141714193467
39,613.5615009300569
40,613.5119298538248
41,613.4647567084485
42,613.4189456633062
43,613.3732007892409
44,613.3260302395463
45,613.2758048112896
46,613.2208296930936
47,613.1594564744541
48,613.0902558774294
49,613.0122441803567
50,612.9251205905193
51,612.8294576134375
52,612.7268067139566
53,612.6197154967947
54,612.5116641139521
55,612.4069104349702
56,612.3102105846885
57,612.2263779427367
58,612.1596699835433
59,612.1130513490828
60,612.0874590904855
61,612.0812517837489
62,612.0900167047381
63,612.1068333713038
64,612.1229844661079
65,612.1290125145987
66,612.1159631547573
67,612.0766276958487
68,612.006592555679
69,611.9049265507123
70,611.7743942023669
71,611.621165626549
72,611.4540796408469
73,611.2835855172523
74,611.1205292100416
75,610.9749547414266
76,610.8550595344846
77,610.7663942898757
78,610.7113636255282
79,610.6890683306395
80,610.695514291223
81,610.7241817924437
82,610.7669008707262
83,610.8149217740655
84,610.8600224470825
85,610.8954794218091
86,610.9167532254168
87,610.9217922412887
88,610.9109228187609
89,610.8863616722923
90,610.8514546571269
91,610.8098008304089
92,610.7644443133163
93,610.7172913526991
94,610.6688374283157
95,610.6182074591173
96,610.5634611648917
97,610.502088963659
98,610.4315951547516
99,610.3500425223326
100,610.2564461475739
101,610.1509626631524
102,610.0348997116877
103,609.9106246117925
104,609.7814460942402
105,609.6514869683567
106,609.5255065198181
107,609.4086137008119
108,609.3058472484087
109,609.2216633130602
110,609.1594220192299
111,609.1209715879967
112,609.1063993443889
113,609.113982954475
114,609.1403492455989
115,609.1808230113227
116,609.2299147632694
117,609.281867609898
118,609.3311789648575
119,609.3730312305285
120,609.4035916561633
121,609.4201679995355
122,609.4212315976145
123,609.4063368584974
124,609.3759729532711
125,609.3313841136866
126,609.274392387878
127,609.2072476280694
128,609.1325106667091
129,609.0529524534734
130,608.9714385631382
131,608.8907762771281
132,608.8135260348577
133,608.7418023503725
134,608.6770964566156
135,608.6201457699732
136,608.5708665432427
137,608.5283633584612
138,608.4910289728037
139,608.4567427239679
140,608.4231576617003
141,608.3880337575549
142,608.3495435050319
143,608.3064782941512
144,608.2583302052676
145,608.2052822299854
146,608.1481655507616
147,608.0884257671722
148,608.0281078663189
149,607.9698465520238
150,607.916835104398
151,607.8727353984631
152,607.8414866985678
153,607.8269813891327
154,607.8326078144817
155,607.8607084105906
156,607.9120516453567
157,607.9854508566013
158,608.077657608107
159,608.183596401032
160,608.2969139892044
161,608.4107400030355
162,608.5185243852699
163,608.6148211166886
164,608.6959069516308
165,608.7601497795249
166,608.8080738416771
167,608.8421128570377
168,608.8660995451492
169,608.8845959997847
170,608.90219252895
171,608.9228792456969
172,608.9495506744433
173,608.9836732648167
174,609.025133159922
175,609.072269945484
176,609.1220823491243
177,609.170569479013
178,609.2131578777661
179,609.2451652229153
180,609.2622577994152
181,609.260865564444
182,609.2385306513512
183,609.1941784693994
184,609.128301224483
185,609.04303161199
186,608.9420748229916
187,608.830473484242
188,608.7142067432612
189,608.5996633042456
190,608.4930631153101
191,608.3999187905863
192,608.3246133644041
193,608.2701261625488
194,608.2378896299952
195,608.227739507393
196,608.2379374801725
197,608.2652801143556
198,608.3053261136782
199,608.3527499782724
200,608.4017777625013
201,608.4466262329864
202,608.4818787120535
203,608.5027729208949
204,608.5054136071182
205,608.4869345116357
206,608.4456204409621
207,608.3809785420788
208,608.2937408463551
209,608.1857957552658
210,608.0600708184585
211,607.920399575249
212,607.7713869552986
213,607.6182500315904
214,607.4665847456392
215,607.3220195882426
216,607.1897582571128
217,607.0740605178593
218,606.9777452387582
219,606.9018098571684
220,606.8452395026313
221,606.8050379134439
222,606.7764759247854
223,606.7535322541706
224,606.7294841469112
225,606.6975829489312
226,606.6517321782509
227,606.5870888307988
228,606.5005296053552
229,606.3909437016127
230,606.2593247867277
231,606.1086470844851
232,605.9435315706128
233,605.7697326279905
234,605.593499905293
235,605.4208959894497
236,605.257171162728
237,605.1062957970954
238,604.9707162202151
239,604.8513387658143
240,604.7476893174727
241,604.6581682430156
242,604.5803242226133
243,604.5110947476812
244,604.4470003231152
245,604.3843246542299
246,604.3193426339783
247,604.2486482060091
248,604.1695840426219
249,604.0807127200899
250,603.9822266778541
251,603.8761839745181
252,603.7664772703366
253,603.6584892494454
254,603.5584486068171
255,603.4725669003303
256,603.4060998648434
257,603.3625165799554
258,603.3429489466181
259,603.3460305072332
260,603.3681462582446
261,603.4040334992845
262,603.447613795505
263,603.4929065106087
264,603.5348795117343
265,603.570124606612
266,603.5972813459745
267,603.6171570523788
268,603.6325162938864
269,603.6475616476289
270,603.667192882611
271,603.696180728911
272,603.7384004810191
273,603.7962438697957
274,603.8702838589357
275,603.9592199930358
276,604.0600872089273
277,604.1686757086817
278,604.2800912833151
279,604.3893816819295
280,604.4921556561416
281,604.5851273177645
282,604.6665371490881
283,604.7364246593074
284,604.7967328140173
285,604.8512068406909
286,604.9050413516421
287,604.9642632155552
288,605.0349097335554
289,605.1221341400186
290,605.2294017900822
291,605.3579166841527
292,605.5063595551768
293,605.6709560089546
294,605.8458410269789
295,606.0236467655253
296,606.1962167576778
297,606.3553448020086
298,606.4934516828206
299,606.6041439685415
300,606.6826355745627
301,606.7260370256403
302,606.7335167570003
303,606.7063206517015
304,606.647625758238
305,606.562219990161
306,606.4560338358435
307,606.3355806021941
308,606.2073757248743
309,606.0774076157563
310,605.9507290354215
311,605.8312223892291
312,605.7215562895428
313,605.6233052943419
314,605.5371722846012
315,605.4632431530775
316,605.4012118486008
317,605.3505353464727
318,605.310508459133
319,605.2802786055
320,605.2588422673754
321,605.2450744747928
322,605.2378340885165
323,605.2361515673815
324,605.2394509737823
325,605.2477204499223
326,605.2615562293813
327,605.282052363418
328,605.3105524055084
329,605.3483021413817
330,605.3960571756209
331,605.4537158627495
332,605.5200562661083
333,605.5926444204804
334,605.6679531047413
335,605.7416926473645
336,605.8093112279164
337,605.8665789066763
338,605.9101427343038
339,605.9379432509087
340,605.9494163449906
341,605.9454573894121
342,605.9281800291009
343,605.9005449637576
344,605.8659532436022
345,605.827887403036
346,605.7896494341982
347,605.7542089994123
348,605.7241528371152
349,605.7017113959469
350,605.6888247939294
351,605.6872047406239
352,605.69836092132
353,605.723585434722
354,605.7639126831102
355,605.8200817422922
356,605.8925220574985
357,605.98136831578
358,606.0864927398271
359,606.2075267394508
360,606.3438358466319
361,606.4944220780276
362,606.6577584429556
363,606.8315977153834
364,607.0128232923861
365,607.1974156103722
366,607.3805931933936
367,607.5571514369091
368,607.7219649549398
369,607.8705591251406
370,607.9996276745268
371,608.1073932517415
372,608.1937606243764
373,608.2602684271444
374,608.3098843272215
375,608.3467027770472
376,608.3755994312423
377,608.4018768856251
378,608.4309044617479
379,608.4677289597021
380,608.5166454829684
381,608.5807704180827
382,608.6617119058495
383,608.7594424844253
384,608.8724326812422
385,608.9980257473143
386,609.1329623629205
387,609.2739322013629
388,609.4180406256625
389,609.5631161899169
390,609.7078298655376
391,609.8516380136009
392,609.9945930437825
393,610.1370880214126
394,610.2796082186449
395,610.4225458183489
396,610.566101333091
397,610.7102668438635
398,610.8548729853061
399,610.9996778611535
400,611.1444688731112
401,611.2891347142267
402,611.4336593800622
403,611.5780103728298
404,611.721939012714
405,611.8647620397644
406,612.0052193514414
407,612.1414795857256
408,612.2713045597774
409,612.3923254507273
410,612.5023577889508
411,612.5996877538647
412,612.6832813147214
413,612.7528863825648
414,612.809015639306
415,612.8528217713732
416,612.8859073141349
417,612.9101339101152
418,612.9274931488358
419,612.9400679081415
420,612.9500654097621
421,612.9598715789574
422,612.9720784981517
423,612.9894603017377
424,613.0148927297382
425,613.0512184189729
426,613.1010611643738
427,613.1665934644034
428,613.249263935285
429,613.3495001181141
430,613.466421496957
431,613.5976199551726
432,613.739078416157
433,613.8852931962033
434,614.029633806569
435,614.1649181644472
436,614.2841249164045
437,614.3811355934531
438,614.4514003963742
439,614.4924375171754
440,614.5041017014455
441,614.4885933016855
442,614.4502151530045
443,614.3949137708252
444,614.3296642266808
445,614.261771876378
446,614.198165819635
447,614.1447552847983
448,614.1059170014029
449,614.0841707397364
450,614.0800705048174
451,614.09229754182
452,614.1179111155461
453,614.1527073427939
454,614.1916453954902
455,614.2293077343628
456,614.2603645057956
457,614.2800154357287
458,614.284380974113
459,614.2708104554308
460,614.2380841425751
461,614.1865099193138
462,614.1179325640394
463,614.0356656369447
464,613.9443316977693
465,613.8495849979257
466,613.7577067239993
467,613.6750887238375
468,613.6076379959111
469,613.5601458799679
470,613.5356836186484
471,613.5351066123447
472,613.5567619395558
473,613.5964854226868
474,613.647935243062
475,613.7032405146838
476,613.7538686214388
477,613.7915710898922
478,613.8092754130121
479,613.8018295043014
480,613.766535462173
481,613.7034193374437
482,613.6151971879236
483,613.5069297560246
484,613.385399478588
485,613.2582822589071
486,613.1332219405684
487,613.0169504902966
488,612.9146168654331
489,612.8294596188993
490,612.7628705973823
491,612.7147848522461
492,612.6842464866136
493,612.6699709279042
494,612.6707556650557
495,612.6856668359068
496,612.7140107719516
497,612.7551540260666
498,612.8082765173666
499,612.8721401091599
500,612.9449334286286
501,613.0242179974612
502,613.1069687289189
503,613.1896889873808
504,613.2685797302804
505,613.3397370508884
506,613.39934535331
507,613.4438466140915
508,613.4701048045486
509,613.4756137232563
510,613.4587759108929
511,613.4192174938365
512,613.3580523454185
513,613.2780114161192
514,613.1834006845202
515,613.079901634215
516,612.9742501226859
517,612.8738260123673
518,612.7861794624185
519,612.7185217293124
520,612.6772108621493
521,612.6672570569434
522,612.6918664862689
523,612.7520543194834
524,612.846387434117
525,612.970934392309
526,613.1194760387019
527,613.2839742056063
528,613.4552436837583
529,613.623746964446
530,613.7804286776549
531,613.9175080307199
532,614.0291413646519
533,614.1118643680472
534,614.1647428435875
535,614.1892035899962
536,614.1885715532366
537,614.167396172787
538,614.1306958078054
539,614.0832622766866
540,614.0291349813393
541,613.9712920496161
542,613.9115484980067
543,613.850622125101
544,613.7883279441277
545,613.723875324721
546,613.6562455487507
547,613.5846093681868
548,613.508717562848
549,613.4291878916399
550,613.3476303632036
551,613.2665891757467
552,613.1893161629794
553,613.1194154568717
554,613.0604128664959
555,613.0153132736327
556,612.9862142921694
557,612.9740345143208
558,612.9783864605721
559,612.9975903995867
560,613.0288075399078
561,613.0682820933323
562,613.1117026043213
563,613.1546822478722
564,613.1932994562286
565,613.2245763045121
566,613.2467667098364
567,613.2593944935528
568,613.2630691858527
569,613.2591534702324
570,613.2493528137941
571,613.2352818396131
572,613.2180631137452
573,613.1980295791104
574,613.1746068604509
575,613.1464229989928
576,613.1116329871729
577,613.0683825395258
578,613.0152991371834
579,612.9518965622344
580,612.8788045952142
581,612.7977786933124
582,612.7114942699035
583,612.6231750349524
584,612.5361387096862
585,612.453362731921
586,612.3771662941698
587,612.3090623502778
588,612.2497683041098
589,612.199316232969
590,612.1571978466462
591,612.1225040438536
592,612.0940483580353
593,612.0704823225491
594,612.0504138452228
595,612.0325328055311
596,612.0157433414083
597,611.9993013863218
598,611.9829493462403
599,611.9670236769502
600,611.9524949923222
601,611.9409015480603
602,611.9341669735719
603,611.934336338805
604,611.9432832359852
605,611.9624195035213
606,611.9924109134492
607,612.032907510031
608,612.0823354171124
609,612.1378276991703
610,612.1953594688796
611,612.2500976535138
612,612.2969117067178
613,612.330952901725
614,612.3482064954385
615,612.3459415653035
616,612.3230164856571
617,612.2800342553192
618,612.2193612106504
619,612.1450112367819
620,612.0623761872054
621,611.9777886576067
622,611.8979415843695
623,611.8292309184191
624,611.7771044385144
625,611.7454897429894
626,611.7363572120618
627,611.7494644440699
628,611.78231901487
629,611.8303720935156
630,611.887423949603
631,611.9462029101863
632,611.9990746456422
633,612.0388323882938
634,612.0594962415287
635,612.057020103078
636,612.029795855522
637,611.9788711177714
638,611.9078479880646
639,611.8224885252828
640,611.7301013927803
641,611.6388018419987
642,611.5567177999382
643,611.4911861227692
644,611.4479804716425
645,611.4306360547204
646,611.4399561517164
647,611.4737810376281
648,611.5270774180112
649,611.5923743368531
650,611.6605257293095
651,611.7217172160351
652,611.7665721466581
653,611.7871805397315
654,611.7778923515888
655,611.7357735436173
656,611.6606952486576
657,611.5550910971401
658,611.4234628575782
659,611.2717378311337
660,611.1065865751374
661,610.9347974067445
662,610.7627732680485
663,610.5961755258511
664,610.4397109732462
665,610.2970566395707
666,610.1709216672035
667,610.0632224570028
668,609.9753008577923
669,609.9080934955657
670,609.8621945082816
671,609.837815449767
672,609.8346823965164
673,609.8519043471564
674,609.8878270374321
675,609.9398870755784
676,610.0045060316621
677,610.0770852289579
678,610.1521540037974
679,610.2236867033239
680,610.2855572440296
681,610.332071241849
682,610.3585178235583
683,610.3616988029945
684,610.3403887826104
685,610.2956518372079
686,610.230923476904
687,610.1517895591633
688,610.0654513591288
689,609.9799372184303
690,609.9031865362892
691,609.8421680578433
692,609.8021816274199
693,609.7864372935203
694,609.7959381368025
695,609.8296350133295
696,609.8847736711641
697,609.9573226245986
698,610.042373886791
699,610.1344557722558
700,610.22776211879
701,610.316349086339
702,610.394362360456
703,610.4563375024088
704,610.4975762809036
705,610.514558852611
706,610.5053209314938
707,610.469714032272
708,610.4094793484821
709,610.328103338575
710,610.2304747185523
711,610.1224062014762
712,610.010105853696
713,609.8996833078845
714,609.7967586913087
715,609.7062075351164
716,609.6320298814403
717,609.5772939469772
718,609.5440937355908
719,609.5334837500468
720,609.5453996710216
721,609.5786097849186
722,609.630737849486
723,609.6983578691196
724,609.7771261192547
725,609.8619226072992
726,609.9470162769725
727,610.0263020066701
728,610.0936452127431
729,610.143317152538
730,610.1704545852364
731,610.1714689140337
732,610.1443567914366
733,610.0888922065317
734,610.0066879921882
735,609.9011076386738
736,609.7770072407094
737,609.6403158967167
738,609.4975188720618
739,609.3551483471837
740,609.2193710710693
741,609.0957020364074
742,608.9888127387457
743,608.9023727266028
744,608.838873370346
745,608.7994278602505
746,608.7835951786604
747,608.7893007319931
748,608.8129077185475
749,608.8494518442109
750,608.8930161100444
751,608.9371993926435
752,608.9756161009715
753,609.0023591441325
754,609.0123783375234
755,609.0017677822858
756,608.9679920172507
757,608.9100845633423
758,608.8288181131388
759,608.7267927347443
760,608.6083535331888
761,608.4792670752985
762,608.3461624041555
763,608.21584108849
764,608.0946226790917
765,607.987875990499
766,607.8997995370243
767,607.8334090955237
768,607.7906282766588
769,607.7723851131757
770,607.7786717261966
771,607.8085788054536
772,607.8603372859636
773,607.9313851046301
774,608.0184537679178
775,608.1176638897282
776,608.2246340233745
777,608.3346241868906
778,608.4427341709716
779,608.5441561136201
780,608.6344579887575
781,608.7098641561299
782,608.7675018941007
783,608.8055905295125
784,608.8235533503666
785,608.8220342841462
786,608.8028150577385
787,608.7686553592042
788,608.7230959909886
789,608.6702542277299
790,608.6146119789162
791,608.5607794717369
792,608.5132263715136
793,608.4759991700935
794,608.4524668323539
795,608.4451411676646
796,608.4556002860666
797,608.4845098266848
798,608.5317057913377
799,608.5962933729116
800,608.6767329334098
801,608.7709163688901
802,608.8762603954139
803,608.9898338695073
804,609.108500474465
805,609.2290356245617
806,609.3481935403825
807,609.4627355485945
808,609.5694455090816
809,609.6651507906467
810,609.7467690952809
811,609.8114242157285
812,609.8566830058953
813,609.8809237893869
814,609.8837666086874
815,609.8664359037438
816,609.8319310661262
817,609.7849404467854
818,609.731501866249
819,609.6784525315743
820,609.6327297631266
821,609.600605014209
822,609.5869610149327
823,609.5947314748797
824,609.624591549457
825,609.6749252752105
826,609.7420393859304
827,609.820566511318
828,609.904002494796
829,609.9853326835923
830,610.0577011692176
831,610.1150652306037
832,610.1527718917496
833,610.1680023043181
834,610.1600434675975
835,610.1303609030127
836,610.0824686318771
837,610.0216275848712
838,609.9544347722746
839,609.8883694488992
840,609.831332376934
841,609.7911744881118
842,609.7752005796453
843,609.7896642878978
844,609.8393086879951
845,609.9270098031617
846,610.0535460473477
847,610.2174800269295
848,610.4151292356578
849,610.6406196595319
850,610.8860429865704
851,611.1417536656423
852,611.3968355098662
853,611.6397416898426
854,611.8590780501949
855,612.0444682153776
856,612.1874156424977
857,612.2820651404902
858,612.3257687856769
859,612.3193844946212
860,612.267273908774
861,612.1769994343194
862,612.0587384689757
863,611.9244502395067
864,611.7868585412158
865,611.6583386709619
866,611.5498056262425
867,611.4697050265604
868,611.423221572487
869,611.4118273001733
870,611.4332663782554
871,611.4820072308299
872,611.5501024267415
873,611.6283092082714
874,611.707269611907
875,611.7785546218245
876,611.8354418908037
877,611.8733846077255
878,611.8901927677606
879,611.8859703528132
880,611.8628507134658
881,611.8245700370092
882,611.7759209686791
883,611.7221324023852
884,611.6682291732449
885,611.6184389760352
886,611.5757231442003
887,611.5414972317625
888,611.515574716045
889,611.496327602614
890,611.4810281925851
891,611.4663206781222
892,611.4487602796697
893,611.4253451447606
894,611.3939595903441
895,611.3536570265009
896,611.3047397708127
897,611.2486369733081
898,611.1876293682798
899,611.1244991163671
900,611.0621777177513
901,611.0034340459517
902,610.9506173317992
903,610.9054630880607
904,610.8689734496327
905,610.8413804594326
906,610.8221880979521
907,610.8102762829227
908,610.804047543479
909,610.801601866978
910,610.800927082569
911,610.800089271429
912,610.7974060899415
913,610.7915878213332
914,610.7818376284971
915,610.7679169857105
916,610.7501955598598
917,610.7296961239749
