acceleration,velocity,displacement
0.11214196556549852,0.0,0.0
0.10891731150697913,0.00011052963853623882,5.526481926811941e-08
0.1057654553018431,0.00021787102194064994,2.194651495065638e-07
0.10274898978171676,0.0003221282444824299,4.894647827181037e-07
0.09991262597933637,0.00042345905236295647,8.622584311407969e-07
0.0972797420771873,0.0005220552363912183,1.3350155755178842e-06
0.09485351611367032,0.0006181218654866472,1.9051041264568169e-06
0.09262176538684476,0.0007118595062369047,2.570094812318593e-06
0.09056390999819576,0.0008034523439294249,3.327750737401758e-06
0.08865830257712855,0.0008930634502170871,4.176008634475014e-06
0.08688840379471165,0.0009808368034030072,5.112958761285061e-06
0.08524677656190513,0.0010669043935813156,6.136829359777222e-06
0.08373637439632037,0.0011513959690604284,7.245979541098094e-06
0.08236905005112422,0.0012344486812841506,8.438901866270384e-06
0.08116174435299968,0.0013162140784862126,9.714233246155567e-06
0.08013135902945925,0.0013968606301774421,1.1070770600487395e-05
0.07928956725577868,0.0014765710933200612,1.2507486462236145e-05
0.07863863704410148,0.0015555351954700013,1.4023539606631177e-05
0.07816890462840097,0.0016339389663062526,1.5618276687519303e-05
0.07785809874824383,0.001711952467994575,1.7291222404669718e-05
0.07767244112325238,0.001789717737930323,1.9042057507632166e-05
0.07756933868628953,0.001867338627835094,2.0870585690514874e-05
0.07750141514281474,0.0019448740047496463,2.2776692006807244e-05
0.07742141431048878,0.002022335419476298,2.4760296718920217e-05
0.07728710208181555,0.0020996896776724503,2.6821309267494592e-05
0.07706504448248956,0.002176865750954603,2.895958698180812e-05
0.07673249776877081,0.002253764522080233,3.117490211832553e-05
0.0762774752925481,0.0023302695086108924,3.34669191336711e-05
0.07569766327834053,0.0024062570778963367,3.5835182426924713e-05
0.07499887181214418,0.002481605345441579,3.827911363859367e-05
0.07419342761402073,0.0025562014951546613,4.079801705889179e-05
0.07329870915288024,0.0026299475635381117,4.339109158823818e-05
0.07233587580624411,0.0027027648560176737,4.605744779801607e-05
0.07132864150004113,0.0027745971146708164,4.879612878336032e-05
0.07030182095246641,0.0028454123458970704,5.160613351364426e-05
0.06927949696442139,0.0029152030048555143,5.448644118902055e-05
0.06828292428501007,0.00298398421548023,5.743603479918842e-05
0.06732848935819491,0.003051789922301832,6.045392186807946e-05
0.06642610437953694,0.003118667219170698,6.353915043881572e-05
0.0655783465871303,0.0031846694446540317,6.669081877072808e-05
0.06478047539359351,0.0032498488556443935,6.990807792087729e-05
0.0640212000930534,0.003314249693387717,7.319012719539335e-05
0.06328384847507253,0.00337790221767178,7.65362031509231e-05
0.0625475619135749,0.0034408179228661035,7.994556322119204e-05
0.061788328391826804,0.0035029858680188045,8.341746511663449e-05
0.060979925076123515,0.0035643699947527797,8.695114304802028e-05
0.0600950731321299,0.0036249074938569065,9.054578179232511e-05
0.059107240570703753,0.003684508650708323,9.420048986460773e-05
0.05799342245057631,0.0037430589822189633,9.791427368107137e-05
0.056737785280994935,0.003800424586084749,0.00010168601546522323
0.05533548765317698,0.003856461222551835,0.00010551445836954152
0.053795744328983416,0.003911026838542915,0.0001093982024000889
0.05214352690883197,0.003963996474161823,0.00011333571405644127
0.05041984036117359,0.004015278157796826,0.00011732535137242059
0.04868069946804064,0.004064828427711433,0.00012136540466517472
0.04699463676314388,0.004112666095827025,0.00012545415192694395
0.045438204447700144,0.004158882516432447,0.0001295899262330737
0.044088876267327014,0.004203646056789961,0.00013377119051968488
0.04301517839619758,0.004247198084121723,0.00013799661259014073
0.04226482822538691,0.004289838087432516,0.00014226513067591785
0.04185290806015431,0.0043318969555752864,0.00014657599819742175
0.04175299836258513,0.004373699908786656,0.0001509287966296027
0.041894074137057515,0.0044155234450364775,0.00015532340830651427
0.0421647467720678,0.00445755285549104,0.00015975994645677804
0.042424706697649806,0.004499847582225899,0.0001642386466756365
0.0425217311443551,0.004542320801146901,0.0001687597308673229
0.04231169518986486,0.004584737514314012,0.00017332326002505335
0.04167857136175362,0.004626732647589821,0.00017792899510600527
0.040551320853513435,0.004667847593697454,0.0001825762852266489
0.038914955801742784,0.004707580732025082,0.00018726399938951018
0.03681397255736627,0.004745445196204637,0.00019199051235362503
0.034347682212988104,0.004781026023589814,0.00019675374796352226
0.03165834994569851,0.004814029039669157,0.00020155127549515174
0.02891416199935733,0.004844315295641685,0.00020638044766280715
0.026289689417026967,0.004871917221349877,0.00021123856392130292
0.023946595745258176,0.004897035363931019,0.00021612304021394337
0.02201682259661452,0.0049200170731019555,0.00022103156643245986
0.020589711266411417,0.004941320340033468,0.00022596223513902757
0.0197039652794073,0.004961467178306377,0.00023091362889819748
0.019345111389293217,0.004980991716640727,0.00023588485834567102
0.019448862339548286,0.005000388703505148,0.00024087554855574395
0.01991028006845754,0.005020068274709151,0.0002458857770448511
0.020597864937836545,0.005040322347212298,0.0002509159723558118
0.02137078532557657,0.005061306672344004,0.00025596678686558993
0.022096703149932177,0.005083040416581758,0.0002610389604100528
0.022667400840896218,0.005105422468577173,0.0002661331918526323
0.023009813319415016,0.005128261075657329,0.00027125003362474953
0.02309091879288042,0.005151311441713476,0.00027638981988343495
0.022915970016608608,0.005174314886118221,0.0002815526330473508
0.022520646115312452,0.005197033194184181,0.000286738307087502
0.021958800297754728,0.005219272917390715,0.0002919464601432894
0.021288361183558827,0.005240896498131372,0.00029717654485105047
0.020558325421214784,0.005261819841433759,0.00030242790302083305
0.01979937500443932,0.005281998691646586,0.0003076998122873732
0.019019484927041724,0.005301408121612327,0.0003129915156940027
0.01820457032313414,0.005320020149237415,0.00031830222982942753
0.01732340141506022,0.005337784135106512,0.0003236311319715995
0.01633558522930418,0.005354613628428694,0.0003289773308533671
0.015200952218986642,0.0053703818971528395,0.00033433982861615785
0.013888321929108742,0.0053849265342268875,0.0003397174828318477
0.012381841599940439,0.005398061615991412,0.00034510897690695686
0.010684032312531911,0.005409594552947649,0.0003505128049914264
0.008815941226978303,0.005419344539717404,0.0003559272745377589
0.006815671516958674,0.005427160346089373,0.0003613505269806623
0.0047364788543649535,0.005432936421275034,0.00036678057536434453
0.002644721911383831,0.005436627021657908,0.000372215357085811
0.0006170037644739871,0.005438257884495837,0.0003776527995388879
-0.0012644444530228519,0.005437934164151562,0.00038309089556321164
-0.0029185217550869356,0.005435842681047507,0.00038852778398581117
-0.004273504177872561,0.005432246668081027,0.0003939618286603754
-0.005275308842413043,0.005427472261570884,0.0003993916881252014
-0.0058941877087168556,0.005421887513295319,0.0004048163680126345
-0.006128735236903836,0.005415876051822508,0.0004102352497951934
-0.006006673250548477,0.005409808347578782,0.00041564809199489403
-0.005582294645781179,0.005404013863630618,0.00042105500310049874
-0.004930849201795129,0.005398757291706829,0.0004264563886781675
-0.004140692971675223,0.005394221520620094,0.0004318528780843309
-0.0033044859957966992,0.005390498931136359,0.00043724523831020914
-0.0025107951456686075,0.005387591290565626,0.00044263428342106013
-0.0018371620575603905,0.005385417311964012,0.00044802078772232496
-0.0013452767661852494,0.005383826092552139,0.00045340540942458304
-0.0010784722528250986,0.005382614218042634,0.00045878862957988043
-0.0010613531113170655,0.0053815443053605635,0.000464170708841582
-0.0013010913655578053,0.005380363083122126,0.00046955166253582337
-0.001789813562951359,0.0053788176306578716,0.0004749312528927134
-0.0025074931729548106,0.0053766689772899185,0.0004803089961966873
-0.0034248034221738316,0.005373702828992354,0.00048568418209982844
-0.0045055318170426385,0.005369737661372746,0.000491055902345011
-0.0057084604821891595,0.00536463066522313,0.0004964230865083089
-0.006988989600676571,0.005358281940181697,0.0005017845428110113
-0.008300996317394616,0.005350636947222661,0.0005071390022547135
-0.009599296037798044,0.0053416868010450645,0.0005124851641288474
-0.010842677212591884,0.00533146581441987,0.0005178217404365798
-0.011997105683683127,0.005320045922971732,0.0005231474963052756
-0.01303857931316249,0.005307528080473309,0.0005284612833069981
-0.013955229016535712,0.00529403117630846,0.000533762062935389
-0.014748402746795246,0.005279679360426795,0.0005390489182037566
-0.015432512702606883,0.005264588902702094,0.000544321052335321
-0.016033428258786748,0.0052488559322213975,0.0005495777747527827
-0.01658528253268772,0.00523254657682566,0.0005548184760073063
-0.01712585085908274,0.005215691010129775,0.000560042594800784
-0.017691187612937174,0.005198282490893765,0.0005652495815512958
-0.01831070742276078,0.005180281543375916,0.0005704388635684307
-0.019003863468926088,0.005161624257930073,0.0005756098164690837
-0.019778830971430763,0.005142232910709895,0.0005807617450534037
-0.020632664589141533,0.0051220271629296085,0.0005858938750902235
-0.021551986025894525,0.00510093483762209,0.0005910053560904993
-0.022513527635580042,0.005078902080791353,0.000596095274549706
-0.02348437433094075,0.005055903129808093,0.0006011626771550058
-0.02442211924000768,0.0050319498830226185,0.0006062066036614212
-0.025275364926871217,0.0050071011409391795,0.0006112261291734021
-0.02598517168684894,0.00498147087263232,0.0006162204151801879
-0.026488135095695656,0.004955234219241047,0.0006211887677261246
-0.026721605284993098,0.004928629349050703,0.0006261306995102705
-0.0266310451630482,0.0049019530238266825,0.0006310459906967091
-0.026178752054632368,0.0048755481252178426,0.0006359347412712314
-0.02535235708570019,0.004849782570647676,0.0006407974066191641
-0.024170960175812783,0.00482502091201692,0.0006456348083604965
-0.022686846525921657,0.004801592008666053,0.0006504481148208379
-0.020981708821081746,0.004779757730992551,0.0006552387896906672
-0.019157805726857532,0.004759687973718582,0.0006600085125430228
-0.017325719268101166,0.004741446211221102,0.0006647590796354927
-0.015590875882913535,0.004724987913645595,0.000669492296697926
-0.014040931966607353,0.004710172009720835,0.0006742098766596092
-0.012735815014914165,0.004696783636230074,0.0006789133544825846
-0.011701794661432773,0.004684564831391901,0.0006836040287163956
-0.010930432980894564,0.004673248717570738,0.0006882829354908768
-0.010382558053076401,0.004662592222053752,0.0006929508559606891
-0.0099964803455268,0.004652402702854451,0.0006976083534231431
-0.009698770683805537,0.004642555077339784,0.0007022558323132403
-0.009415545771328892,0.004632997919112217,0.0007068936088114663
-0.009082582748619325,0.004623748854852242,0.0007115219821984486
-0.008653292801642933,0.004614880917077111,0.0007161412970844133
-0.008104072692313932,0.004606502234330133,0.0007207519886601169
-0.007436755004139559,0.004598731820481906,0.0007253546056875229
-0.0066780649329438715,0.004591674410513365,0.0007299498088030206
-0.005876309454420377,0.004585397223319683,0.000734538344619937
-0.005095884917855923,0.0045799111261335445,0.0007391209987946636
-0.004410403400674317,0.0045751579819742795,0.0007436985333487175
-0.003895229218122571,0.004571005165664881,0.000748271614922537
-0.003620115675120474,0.004567247493218259,0.0007528407412519786
-0.00364252439130414,0.0045636161731850465,0.0007574061730851803
-0.004002015956171865,0.0045597939030113084,0.0007619678781232784
-0.004715886443552885,0.004555434951811446,0.0007665254925506898
-0.005776213554107517,0.004550188901812616,0.0007710783044775018
-0.007148670491971478,0.004543726459789577,0.0007756252621583029
-0.008773620359039403,0.004535765314364071,0.0007801650080453798
-0.010569899562891932,0.004526093554403105,0.0007846959374797634
-0.012441270742337956,0.00451458796925049,0.0007892162782415902
-0.014284904517227014,0.004501224881620708,0.0007937241846670258
-0.01600068772070081,0.0044860820855017434,0.0007982178381505871
-0.017499892079115027,0.004469331795601835,0.0008026955450911389
-0.0187119704690703,0.004451225864327743,0.0008071558239211037
-0.019588969156231432,0.004432075394515092,0.0008115974745505251
-0.02010783222435569,0.0044122269938247985,0.0008160196257446951
-0.02027120350960205,0.00439203747595782,0.0008204217579795864
-0.020107062051888072,0.004371848343177075,0.0008248037008891538
-0.01966696871867169,0.004351961327791795,0.0008291656057246383
-0.019022408388242908,0.004332616639238338,0.0008335078947081533
-0.018259097636854762,0.004313975886225789,0.0008378311909708854
-0.01746997099905566,0.004296111351907834,0.0008421362345899522
-0.016748112500226797,0.004279002310158192,0.0008464237914209853
-0.016180706268887124,0.004262537900773635,0.0008506945615264512
-0.015844403557437502,0.004246525345860472,0.0008549490931497683
-0.015801900395738575,0.004230702193883884,0.0008591877069196405
-0.016099330653234344,0.004214751578359398,0.0008634104338057621
-0.0167643012244567,0.004198319762420552,0.0008676169694761521
-0.017804744824530844,0.004181035239396058,0.0008718066469770604
-0.019208879043494012,0.004162528427462045,0.0008759784288104894
-0.020946309117849813,0.004142450833381373,0.0008801309184409111
-0.022969914676017784,0.00412049272148444,0.000884262390218344
-0.025217992990888546,0.004096398767650986,0.0008883708359629117
-0.027616425423040998,0.004069981558444021,0.0008924540261259592
-0.030081240581005014,0.004041132725441998,0.0008965095832679023
-0.03252236899534919,0.004009830920653821,0.0009005350650909502
-0.0348492172997052,0.003976145127506294,0.0009045280531150302
-0.036978029384258385,0.0039402315041643125,0.0009084862414308655
-0.038840242197137026,0.0039023223683736148,0.0009124075183671345
-0.040390484647639995,0.0038627070049512264,0.000916290033053797
-0.04161270248404534,0.003821705411385384,0.0009201322392619652
-0.0425232305525076,0.0037796374448671073,0.0009239329106900915
-0.04317029517940436,0.0037367906820011515,0.0009276911247535257
-0.04363001463100691,0.003693390527095946,0.0009314062153580742
-0.04399930445178367,0.0036495758675545507,0.0009350776985553995
-0.044386370731150385,0.003605383029963084,0.0009387051780041583
-0.04489983642207782,0.0035607399263864695,0.0009422882394823331
-0.04563782744240505,0.003515471094454228,0.0009458263449927534
-0.04667829435791477,0.003469313033554068,0.0009493187370567575
-0.04807150825936283,0.0034219381322454293,0.0009527643626396573
-0.04983534803165833,0.003372984704099919,0.00095616182405783
-0.05195382010637264,0.0033220901200309034,0.0009595093614698953
-0.054379052868409355,0.0032689236835435126,0.0009628048683716826
-0.05703666940890579,0.003213215822404855,0.0009660459381246567
-0.059834050065642956,0.0031547804626675807,0.000969229936267193
-0.06267060362644028,0.0030935281358215392,0.0009723540905664375
-0.06544874973119812,0.00302946845914272,0.0009754155888639196
-0.0680839824684554,0.002962702093042893,0.0009784116741400125
-0.0705123967213317,0.0028934039034479997,0.000981339727138258
-0.07269461762608087,0.0028218003962742935,0.0009841973292881191
-0.07461605728936545,0.0027481450588165706,0.0009869823020156646
-0.07628434685141605,0.00267269485674618,0.000989692721973446
-0.07772523318983857,0.0025956900667255525,0.0009923269144351818
-0.07897817151978694,0.00251733836437074,0.00099488342865073
-0.08009245444423425,0.0024378030513887293,0.0009973609993586096
-0.08112408617214109,0.0023571947810805418,0.0009997584982748442
-0.08213288231981833,0.0022755662968345623,0.0010020748788138018
-0.08317880034293636,0.002192910455503185,0.0010043091171899707
-0.08431666241710312,0.002109162724123165,0.0010064601537797839
-0.08558923955689146,0.002024209773136168,0.0010085268400284136
-0.08701966781404101,0.0019379053194507015,0.0010105078975747072
-0.08860484977977777,0.0018500930606537922,0.0010124018967647595
-0.09031165997450363,0.0017606348057766516,0.0010142072606979748
-0.09207744409010998,0.0016694402537443449,0.0010159222982277353
-0.09381556514103517,0.0015764937491287722,0.0010175452652291719
-0.095425769175384,0.0014818730819705626,0.0010190744486447214
-0.0968080780713358,0.0013857561583472027,0.0010205082632648802
-0.09787789815525744,0.0012884131702339062,0.0010218453479291707
-0.09857939286094138,0.0011901845247258068,0.0010230846467766505
-0.09889434367807459,0.0010914476564562988,0.0010242254628672416
-0.09884474442317014,0.0009925781124056764,0.0010252674757516727
-0.09848878038130093,0.0008939113500034408,0.0010262107204828772
-0.09791115733944468,0.000795711381143068,0.0010270555318484505
-0.09720971073785584,0.0006981509471044177,0.0010278024630125742
-0.09648070190034298,0.0006013057407853183,0.0010284521913565192
-0.09580512551488055,0.0005051628270777065,0.0010290054256404508
-0.09523783813575028,0.0004096413452523911,0.0010294628277266158
-0.09480073687238022,0.00031462205774832584,0.0010298249594281163
-0.09448082746559269,0.00021998127557933938,0.0010300922610947802
-0.09423361281372475,0.00012562405543968067,0.0010302650637602896
-0.09399145034197434,3.1511523861831115e-05,0.0010303436315499404
-0.09367547582464936,-6.232193922148074e-05,0.0010303282263422605
-0.09320890198192722,-0.00015576412812476904,0.0010302191833085875
-0.09252935401634503,-0.0002486332561239052,0.0010300169846164631
-0.09159833582692176,-0.0003406971010455386,0.0010297223194378783
-0.09040662527724663,-0.0004316995815976228,0.0010293361210965567
-0.0889751538455862,-0.0005213904711590391,0.0010288595760701783
-0.08735164570234742,-0.0006095538709330059,0.0010282941038991323
-0.08560385964465358,-0.0006960316236065064,0.0010276413111518624
-0.08381057040689316,-0.0007807388386322798,0.001026902925920743
-0.08205148693700333,-0.0008636698673042281,0.0010260807215677747
-0.08039728856767522,-0.0009448942550565674,0.0010251764395065944
-0.0789008633079769,-0.0010245433309943935,0.001024191720713569
-0.0775905314729461,-0.001102789028384855,0.0010231280545338793
-0.07646565714238104,-0.0011798171226925186,0.0010219867514583406
-0.07549496731605894,-0.0012557974349217385,0.0010207689441795334
-0.0746181806900182,-0.0013308540089247772,0.0010194756184576101
-0.0737516873884615,-0.001405038942964017,0.0010181076719816657
-0.07279848195425806,-0.0014783140276353767,0.001016665995496366
-0.07166139101493549,-0.0015505439641199735,0.0010151515665004884
-0.07025747069324655,-0.0016215033949740646,0.0010135655428209413
-0.06853094437004746,-0.0016908976025057116,0.0010119093423222015
-0.0664624330583495,-0.00175839429121991,0.0010101846963753386
-0.06407317101930513,-0.0018236620932587373,0.0010083936681830994
-0.06142390900989123,-0.0018864106332733355,0.0010065386318198334
-0.05860904742792268,-0.0019464271114922424,0.0010046222129474506
-0.055747175392557705,-0.002003605222902483,0.0010026471967802533
-0.052969575306521494,-0.0020579635982520225,0.0010006164123696761
-0.05040833007430569,-0.0021096525509424363,0.000998532604295079
-0.048185430952385776,-0.002158949431455782,0.0009963983033038797
-0.046403783410382766,-0.0022062440386371664,0.0009942157065688333
-0.04514042186694036,-0.0022520161412758278,0.0009919865764788768
-0.0444418538671192,-0.0022968072791428574,0.0009897121647686675
-0.04432146386066428,-0.0023411889380067492,0.0009873931666600927
-0.044759198738412,-0.0023857292693062874,0.000985029707556436
-0.04570392232042497,-0.002430960829835706,0.0009826213625068652
-0.04707857075031488,-0.002477352076371076,0.0009801672060537618
-0.04878768986012765,-0.0025252852066762975,0.000977665887412238
-0.05072644472691998,-0.0025750422739698213,0.000975115723671915
-0.05278996616440814,-0.0026268004794154855,0.0009725148022952223
