frame_number,force
0,594.7814300000156
1,594.3680589478653
2,593.9774790186675
3,593.6305153540013
4,593.3442823055873
5,593.1308335702082
6,592.9963145780971
7,592.9406657351257
8,592.9578821258991
9,593.0367997825086
10,593.1623354390435
11,593.3170514819989
12,593.482867768846
13,593.6427210312968
14,593.7819914135926
15,593.8895678253833
16,593.9584898321468
17,593.9861594315038
18,593.9741470361022
19,593.9276301241259
20,593.8545224968049
21,593.7643882655337
22,593.6672717873798
23,593.5725852614547
24,593.4881718895513
25,593.4196237728497
26,593.3699012895148
27,593.3392738207752
28,593.3255657974804
29,593.3246486683827
30,593.3310919753567
31,593.3388879142408
32,593.3421775429105
33,593.335914064352
34,593.316399100783
35,593.2816326444015
36,593.2314387472934
37,593.1673713000379
38,593.0924502104111
39,593.0107984750657
40,592.9272334661589
41,592.8468286042892
42,592.7744374537517
43,592.7141885693326
44,592.6690119310805
45,592.6403042589762
46,592.6278368177808
47,592.6299497720462
48,592.6439921775292
49,592.6668946990429
50,592.6957308069658
51,592.7281410786944
52,592.7625506258239
53,592.7981714500644
54,592.8348262452424
55,592.8726552034151
56,592.9117794909312
57,592.9519962085868
58,592.9925678695721
59,593.0321436650571
60,593.0688149628237
61,593.1002771104293
62,593.1240539645512
63,593.1377363978555
64,593.1391847379323
65,593.1266540214702
66,593.0988308400484
67,593.054816223237
68,592.994122997425
69,592.9167485338644
70,592.8233332375528
71,592.7153538449867
72,592.5952689679183
73,592.4665506729744
74,592.3335824052137
75,592.201442402919
76,592.0756026909498
77,591.9615680305768
78,591.8644764168164
79,591.7886914861733
80,591.7374344459763
81,591.7125142076679
82,591.7142024715998
83,591.7412668350652
84,591.7911406030333
85,591.8601934757061
86,591.9440741402739
87,592.0381035524794
88,592.1376867059317
89,592.2386908146779
90,592.3377375902357
91,592.432384076023
92,592.5211978626754
93,592.6037451922281
94,592.6805029369376
95,592.7526936529904
96,592.8220415284567
97,592.8904579057152
98,592.9596827614799
99,593.030927516521
100,593.104577098103
101,593.1800075843717
102,593.2555600774939
103,593.3286871192191
104,593.3962577349387
105,593.4549727231147
106,593.501809941159
107,593.5344040121031
108,593.5512833755865
109,593.5519448003633
110,593.5368147971037
111,593.507182256547
112,593.4651635608711
113,593.4137017917116
114,593.3565454889432
115,593.298124300967
116,593.2432453621534
117,593.1965776651872
118,593.1619692843817
119,593.1417315933688
120,593.1360830675928
121,593.1429356972806
122,593.1581238564374
123,593.1760475204151
124,593.1905805308053
125,593.196034168899
126,593.1879888890079
127,593.1638832867939
128,593.1233246313648
129,593.0681263435525
130,593.0020901521112
131,592.9305572145823
132,592.8597655435389
133,592.7960693070378
134,592.7450988314404
135,592.7109708787841
136,592.6956861088781
137,592.6988459768769
138,592.7177624787638
139,592.747936285118
140,592.7837919227248
141,592.8195233755091
142,592.8499150013984
143,592.8710300486906
144,592.8806880703634
145,592.8786909136533
146,592.8668053657981
147,592.8485488086397
148,592.8288311064736
149,592.8134858203113
150,592.8087058627336
151,592.8204059355179
152,592.8535614738646
153,592.9115996358753
154,592.995925171828
155,593.1056477376743
156,593.2375441463608
157,593.386256076692
158,593.5447051343373
159,593.7046997144154
160,593.8576965296207
161,593.9956543545306
162,594.1118837587317
163,594.2017732480274
164,594.2632814393214
165,594.2971325927989
166,594.3067166570761
167,594.2977359517804
168,594.2776374847739
169,594.2548482494636
170,594.2378409262615
171,594.234113491643
172,594.2492285126849
173,594.2860786455205
174,594.3445097774988
175,594.4213602464866
176,594.5108950138416
177,594.6055532419555
178,594.6968924847341
179,594.7765947614389
180,594.837394778364
181,594.8738051076045
182,594.882558521151
183,594.8627595775604
184,594.815799908714
185,594.7451054185169
186,594.6557572276822
187,594.5540097356744
188,594.4467440318645
189,594.3409186198779
190,594.2430763163363
191,594.1589344215241
192,594.0930539082376
193,594.0485741610996
194,594.0270074666223
195,594.0280972073509
196,594.0497495535554
197,594.0880510445788
198,594.137387015227
199,594.1906836872981
200,594.2398076277268
201,594.2761518474958
202,594.2914000725652
203,594.2783991053033
204,594.2320167434068
205,594.1498423097814
206,594.0325984346504
207,593.884173180545
208,593.711250495306
209,593.5225983984319
210,593.3281365783012
211,593.1379268533237
212,592.961216090463
213,592.8056312463698
214,592.676595564756
215,592.5770080145833
216,592.5072003512565
217,592.46515146421
218,592.4469026449746
219,592.4470996203218
220,592.4595969312866
221,592.4780806872776
222,592.4966742796729
223,592.5104841661597
224,592.5160309333065
225,592.5115079017203
226,592.4968238558106
227,592.473418576795
228,592.4438821818587
229,592.4114495461889
230,592.3794650282707
231,592.350908138773
232,592.3280392703306
233,592.312185937312
234,592.3036618075505
235,592.3017916892959
236,592.3050029685426
237,592.3109487829679
238,592.3166517930075
239,592.3186785202822
240,592.3133588626969
241,592.2970649719101
242,592.2665668340006
243,592.2194719984337
244,592.1547188368907
245,592.0730430877568
246,591.9773067843289
247,591.8725805411124
248,591.7659029098974
249,591.6657003065452
250,591.5809282128079
251,591.5200659106371
252,591.4901338392332
253,591.4958897976295
254,591.5393097896149
255,591.6193989838112
256,591.732325975303
257,591.8718289857779
258,592.0298045992354
259,592.1969729432784
260,592.3635354352797
261,592.519792206383
262,592.656729407804
263,592.7665956273174
264,592.8434656608157
265,592.8837550451827
266,592.8866133990093
267,592.8541066343017
268,592.7911162953123
269,592.7049369245702
270,592.6046161285691
271,592.5001322113894
272,592.4015242598897
273,592.3180753117639
274,592.2576183678334
275,592.2260147163377
276,592.2268495426833
277,592.2613799307534
278,592.3287371093961
279,592.4263332984419
280,592.5503759318702
281,592.696374261383
282,592.8595495807675
283,593.0351176774243
284,593.218466002194
285,593.4052687276723
286,593.591564176976
287,593.7737796769172
288,593.9486651255502
289,594.1131216140649
290,594.2639824925591
291,594.3978711233735
292,594.5112591751395
293,594.6007646647497
294,594.66361442151
295,594.6981301449512
296,594.704110479889
297,594.6830399138554
298,594.6381095559726
299,594.5740594684237
300,594.496851923889
301,594.4131852778697
302,594.3298815914575
303,594.2532235518172
304,594.188349945606
305,594.1388163475602
306,594.1063822926405
307,594.0910187109015
308,594.0910744055782
309,594.1035229317147
310,594.1242314420764
311,594.1482306405456
312,594.1699986611252
313,594.183788580227
314,594.1840210813684
315,594.1657320163977
316,594.1250276414594
317,594.0594805759239
318,593.9684041744833
319,593.8529621909946
320,593.7160917686299
321,593.5622388206475
322,593.3969312526212
323,593.2262453157391
324,593.0562400786586
325,592.892431691192
326,592.7393555786731
327,592.6002425950796
328,592.4768344132076
329,592.3693746549802
330,592.2768038783446
331,592.1971425145115
332,592.1279844329025
333,592.0669808300705
334,592.0121972029516
335,591.962278187098
336,591.9164309438752
337,591.8742996527229
338,591.8358254987111
339,591.801165674765
340,591.770695967966
341,591.7450676106506
342,591.7252563930576
343,591.7125491289788
344,591.708452457626
345,591.7145480332169
346,591.7323281922293
347,591.763030477857
348,591.807469197471
349,591.8658547464906
350,591.9376032183932
351,592.0211616020875
352,592.113891764254
353,592.2120620317564
354,592.3109861799132
355,592.4053207210071
356,592.4894881169553
357,592.5581586251315
358,592.606716716658
359,592.6316577512513
360,592.6308852911388
361,592.6038872801762
362,592.5517630261093
363,592.4770783952201
364,592.3835600981098
365,592.2756879260106
366,592.1582793181129
367,592.0361637246361
368,591.91400800902
369,591.7962926143431
370,591.6873845940153
371,591.5916310455152
372,591.513398859477
373,591.4570012314822
374,591.4264801052276
375,591.4252555709378
376,591.4556893957501
377,591.5186273322245
378,591.6129935159828
379,591.7355203899664
380,591.8806985578598
381,592.0410048580525
382,592.2074137425651
383,592.3701376890496
384,592.5194996176787
385,592.6468225933332
386,592.7452259194844
387,592.8102366214174
388,592.8401556467846
389,592.8361494702456
390,592.8020621178904
391,592.7439631660285
392,592.6694747455299
393,592.5869556850813
394,592.5046475379224
395,592.4298900906442
396,592.368497357653
397,592.324363756193
398,592.299345783958
399,592.2934252944441
400,592.3051068655722
401,592.33195859706
402,592.3711951644623
403,592.4202141301666
404,592.4770056017014
405,592.5403605419217
406,592.6098330479502
407,592.6854824681379
408,592.7674977497263
409,592.8558290112305
410,592.9499046517434
411,593.0484466232377
412,593.1493672687468
413,593.2497438823715
414,593.3458907625271
415,593.4335551578409
416,593.5082460393045
417,593.5656731752761
418,593.6022441800881
419,593.6155484936957
420,593.6047503928698
421,593.5708181908713
422,593.516537664659
423,593.4462944008615
424,593.3656525177383
425,593.2807937251577
426,593.1979031772055
427,593.1225953263533
428,593.0594654740999
429,593.0118280340014
430,592.981654777923
431,592.9696659135799
432,592.9754872489707
433,592.997794257045
434,593.034408913645
435,593.0823665249359
436,593.1380030824266
437,593.1971166714565
438,593.2552279789203
439,593.3079215305142
440,593.351216164751
441,593.3819038567595
442,593.3978086671883
443,593.3979420226815
444,593.3825513914974
445,593.3530687907592
446,593.3119707651537
447,593.2625704659952
448,593.2087721721429
449,593.1548199260743
450,593.105056292182
451,593.0636773080965
452,593.0344492889027
453,593.0203695034351
454,593.0233042542035
455,593.043687721362
456,593.0803709485081
457,593.1306665570836
458,593.1905787210978
459,593.2551774177026
460,593.319071928781
461,593.3769406639971
462,593.424070927522
463,593.4568542421733
464,593.4731783710808
465,593.4726684269534
466,593.4567593462995
467,593.4286111467612
468,593.3928812829137
469,593.3553479663325
470,593.3223708133578
471,593.3002104649514
472,593.2942904385887
473,593.3085219590365
474,593.3447959159279
475,593.4026956336002
476,593.4794412530487
477,593.5700601958674
478,593.6677766718242
479,593.7646066828129
480,593.8521256428904
481,593.9223487618071
482,593.9686387966988
483,593.9865363844062
484,593.9743934229574
485,593.9336842359545
486,593.8688941606435
487,593.786958202272
488,593.6963235938566
489,593.6057945203868
490,593.5233568511553
491,593.4551754131187
492,593.4049171757946
493,593.3734915154242
494,593.3592217151744
495,593.358380282607
496,593.3659524022288
497,593.3764574434094
498,593.3846723974934
499,593.3861632706198
500,593.3776128806326
501,593.3569859452667
502,593.3235660248307
503,593.2778623784404
504,593.2213728559586
505,593.1562190144554
506,593.0847122562137
507,593.0089339785294
508,592.930414182845
509,592.8499790869215
510,592.7678076999725
511,592.6836854033058
512,592.5973830368949
513,592.5090565453219
514,592.4195745467251
515,592.3307192411821
516,592.2452359350092
517,592.1667195857231
518,592.099337510441
519,592.0474056883193
520,592.0148585897637
521,592.0046724697947
522,592.0183166958394
523,592.0553159617127
524,592.1130046200528
525,592.1865370677348
526,592.2691835081093
527,592.3528964313304
528,592.4290933628779
529,592.4895729372514
530,592.5274591622739
531,592.53804825123
532,592.5194246376049
533,592.4727364598396
534,592.4020790958402
535,592.3140071959992
536,592.2167509233412
537,592.1192381420886
538,592.0300385335555
539,591.956369485376
540,591.9033235542073
541,591.8734544967526
542,591.8667821240394
543,591.8811795627336
544,591.9130304913926
545,591.9580046691683
546,592.0117954286397
547,592.0706870775181
548,592.1318684367727
549,592.1934721338408
550,592.2543812198721
551,592.3138892987704
552,592.3713214579071
553,592.4257211970718
554,592.4756858366713
555,592.5193958514703
556,592.5548409545218
557,592.5802043315979
558,592.5943297994751
559,592.5971668265257
560,592.5900698103362
561,592.5758346880697
562,592.5584068901563
563,592.5422897836197
564,592.5317867557832
565,592.5302707172734
566,592.5396591938561
567,592.5601916131044
568,592.5905065345848
569,592.6279502934794
570,592.6690257018876
571,592.7098887778811
572,592.746808378961
573,592.7765176898603
574,592.7964056288246
575,592.8045218184947
576,592.7994105740298
577,592.7798457974789
578,592.7445843264452
579,592.692257285351
580,592.6214662032763
581,592.5310700122922
582,592.4205871246951
583,592.2906180236181
584,592.1432049865018
585,591.9820639616819
586,591.812640751835
587,591.6419594805741
588,591.4782499574476
589,591.3303712438087
590,591.2070886937511
591,591.1162874270004
592,591.064202115705
593,591.0547306273072
594,591.0889035093411
595,591.1645961913541
596,591.2765670976181
597,591.4168679036318
598,591.5756104343844
599,591.7420034098552
600,591.9055072254246
601,592.0569164102038
602,592.1891839957846
603,592.2978526857145
604,592.381047455002
605,592.4390942302857
606,592.4739173868436
607,592.4883904444041
608,592.485768779119
609,592.4692626271911
610,592.441751985425
611,592.4056172097805
612,592.362660770487
613,592.3141109385963
614,592.2606999052459
615,592.2027915365203
616,592.140524114616
617,592.0739495171633
618,592.0031767427612
619,591.9285380568094
620,591.8507796354146
621,591.7712445202649
622,591.6919884560425
623,591.6157721594317
624,591.545906148808
625,591.4859654888004
626,591.4394249713242
627,591.4092845141448
628,591.3977552450034
629,591.4060554837477
630,591.4343291434859
631,591.4816649627332
632,591.5461807417025
633,591.6251446604259
634,591.7151263787521
635,591.8121917543369
636,591.9121594782931
637,592.0109140562295
638,592.1047340083173
639,592.190580014317
640,592.2663042041489
641,592.3307656654757
642,592.3838459339995
643,592.4263552514086
644,592.4598241194155
645,592.4861971986634
646,592.5074879635937
647,592.5254948759077
648,592.5416838441787
649,592.5572801168782
650,592.5735145302583
651,592.591900986099
652,592.6144198312753
653,592.6435235669716
654,592.6819313303894
655,592.7322287846752
656,592.796344480681
657,592.8750157634161
658,592.9673619034058
659,593.0706548030334
660,593.1803488685484
661,593.2904108056343
662,593.3939548388205
663,593.4841242116138
664,593.5550825905979
665,593.6029231781872
666,593.6262995160938
667,593.6266423395092
668,593.6079309999076
669,593.5760903194792
670,593.5381495005553
671,593.5013252835946
672,593.4721841814195
673,593.4559991780945
674,593.4563535585752
675,593.4749826884172
676,593.5118049359478
677,593.5650840433652
678,593.6316849852817
679,593.7074126721394
680,593.787423858173
681,593.8666710665332
682,593.9403111428165
683,594.004024670717
684,594.0542333958552
685,594.088235114339
686,594.1042851100796
687,594.101649203054
688,594.0806425474653
689,594.0426496981602
690,593.9900987588577
691,593.9263485468359
692,593.8554579278009
693,593.7818420982901
694,593.7098605057826
695,593.6434015423356
696,593.5855259550376
697,593.5382129600413
698,593.5022294737529
699,593.4771231706154
700,593.4613302210969
701,593.4523845544411
702,593.4472098118596
703,593.4424672229579
704,593.4349278846513
705,593.4218383573111
706,593.4012491611524
707,593.3722737577923
708,593.3352457454138
709,593.2917473708777
710,593.2444919693778
711,593.1970626278514
712,593.1535432934917
713,593.1181063783503
714,593.0946146999868
715,593.0862605845044
716,593.0952379936332
717,593.1224511872053
718,593.1672972406494
719,593.227588004042
720,593.2996715325964
721,593.3787709287523
722,593.4595032102037
723,593.5364976796885
724,593.605012611783
725,593.6614504415155
726,593.7036901928752
727,593.7311876860895
728,593.7448417449281
729,593.7466843358274
730,593.7394962154708
731,593.7264461790662
732,593.7108099208212
733,593.6957845716886
734,593.6843951473714
735,593.6794697701836
736,593.6836309933417
737,593.6992356231788
738,593.7282201230688
739,593.7718602173522
740,593.8304950984711
741,593.90327923457
742,593.9880197525132
743,594.0811545803955
744,594.1779243771995
745,594.2727648387001
746,594.3598837712376
747,594.4339202383225
748,594.4905559389895
749,594.5269729251471
750,594.5421024668366
751,594.5366587694406
752,594.5129819720516
753,594.4747211100937
754,594.4263766780854
755,594.3727202406391
756,594.318140390096
757,594.2660206049587
758,594.2182910995001
759,594.1752738360177
760,594.1358572726059
761,594.0979361280097
762,594.0589821171626
763,594.0165974412705
764,593.9689335670615
765,593.9149134796019
766,593.854260766077
767,593.787395521763
768,593.7152818425362
769,593.6392912089055
770,593.5610951389934
771,593.4825584429115
772,593.4055990574722
773,593.3320002446544
774,593.2631793256498
775,593.199929948665
776,593.1421745801199
777,593.0887897781927
778,593.0375782154847
779,592.9854391015067
780,592.9287368260782
781,592.8638129313792
782,592.787556632006
783,592.6979518484216
784,592.594536285972
785,592.4787138138063
786,592.3538512635504
787,592.2250925818545
788,592.0988643963788
789,591.9821217124281
790,591.8814558184757
791,591.8022207927805
792,591.7478148693624
793,591.7191987168326
794,591.7146866927557
795,591.7300342208797
796,591.7588463109172
797,591.7933082616779
798,591.8251721123994
799,591.8468477258873
800,591.8523962120905
801,591.838242312946
802,591.8035039038205
803,591.7499313456067
804,591.6815060043368
805,591.6037582274628
806,591.5228681888266
807,591.4446483470274
808,591.3735686971921
809,591.3120225152549
810,591.2599940882793
811,591.2151913222723
812,591.1735976949707
813,591.1303209199959
814,591.0805765354042
815,591.0206338465132
816,590.9485648791939
817,590.8646796638692
818,590.7716052991481
819,590.6740498895382
820,590.578347250485
821,590.4918856497661
822,590.4224963539089
823,590.3778397168575
824,590.3648025610381
825,590.3889243010871
826,590.4538869126712
827,590.5611093615667
828,590.7094765736041
829,590.895222621412
830,591.1119849049074
831,591.3510437043429
832,591.6017531657852
833,591.8521576270641
834,592.0897773501019
835,592.3025376806321
836,592.4797903544104
837,592.6133270784615
838,592.6982346516817
839,592.7334314067291
840,592.7217845662257
841,592.669812512268
842,592.587062187228
843,592.4852803060922
844,592.3774828568751
845,592.277003245285
846,592.1965751823125
847,592.1474814423991
848,592.1387852105041
849,592.1766673290791
850,592.2639153561606
851,592.3996330678405
852,592.5792404391018
853,592.7948006424663
854,593.035655527315
855,593.2893036146447
856,593.5424278421464
857,593.7819651804682
858,593.9961017471428
859,594.1750893333499
860,594.3118245261043
861,594.4021912292944
862,594.4452003745637
863,594.4429447078608
864,594.4003450477447
865,594.3246481329473
866,594.2246758420339
867,594.109901824861
868,593.9894949125344
869,593.8714861535574
870,593.7621900497816
871,593.6659547716073
872,593.585240118096
873,593.5209443784089
874,593.4728546292089
875,593.4400977424297
876,593.4215086573081
877,593.4158810427564
878,593.4220999432745
879,593.4391655986972
880,593.4661123523642
881,593.5018287497495
882,593.544805475662
883,593.5928690854579
884,593.6429863762382
885,593.6912292401149
886,593.7329580019443
887,593.7632167425064
888,593.7772665903907
889,593.7711455061324
890,593.7421484300392
891,593.6891601803916
892,593.612819825023
893,593.5155218562236
894,593.4012610578761
895,593.2753259844758
896,593.1438604322499
897,593.0133387996143
898,592.8900181070254
899,592.7794214459609
900,592.685885196267
901,592.6121911183271
902,592.5593126474189
903,592.5263158429395
904,592.5104512341236
905,592.5074483998842
906,592.511987944384
907,592.5182893246374
908,592.5207288887237
909,592.5143973326567
910,592.4955266515863
911,592.4617599872589
912,592.4122771115188
913,592.3477980191235
914,592.2704750582517
915,592.1836766067361
916,592.0916719547757
917,591.9992423252995
