frame_number,force
0,875.6032800092995
1,875.5597620661265
2,875.5164206917121
3,875.4734309414805
4,875.4309648718661
5,875.3891901071195
6,875.3482684794227
7,875.3083547599659
8,875.2695954963374
9,875.2321279689994
10,875.196079275825
11,875.1615655490507
12,875.1286913047676
13,875.09754892202
14,875.0682182463582
15,875.0407663107195
16,875.0152471649582
17,874.9917018048309
18,874.9701581917533
19,874.9506313555156
20,874.9331235725678
21,874.9176246122124
22,874.9041120424828
23,874.8925515875543
24,874.8828975298366
25,874.8750931520823
26,874.8690712171416
27,874.8647544851074
28,874.8620562695999
29,874.8608810365879
30,874.8611250498436
31,874.8626770666692
32,874.8654190862466
33,874.8692271512465
34,874.8739722012307
35,874.8795209739128
36,874.8857369479382
37,874.8924813192525
38,874.8996140027405
39,874.9069946512462
40,874.9144836845346
41,874.9219433206003
42,874.9292386008224
43,874.9362383989027
44,874.9428164017514
45,874.9488520491537
46,874.954231418783
47,874.9588480441456
48,874.9626036551474
49,874.9654088336114
50,874.9671835785786
51,874.9678577782105
52,874.96737158651
53,874.9656757038765
54,874.9627315609056
55,874.9585114053133
56,874.9529982929796
57,874.9461859860344
58,874.9380787632974
59,874.9286911504994
60,874.9180475788372
61,874.9061819805281
62,874.8931373296066
63,874.8789651356838
64,874.863724898003
65,874.8474835274242
66,874.8303147451161
67,874.8122984679187
68,874.793520190399
69,874.7740703722371
70,874.7540438371122
71,874.7335391862464
72,874.7126582267846
73,874.691505413022
74,874.6701872979108
75,874.6488119933131
76,874.627488639106
77,874.6063268823517
78,874.5854363679773
79,874.5649262421007
80,874.5449046687891
81,874.5254783610225
82,874.5067521272421
83,874.4888284359571
84,874.4718070019632
85,874.4557843983084
86,874.440853698105
87,874.4271041495845
88,874.4146208866007
89,874.403484675452
90,874.3937716976653
91,874.3855533672963
92,874.3788961806878
93,874.3738615968757
94,874.3705059478467
95,874.3688803788797
96,874.369030819536
97,874.3709979853082
98,874.3748174088988
99,874.380519499259
100,874.3881296261055
101,874.3976682271434
102,874.4091509341237
103,874.4225887125203
104,874.437988008955
105,874.4553509008405
106,874.4746752436554
107,874.495954812341
108,874.519179434345
109,874.5443351126845
110,874.5714041380262
111,874.6003651892644
112,874.6311934221886
113,874.6638605454176
114,874.6983348823446
115,874.7345814182971
116,874.7725618335485
117,874.8122345244468
118,874.8535546159293
119,874.8964739689188
120,874.9409411857762
121,874.9869016163362
122,875.034297366424
123,875.0830673105229
124,875.1331471105711
125,875.1844692432156
126,875.2369630377533
127,875.2905547265226
128,875.3451675092915
129,875.4007216336582
130,875.4571344943494
131,875.5143207547804
132,875.5721924936165
133,875.630659377516
134,875.6896288598538
135,875.7490064049247
136,875.8086957376079
137,875.8685991186642
138,875.928617645592
139,875.9886515792566
140,876.0486006978335
141,876.1083646809898
142,876.1678435274566
143,876.2269380078919
144,876.2855501525084
145,876.3435837698428
146,876.4009449900038
147,876.4575428234546
148,876.5132897250897
149,876.568102152816
150,876.6219011096714
151,876.6746126584089
152,876.7261683972436
153,876.7765058852567
154,876.8255690062546
155,876.8733082613454
156,876.9196809833622
157,876.9646514699305
158,877.0081910355262
159,877.0502779857852
160,877.0908975195001
161,877.1300415650162
162,877.1677085579682
163,877.2039031667673
164,877.2386359715483
165,877.2719231019745
166,877.3037858396667
167,877.3342501920714
168,877.3633464456907
169,877.3911087070219
170,877.4175744391611
171,877.4427840012266
172,877.4667801968025
173,877.4896078362123
174,877.511313315373
175,877.531944211481
176,877.5515488933414
177,877.5701761422526
178,877.5878747784307
179,877.6046932882656
180,877.6206794490314
181,877.6358799494718
182,877.6503400064893
183,877.6641029797503
184,877.6772099873851
185,877.6896995273969
186,877.7016071113911
187,877.7129649198725
188,877.7238014907505
189,877.7341414533646
190,877.744005318558
191,877.7534093319412
192,877.7623653940282
193,877.7708810481453
194,877.7789595348412
195,877.786599909808
196,877.7937972209753
197,877.8005427394521
198,877.8068242383738
199,877.8126263133436
200,877.8179307378948
201,877.8227168472456
202,877.8269619439164
203,877.8306417195547
204,877.8337306880422
205,877.836202625093
206,877.8380310092165
207,877.8391894587392
208,877.8396521597288
209,877.8393942798132
210,877.8383923628732
211,877.836624699828
212,877.8340716715488
213,877.830716060868
214,877.8265433309758
215,877.8215418673009
216,877.8157031801
217,877.809022065912
218,877.8014967274152
219,877.7931288524372
220,877.7839236535975
221,877.7738898704038
222,877.7630397357875
223,877.7513889090809
224,877.7389563773825
225,877.7257643273559
226,877.7118379900301
227,877.6972054619431
228,877.6818975064199
229,877.6659473385033
230,877.6493903963757
231,877.6322641013592
232,877.6146076078678
233,877.5964615440653
234,877.5778677435677
235,877.5588689680858
236,877.5395086200537
237,877.5198304433881
238,877.4998782102238
239,877.4796953917842
240,877.4593248121645
241,877.4388082849832
242,877.418186234934
243,877.3974973089904
244,877.3767779846047
245,877.3560621840586
246,877.3353809050061
247,877.3147618773843
248,877.2942292564878
249,877.2738033612618
250,877.2535004657283
251,877.2333326496321
252,877.2133077116724
253,877.1934291455822
254,877.1736961769438
255,877.1541038575904
256,877.1346432141914
257,877.1153014473581
258,877.0960621771062
259,877.0769057303509
260,877.0578094666761
261,877.0387481397368
262,877.0196942926838
263,877.0006186865254
264,876.9814907602807
265,876.9622791212261
266,876.9429520625093
267,876.9234781039736
268,876.903826550524
269,876.8839680611643
270,876.8638752210329
271,876.8435231081954
272,876.8228898465014
273,876.8019571355474
274,876.7807107489624
275,876.7591409929855
276,876.7372431184847
277,876.7150176808848
278,876.6924708437556
279,876.6696146230934
280,876.6464670704732
281,876.6230523938758
282,876.5994010149503
283,876.5755495612883
284,876.5515407925308
285,876.5274234598702
286,876.5032520994371
287,876.4790867612364
288,876.4549926768108
289,876.4310398702531
290,876.4073027179086
291,876.3838594618744
292,876.3607916817903
293,876.3381837291626
294,876.3161221287495
295,876.2946949518017
296,876.2739911658084
297,876.2540999649833
298,876.2351100852586
299,876.2171091069555
300,876.200182747366
301,876.1844141444826
302,876.1698831327901
303,876.1566655129494
304,876.1448323191252
305,876.1344490898131
306,876.1255751496511
307,876.1182629108515
308,876.1125572040344
309,876.1084946496843
310,876.1061030827921
311,876.1054010438427
312,876.1063973488875
313,876.1090907499961
314,876.113469695032
315,876.1195121928688
316,876.1271857873437
317,876.136447640527
318,876.1472447231575
319,876.159514107539
320,876.1731833560733
321,876.1881709971325
322,876.2043870792635
323,876.22173379475
324,876.2401061641903
325,876.2593927748752
326,876.2794765669806
327,876.3002356621125
328,876.3215442280359
329,876.3432733718182
330,876.3652920520992
331,876.3874680004811
332,876.4096686422589
333,876.4317620074326
334,876.45361762353
335,876.4751073819629
336,876.496106369693
337,876.5164936583069
338,876.536153043431
339,876.5549737288478
340,876.5728509515573
341,876.58968654599
342,876.6053894471403
343,876.6198761331748
344,876.633071008068
345,876.6449067243566
346,876.6553244457712
347,876.6642740497717
348,876.6717142708949
349,876.6776127866398
350,876.6819462476418
351,876.6847002533013
352,876.6858692737944
353,876.6854565200214
354,876.6834737640668
355,876.6799411132288
356,876.6748867402202
357,876.6683465708585
358,876.660363928888
359,876.6509891359397
360,876.6402790635694
361,876.6282966346123
362,876.6151102733276
363,876.6007933074729
364,876.5854233288353
365,876.5690815206447
366,876.5518519610197
367,876.5338209122745
368,876.5150761068628
369,876.4957060412569
370,876.4757992884602
371,876.4554438383828
372,876.4347264735851
373,876.4137321861275
374,876.3925436394538
375,876.3712406775963
376,876.349899882852
377,876.3285941823509
378,876.3073925033071
379,876.286359476162
380,876.2655551844916
381,876.2450349606049
382,876.2248492261699
383,876.2050433776335
384,876.1856577163112
385,876.1667274227754
386,876.148282574459
387,876.1303482041243
388,876.1129443956182
389,876.0960864131903
390,876.0797848618348
391,876.0640458777158
392,876.0488713485305
393,876.0342591631371
394,876.0202034884468
395,876.0066950705075
396,875.993721556284
397,875.9812678324689
398,875.969316377433
399,875.9578476222671
400,875.9468403166891
401,875.936271895149
402,875.9261188380539
403,875.9163570231163
404,875.906962062268
405,875.8979096197015
406,875.8891757063425
407,875.8807369461526
408,875.8725708108972
409,875.8646558222066
410,875.8569717219568
411,875.8494996133329
412,875.842222075301
413,875.8351232530731
414,875.8281889271564
415,875.8214065642022
416,875.8147653540644
417,875.8082562386965
418,875.8018719389611
419,875.7956069845771
420,875.789457750202
421,875.7834224973549
422,875.7775014181168
423,875.7716966732929
424,875.7660124159188
425,875.7604547909748
426,875.7550319036541
427,875.749753751202
428,875.7446321167929
429,875.7396804270492
430,875.7349135765231
431,875.7303477227683
432,875.7260000555115
433,875.7218885437329
434,875.7180316653487
435,875.7144481252731
436,875.7111565682461
437,875.7081752925257
438,875.7055219696651
439,875.7032133747813
440,875.7012651313106
441,875.699691474076
442,875.6985050341375
443,875.6977166481103
444,875.6973351935062
445,875.6973674506318
446,875.6978179910902
447,875.6986890930298
448,875.6999806834926
449,875.7016903080201
450,875.7038131268458
451,875.7063419357884
452,875.7092672088244
453,875.712577158694
454,875.7162578118961
455,875.7202930949841
456,875.724664929997
457,875.7293533379353
458,875.7343365501524
459,875.7395911279556
460,875.7450920901472
461,875.7508130467627
462,875.756726335803
463,875.7628031591908
464,875.7690137144576
465,875.7753273193856
466,875.7817125279598
467,875.7881372374808
468,875.7945687879937
469,875.8009740557296
470,875.807319541777
471,875.8135714559154
472,875.8196957941102
473,875.8256584075326
474,875.8314250613222
475,875.8369614817556
476,875.8422333903075
477,875.8472065228352
478,875.8518466327071
479,875.8561194782758
480,875.8599907972274
481,875.8634262725317
482,875.8663914964445
483,875.8688519396414
484,875.8707729321097
485,875.8721196616747
486,875.8728571958229
487,875.8729505326208
488,875.8723646861005
489,875.8710648098889
490,875.8690163604007
491,875.8661852983712
492,875.8625383256802
493,875.8580431537291
494,875.8526687997538
495,875.846385907388
496,875.8391670867494
497,875.8309872674164
498,875.8218240557187
499,875.81165808668
500,875.8004733611117
501,875.7882575595328
502,875.7750023262715
503,875.7607035189623
504,875.7453614205167
505,875.7289809122784
506,875.7115716081764
507,875.6931479502815
508,875.6737292665845
509,875.6533397922741
510,875.632008655955
511,875.6097698315508
512,875.5866620551603
513,875.5627287050054
514,875.5380176428085
515,875.5125810160998
516,875.4864750218671
517,875.4597596321455
518,875.4324982821805
519,875.4047575223552
520,875.3766066359518
521,875.3481172254794
522,875.3193627709479
523,875.2904181650097
524,875.2613592325456
525,875.2322622448861
526,875.2032034399855
527,875.1742585591232
528,875.1455024086351
529,875.117008452542
530,875.0888484394636
531,875.0610920655586
532,875.0338066745303
533,875.0070569954315
534,874.9809049186571
535,874.9554093101476
536,874.9306258632491
537,874.9066069865867
538,874.8834017248856
539,874.8610557084603
540,874.8396111262858
541,874.8191067171206
542,874.7995777730562
543,874.7810561501225
544,874.7635702810463
545,874.7471451861403
546,874.731802479903
547,874.7175603731758
548,874.7044336730518
549,874.6924337844413
550,874.6815687178091
551,874.6718431069879
552,874.6632582394474
553,874.6558120994544
554,874.6494994227567
555,874.6443117601359
556,874.6402375466832
557,874.637262174062
558,874.6353680639867
559,874.6345347420057
560,874.6347389113006
561,874.6359545268684
562,874.6381528711677
563,874.6413026328541
564,874.6453699906833
565,874.6503187053123
566,874.6561102226893
567,874.6627037936137
568,874.670056614585
569,874.6781239952594
570,874.6868595576644
571,874.6962154713075
572,874.7061427259932
573,874.7165914407291
574,874.7275112034513
575,874.7388514338087
576,874.7505617610776
577,874.762592411277
578,874.774894600032
579,874.7874209290205
580,874.8001257834846
581,874.8129657269134
582,874.82589988749
583,874.8388903299804
584,874.8519024065004
585,874.8649050794764
586,874.8778712097178
587,874.890777802415
588,874.9036062049009
589,874.9163422520363
590,874.9289763572075
591,874.9415035487139
592,874.9539234527539
593,874.9662402250713
594,874.9784624335074
595,874.9906028938124
596,875.0026784616022
597,875.0147097838902
598,875.0267210134987
599,875.0387394891659
600,875.0507953841654
601,875.0629213269646
602,875.0751519982884
603,875.087523709381
604,875.100073966169
605,875.1128410235976
606,875.1258634336634
607,875.1391795895106
608,875.1528272664393
609,875.1668431595217
610,875.1812624176353
611,875.1961181752248
612,875.2114410850768
613,875.2272588569286
614,875.2435958077073
615,875.260472429923
616,875.2779049853436
617,875.2959051313942
618,875.3144795876004
619,875.3336298486479
620,875.3533519492091
621,875.3736362837982
622,875.3944674832308
623,875.4158243483911
624,875.4376798419793
625,875.4600011392083
626,875.4827497387431
627,875.505881635365
628,875.529347555448
629,875.5530932548606
630,875.5770598766193
631,875.6011843635019
632,875.6253999195867
633,875.6496365141861
634,875.6738214214555
635,875.6978797891086
636,875.7217352305375
637,875.7453104359834
638,875.7685277993844
639,875.7913100575759
640,875.813580937912
641,875.8352658096406
642,875.8562923335699
643,875.8765911035467
644,875.8960962722348
645,875.914746153116
646,875.9324837907633
647,875.9492574919251
648,875.9650213103557
649,875.9797354783444
650,875.9933667776388
651,876.0058888424618
652,876.0172823881663
653,876.0275353608898
654,876.036643006072
655,876.0446078562904
656,876.051439641053
657,876.0571551229523
658,876.061777866253
659,876.0653379455327
660,876.0678716029231
661,876.0694208622633
662,876.0700331072165
663,876.0697606289652
664,876.0686601484897
665,876.0667923189853
666,876.0642212152355
667,876.0610138180288
668,876.057239502389
669,876.0529695379443
670,876.048276608172
671,876.0432343531259
672,876.0379169382085
673,876.0323986498245
674,876.0267535174224
675,876.0210549608571
676,876.0153754624345
677,876.0097862643833
678,876.0043570943436
679,875.9991559228362
680,875.9942487568762
681,875.989699473172
682,875.9855696934669
683,875.981918703709
684,875.9788034173222
685,875.9762783807088
686,875.9743958168111
687,875.9732057009268
688,875.9727558624024
689,875.9730921061982
690,875.9742583490098
691,875.9762967649394
692,875.9792479351469
693,875.9831509946299
694,875.988043768069
695,875.9939628863293
696,876.0009438757078
697,876.0090212127091
698,876.0182283377901
699,876.0285976224758
700,876.040160285811
701,876.0529462585177
702,876.0669839967651
703,876.0823002518941
704,876.0989198063991
705,876.1168651883737
706,876.1361563762509
707,876.1568105041383
708,876.1788415765938
709,876.202260200712
710,876.2270733429253
711,876.2532841178636
712,876.280891616433
713,876.3098907791814
714,876.3402723187124
715,876.3720226921477
716,876.4051241225027
717,876.4395546667308
718,876.4752883274615
719,876.5122952043955
720,876.5505416799701
721,876.589990633105
722,876.6306016751826
723,876.6723314034007
724,876.7151336671948
725,876.7589598430741
726,876.8037591124233
727,876.8494787364488
728,876.8960643229254
729,876.9434600804942
730,876.991609057452
731,877.040453363067
732,877.0899343707216
733,877.1399929039084
734,877.1905694078281
735,877.241604110125
736,877.2930371738372
737,877.3448088446228
738,877.3968595933925
739,877.4491302547128
740,877.5015621605395
741,877.5540972678922
742,877.6066782780601
743,877.6592487442805
744,877.7117531650198
745,877.7641370609682
746,877.816347035334
747,877.8683308189417
748,877.9200373037979
749,877.9714165702969
750,878.0224199130258
751,878.0729998681549
752,878.1231102428678
753,878.1727061456305
754,878.2217440155783
755,878.2701816491116
756,878.3179782212565
757,878.3650942988392
758,878.4114918427684
759,878.4571341979605
760,878.5019860711436
761,878.5460134980942
762,878.5891838022667
763,878.6314655463922
764,878.6728284777263
765,878.713243466401
766,878.7526824351796
767,878.7911182785292
768,878.828524769528
769,878.8648764540524
770,878.9001485321438
771,878.9343167262502
772,878.9673571354006
773,878.9992460738035
774,879.0299598923597
775,879.0594747823163
776,879.087766561624
777,879.1148104463997
778,879.1405808120373
779,879.1650509503178
780,879.1881928298972
781,879.2099768679979
782,879.230371721537
783,879.249344106462
784,879.2668586543116
785,879.2828778145147
786,879.2973618095355
787,879.3102686477977
788,879.3215541966727
789,879.3311723153176
790,879.339075045417
791,879.3452128569643
792,879.3495349457106
793,879.3519895783688
794,879.3525244809218
795,879.3510872646046
796,879.3476258838269
797,879.3420891207365
798,879.3344270916778
799,879.3245917704912
800,879.3125375223258
801,879.2982216404212
802,879.281604878015
803,879.2626519679972
804,879.2413321236146
805,879.2176195139274
806,879.1914937075798
807,879.1629400778136
808,879.1319501609908
809,879.0985219606414
810,879.0626601893605
811,879.0243764417452
812,878.9836892931022
813,878.9406243210179
814,878.8952140500841
815,878.8474978237934
816,878.7975216110515
817,878.7453377568855
818,878.6910046872837
819,878.6345865769689
820,878.5761529871284
821,878.5157784784457
822,878.4535422038025
823,878.3895274850169
824,878.3238213786842
825,878.2565142368669
826,878.1876992684086
827,878.1174721059557
828,878.0459303826875
829,877.9731733217137
830,877.899301340257
831,877.8244156700163
832,877.7486179945249
833,877.6720101039124
834,877.5946935671739
835,877.5167694218616
836,877.4383378811945
837,877.3594980591989
838,877.2803477157989
839,877.200983025459
840,877.1214983741422
841,877.0419861891183
842,876.9625368046532
843,876.8832383646316
844,876.8041767609419
845,876.7254356035749
846,876.6470962152192
847,876.5692376411222
848,876.491936665113
849,876.4152678244385
850,876.3393034177961
851,876.2641135014525
852,876.1897658678259
853,876.1163260008599
854,876.0438570041637
855,875.9724195012293
856,875.9020715108384
857,875.8328683036773
858,875.7648622474368
859,875.69810264748
860,875.632635589397
861,875.5685037893196
862,875.505746457946
863,875.4443991841814
864,875.384493843458
865,875.3260585341402
866,875.2691175435648
867,875.2136913437984
868,875.1597966166953
869,875.1074463085722
870,875.0566497163421
871,875.0074126081673
872,874.9597373816935
873,874.9136232614903
874,874.869066534797
875,874.8260608218502
876,874.7845973748233
877,874.7446653980137
878,874.7062523810823
879,874.6693444365529
880,874.6339266324711
881,874.5999833114428
882,874.5674983885478
883,874.5364556227222
884,874.506838858512
885,874.4786322370439
886,874.4518203763497
887,874.4263885217434
888,874.4023226668228
889,874.3796096450886
890,874.3582371914707
891,874.3381939725913
892,874.319469584852
893,874.3020545204437
894,874.2859401027665
895,874.2711183940751
896,874.257582079157
897,874.2453243293861
898,874.2343386516179
899,874.2246187261624
900,874.2161582373712
901,874.208950699393
902,874.2029892791434
903,874.1982666190663
904,874.1947746633498
905,874.1925044918744
906,874.1914461656979
907,874.1915885866074
908,874.1929193720484
909,874.1954247461051
910,874.199089446971
911,874.2038966510917
912,874.2098279137928
913,874.2168631259406
914,874.2249804861309
915,874.2341564877917
916,874.2443659200526
917,874.2555818803046
