frame_number,force
0,506.8786000000272
1,507.1036874572333
2,507.31553117330077
3,507.5020687819425
4,507.65342302737986
5,507.7626037266474
6,507.8258531687249
7,507.8426370451117
8,507.8153281460176
9,507.74867145772004
10,507.6491511100988
11,507.524383637521
12,507.38262753590135
13,507.2324373175461
14,507.0824251283462
15,506.9410460811653
16,506.8163111591876
17,506.71536337296106
18,506.64392221840575
19,506.6056813792623
20,506.60179870599194
21,506.6306207782204
22,506.6877380494716
23,506.766392221189
24,506.8581784265465
25,506.953921911604
26,507.04458467311906
27,507.12208075758787
28,507.1799278775606
29,507.21370378006293
30,507.22129699533286
31,507.2029549133758
32,507.16114446063466
33,507.1002478893451
34,507.02612028118523
35,506.9455433197814
36,506.86561959263827
37,506.7931556372366
38,506.73408147778576
39,506.6929578641088
40,506.67262641780803
41,506.67404402153886
42,506.6963059785873
43,506.73682605032064
44,506.79162841862376
45,506.8557142315593
46,506.92347813963744
47,506.9891574901487
48,507.0472947960755
49,507.0931841206012
50,507.12325836418637
51,507.1353648182913
52,507.1288823836544
53,507.10465844884203
54,507.06477460338175
55,507.0121766272862
56,506.9502225622714
57,506.88221115152567
58,506.8109496525789
59,506.7384076092893
60,506.66548914237535
61,506.59194852691036
62,506.51646982351684
63,506.43691672145906
64,506.3507255550077
65,506.25537524554835
66,506.14884418848254
67,506.02996657114664
68,505.8986260381824
69,505.75576489489623
70,505.60323357400677
71,505.4435456419862
72,505.2796228345937
73,505.1146039072315
74,504.9517556950697
75,504.79447822233607
76,504.64635082221076
77,504.5111349785427
78,504.3926472582551
79,504.2944530372208
80,504.21939918036816
81,504.16907486019375
82,504.14334068870414
83,504.1400803057363
84,504.1552875972063
85,504.1835054710476
86,504.2185181937486
87,504.25412760044327
88,504.28484220986644
89,504.30636103966714
90,504.3158079608829
91,504.3117413460408
92,504.2940068248653
93,504.2635056352055
94,504.22192634223825
95,504.17145939663635
96,504.11450114872804
97,504.0533578820699
98,503.9899731963699
99,503.92571636060705
100,503.86127849239745
101,503.79671597141936
102,503.7316444910542
103,503.6655305742835
104,503.5979852395596
105,503.5289676853529
106,503.4588484301987
107,503.3883296504543
108,503.3182540098695
109,503.2493505487785
110,503.18197573200894
111,503.11591509347875
112,503.0503094603331
113,502.9837480589229
114,502.91452682377945
115,502.8410134276377
116,502.76201264825175
117,502.67701995227907
118,502.5863042137881
119,502.4908405666302
120,502.39216671665395
121,502.29223834554125
122,502.1933277379525
123,502.09796787232034
124,502.0089107218823
125,501.9290543061555
126,501.8612935362348
127,501.808259048677
128,501.7719366210351
129,501.7532167806459
130,501.7514892200724
131,501.76442687173125
132,501.7880707282437
133,501.8172377188936
134,501.84617286103247
135,501.8693003136228
136,501.8819142105602
137,501.8806743107336
138,501.8638144089007
139,501.83103385149616
140,501.7831281363967
141,501.72149932775034
142,501.647725679631
143,501.56333600987216
144,501.46984401741236
145,501.3689926856249
146,501.2630766951289
147,501.1551753589331
148,501.04915443223473
149,500.94938004287815
150,500.860200898978
151,500.78534343071186
152,500.72738611208075
153,500.68743168643806
154,500.66501791242257
155,500.658244788658
156,500.66406744695865
157,500.6786983767834
158,500.69806382704724
159,500.7182586059349
160,500.7359407471965
161,500.7486092723953
162,500.75472358934496
163,500.7536554889072
164,500.74550680917804
165,500.7308566131313
166,500.7104987056643
167,500.68519892516986
168,500.6554782627749
169,500.6214362823839
170,500.5826505052234
171,500.5381863326487
172,500.48671977464164
173,500.4267344645565
174,500.356732526285
175,500.2754044594658
176,500.1817279789687
177,500.0749973657968
178,499.954809827422
179,499.82103995274935
180,499.67381777402005
181,499.51351047776717
182,499.34070993415565
183,499.15624026277254
184,498.9612030862629
185,498.7570693182379
186,498.5458128824021
187,498.3300668560351
188,498.11326769638424
189,497.89974365119264
190,497.6947014366748
191,497.5040710382554
192,497.33418852173304
193,497.1913344249146
194,497.081187935543
195,497.00828578131694
196,496.9755782526582
197,496.9841503054344
198,497.033132485057
199,497.11978582609447
200,497.2397223605944
201,497.3872148927883
202,497.5555473866275
203,497.73736321633254
204,497.92499047923906
205,498.11075739539194
206,498.2873360208164
207,498.44814672583567
208,498.5878156307018
209,498.7026242210931
210,498.7908555999263
211,498.85294406966733
212,498.8913739343857
213,498.9103352511821
214,498.9152058190482
215,498.91196539907435
216,498.90664515903137
217,498.90487866780967
218,498.91157378145346
219,498.9306881521271
220,498.9650730152184
221,499.0163528390027
222,499.0848258158699
223,499.1693825240934
224,499.2674391688708
225,499.3748875924705
226,499.4860953320442
227,499.5940306189307
228,499.6906031420267
229,499.7672776406228
230,499.8159415134125
231,499.8299215881853
232,499.80498169939017
233,499.7401116713446
234,499.6379472720168
235,499.50473155608114
236,499.3498165270075
237,499.18478289058567
238,499.02230488652486
239,498.874899656438
240,498.75369172360803
241,498.6673207987329
242,498.6211283452742
243,498.61674411040246
244,498.6521346420908
245,498.7220866205408
246,498.81901475489843
247,498.93393415333384
248,499.05742829300476
249,499.180470626137
250,499.29500974929226
251,499.3942915240872
252,499.4729522987653
253,499.5269629633883
254,499.5535222869733
255,499.55098041183163
256,499.51882536057076
257,499.4577171942324
258,499.3695386199905
259,499.25744420263845
260,499.1258956254326
261,498.98064513455347
262,498.828596356623
263,498.6774728583606
264,498.53527491148037
265,498.409578629653
266,498.3067882933947
267,498.23146949267823
268,498.1858752890126
269,498.16974908471695
270,498.18044911114714
271,498.2133811780087
272,498.26265772279663
273,498.3218522787296
274,498.38471138002393
275,498.4457211798372
276,498.50048718188367
277,498.54594383988274
278,498.58043892100346
279,498.60372809661465
280,498.6168876898278
281,498.62214041956094
282,498.6226044258271
283,498.62199981034456
284,498.6243529031816
285,498.6337243305585
286,498.6539669863421
287,498.68850538582126
288,498.7401248829408
289,498.8107705073969
290,498.90137611482504
291,499.0117646536711
292,499.1406660896113
293,499.2858772365907
294,499.4445382786805
295,499.61345261866364
296,499.7893670792515
297,499.96916519765995
298,500.1499743689565
299,500.3292118070422
300,500.50459195283463
301,500.6741100928524
302,500.83601462875674
303,500.98877655299987
304,501.1310537735758
305,501.2616413368132
306,501.3794131703987
307,501.48328978428935
308,501.57227435743783
309,501.64556653856016
310,501.70271630584483
311,501.7437604766228
312,501.76929819452033
313,501.78048767349253
314,501.7789688699326
315,501.7667293158071
316,501.7459298575463
317,501.71870058930114
318,501.6869214710216
319,501.6520238406538
320,501.61487109889134
321,501.57577115195676
322,501.5346318555207
323,501.4912183318949
324,501.44544055970107
325,501.39760114709594
326,501.3485523293091
327,501.2997327818076
328,501.2530790023011
329,501.2108396138878
330,501.1753550449665
331,501.148871508858
332,501.13342366086493
333,501.13077215694756
334,501.1423571176791
335,501.1692299067998
336,501.2119374202641
337,501.2703508265898
338,501.3434581770742
339,501.4291733620578
340,501.5242406692333
341,501.62431898210025
342,501.72429787977995
343,501.8188325541318
344,501.9030150478255
345,501.9730590859365
346,502.0268708835336
347,502.0643944036746
348,502.08765368130076
349,502.10047607511996
350,502.10795820561634
351,502.11579594895676
352,502.1296146604608
353,502.15440794722605
354,502.1941415889506
355,502.2515244632567
356,502.327909887826
357,502.42327985587775
358,502.536276788981
359,502.664268168065
360,502.8034458522508
361,502.9489693632893
362,503.09516617932917
363,503.23580817305583
364,503.36448414615535
365,503.47506999512666
366,503.56226328349675
367,503.6221193036303
368,503.65251731110527
369,503.6534938787748
370,503.62739144715704
371,503.578782912719
372,503.5141599861199
373,503.4414175020946
374,503.3692081335409
375,503.3062556769018
376,503.2606925056471
377,503.2394458592139
378,503.24766988712446
379,503.288226934957
380,503.3612562659055
381,503.46390824264654
382,503.59034430428693
383,503.7320878476714
384,503.87874860386944
385,504.0190511323706
386,504.1420183422776
387,504.2381295072708
388,504.3002946669273
389,504.32453868496617
390,504.3103352555099
391,504.260563073407
392,504.1810929744736
393,504.0800719701952
394,503.9670265360742
395,503.85192497488015
396,503.7443079260557
397,503.6525450842034
398,503.5832376485873
399,503.54077335001307
400,503.5270491689093
401,503.5413890223358
402,503.5806804753472
403,503.6397319584072
404,503.7118248269482
405,503.7894156939885
406,503.86492789563596
407,503.93154538651936
408,503.98389670574886
409,504.01851837579073
410,504.0340318122312
411,504.0310384858531
412,504.0117981026527
413,503.97977981565424
414,503.93916934263274
415,503.89438982347025
416,503.8496674830982
417,503.80866493848964
418,503.77422395112364
419,503.7482801626852
420,503.7319928027178
421,503.7260608012755
422,503.7311109136388
423,503.74800049861545
424,503.77790772953904
425,503.8221694705185
426,503.8819285005683
427,503.9577247295695
428,504.04918236828655
429,504.15490165701146
430,504.2725805708617
431,504.39930749036614
432,504.53191846336887
433,504.6673210852245
434,504.8027373568529
435,504.9358717198778
436,505.06503350205656
437,505.18922986390254
438,505.30821880529345
439,505.4224967964962
440,505.5331960484781
441,505.64187338517104
442,505.7501863345429
443,505.85947989790276
444,505.9703439533504
445,506.08222556923005
446,506.19317720599963
447,506.29979472883787
448,506.39736619936417
449,506.48022968422333
450,506.54232293198464
451,506.5778822311265
452,506.5822108721437
453,506.5524129938821
454,506.4879909431933
455,506.3912209439217
456,506.26723826585356
457,506.1237848778641
458,505.970615276608
459,505.81862394386246
460,505.6788294555782
461,505.5613852915184
462,505.4747602957518
463,505.42516066101626
464,505.4161986994985
465,505.44878599221767
466,505.52123199258295
467,505.62953241383184
468,505.76781865150525
469,505.9289181822111
470,506.1049605441638
471,506.28796377267463
472,506.47035435483826
473,506.6454002309464
474,506.8075541530021
475,506.952705086778
476,507.0783256974919
477,507.1834985878319
478,507.26881036494376
479,507.33611965633463
480,507.3882293205952
481,507.4285168993999
482,507.46058454747606
483,507.4879673449113
484,507.51389920981086
485,507.5411105403563
486,507.5716406125107
487,507.6066805669527
488,507.6464941891232
489,507.6904731540179
490,507.7373630778065
491,507.7856508891719
492,507.83404792642716
493,507.8819581856855
494,507.9298049432489
495,507.9791105538325
496,508.0322845254931
497,508.09215800173456
498,508.1613711781113
499,508.24174332156093
500,508.33374164133716
501,508.43614726493064
502,508.5460010938788
503,508.6588725103446
504,508.76941553033726
505,508.87209177790623
506,508.96189740422835
507,509.03495189024807
508,509.08886917228216
509,509.1228977111486
510,509.13786075996336
511,509.13594640087615
512,509.1203950282833
513,509.0951225117433
514,509.0643157195896
515,509.0320471044727
516,509.001962840301
517,508.9770889627771
518,508.9597716321343
519,508.9517342652951
520,508.95420776170357
521,508.9680729209695
522,508.9939507325507
523,509.0321998549628
524,509.08283107849627
525,509.14539398419106
526,509.2188985145354
527,509.30180954102207
528,509.39212719620923
529,509.4875525822958
530,509.5857221738237
531,509.68446746008675
532,509.7820400063444
533,509.8772531568898
534,509.96951369625776
535,510.05872711060215
536,510.1450701817091
537,510.2286628240952
538,510.30922763048005
539,510.3858526097582
540,510.45694422241104
541,510.5203963738724
542,510.5739420372963
543,510.6156163015069
544,510.64424543886463
545,510.659877789701
546,510.6640770821666
547,510.66000721083526
548,510.652262503285
549,510.6464437246565
550,510.64853162988993
551,510.6641475142043
552,510.69780883714725
553,510.75229079188875
554,510.8281925781426
555,510.9237789595893
556,511.035123104254
557,511.15652170011316
558,511.28110477113927
559,511.4015357908692
560,511.51069119514074
561,511.6022149167203
562,511.6708680978357
563,511.71264536706946
564,511.7246976646048
565,511.7051587937486
566,511.6529910342691
567,511.5679384107515
568,511.4506217462348
569,511.3027504787806
570,511.12737691110306
571,510.9290873915598
572,510.71402368984366
573,510.48966776937687
574,510.2643921997997
575,510.0468372439163
576,509.84519686676134
577,509.66649459259907
578,509.515934853162
579,509.396424688783
580,509.3083504444968
581,509.24965652493324
582,509.2162218410809
583,509.2024764336943
584,509.20215482985265
585,509.2090601202386
586,509.21772428389403
587,509.22388698628816
588,509.224759556473
589,509.2190809656937
590,509.2070001407688
591,509.1898291310345
592,509.16970839069563
593,509.1492198514773
594,509.1309846589002
595,509.117287473235
596,509.109763788217
597,509.1091651111112
598,509.1151973957827
599,509.1264327449077
600,509.140316855225
601,509.15330546625154
602,509.16114382963184
603,509.15926493817824
604,509.1432508054684
605,509.1092943958642
606,509.054617248292
607,508.9778203810012
608,508.8791518116205
609,508.76066187377086
610,508.6262049640169
611,508.48124740064304
612,508.3324615223988
613,508.18712785194674
614,508.0524196856309
615,507.93468066006227
616,507.8388010016521
617,507.76776016550224
618,507.7223698991242
619,507.7012416444724
620,507.7009906339366
621,507.71665035553553
622,507.74222489009355
623,507.7712911596406
624,507.79758183803085
625,507.8155042441624
626,507.82056244734486
627,507.80965382242397
628,507.7812176484642
629,507.7352273736799
630,507.6730423742752
631,507.5971633978041
632,507.5109474011357
633,507.41831517578095
634,507.3234463165978
635,507.23044327389266
636,507.1429764679485
637,507.0639635121523
638,506.99534490182197
639,506.93798876883216
640,506.8917156497916
641,506.85541126061173
642,506.82719753754645
643,506.8046410713587
644,506.7849777297179
645,506.76532760008325
646,506.7428750406321
647,506.7149947333602
648,506.67931594251144
649,506.63373898584854
650,506.57644812553076
651,506.5059835642656
652,506.4214180089263
653,506.32262955918037
654,506.210600501785
655,506.08763629306594
656,505.9574100926654
657,505.8247889197088
658,505.69546020849344
659,505.57542143317505
660,505.470404720334
661,505.3852945712254
662,505.32359129884014
663,505.2869893795501
664,505.2751521237029
665,505.2857362247765
666,505.3146520930972
667,505.3564786648061
668,505.40492821970776
669,505.45328542441524
670,505.4947972088933
671,505.5230351122676
672,505.5322717070351
673,505.51789873648505
674,505.47687250395904
675,505.4081255041572
676,505.31285445972014
677,505.194590461485
678,505.0589786088972
679,504.9132459912855
680,504.7654090392556
681,504.6233394337832
682,504.4938497745498
683,504.381963804184
684,504.2904975873894
685,504.22001179248485
686,504.1691252334422
687,504.1351153184405
688,504.114671349798
689,504.10462676330314
690,504.10250230315427
691,504.1067539900811
692,504.11671979314195
693,504.1323542203413
694,504.1538835252079
695,504.1814953357651
696,504.21513063027515
697,504.25440795051645
698,504.29868027226786
699,504.34719275343207
700,504.39927858246585
701,504.4545153655637
702,504.51277641577707
703,504.5741474458241
704,504.63872675678425
705,504.70637070511293
706,504.7764708197909
707,504.84784419200827
708,504.91878695870287
709,504.9872926668257
710,505.0513844240359
711,505.1094653200268
712,505.1605732743885
713,505.2044511703505
714,505.24141283276083
715,505.27207250293407
716,505.29706231415156
717,505.3168562909445
718,505.3317579740252
719,505.34203013013763
720,505.34808995292695
721,505.3506821928321
722,505.3509672523894
723,505.3504934642478
724,505.35104247109876
725,505.35435151624773
726,505.36174646605184
727,505.3737637798927
728,505.3898696142945
729,505.40837043315565
730,505.4265525755401
731,505.4410185282838
732,505.4481364200883
733,505.4444988729721
734,505.42729784543593
735,505.3945587042527
736,505.34522511463337
737,505.27912684789464
738,505.1968833791661
739,505.09979178178145
740,504.98971848656583
741,504.8689811864731
742,504.7401997797214
743,504.6061182892477
744,504.46942778764543
745,504.3326296124812
746,504.1979621355204
747,504.0673794259671
748,503.9425343026849
749,503.82470686671576
750,503.7146488182945
751,503.6123736594834
752,503.5169766675202
753,503.42657933671387
754,503.3384566400175
755,503.2493513193993
756,503.1559378463542
757,503.0553749523993
758,502.94586516682386
759,502.8271147976204
760,502.70057637123375
761,502.56938757085913
762,502.4379978052452
763,502.3115558235735
764,502.19517802676523
765,502.093223235802
766,502.008685843873
767,501.9427968994198
768,501.89488881188805
769,501.8625366150588
770,501.8419519935216
771,501.82858220323465
772,501.81784433253773
773,501.805900589534
774,501.79036268256164
775,501.77081441248976
776,501.74906396094366
777,501.7290767270216
778,501.71658840756197
779,501.71844742340073
780,501.74177374463295
781,501.7930364662989
782,501.8771503210023
783,501.9966931661853
784,502.15135910120256
785,502.3377604064861
786,502.5496495961915
787,502.77855601359056
788,503.01474967141456
789,503.2483849749619
790,503.47064742098996
791,503.67472571680736
792,503.85646008836795
793,504.01457568918204
794,504.15049127916444
795,504.26778079076
796,504.37143087443883
797,504.46705017310893
798,504.56014139840096
799,504.65548156268585
800,504.75661634584355
801,504.86548032810106
802,504.9821851667395
803,505.10503255427943
804,505.23078204057117
805,505.3551440076007
806,505.4734075268839
807,505.58108159731466
808,505.67443507017987
809,505.75085245590554
810,505.8089627514943
811,505.84853965013184
812,505.87021317702124
813,505.8750694453442
814,505.86423634670587
815,505.83855292598935
816,505.7984017253135
817,505.74374711456284
818,505.6743653960085
819,505.5901872189751
820,505.4916342495961
821,505.37984645882045
822,505.25675498114975
823,505.12502277899966
824,504.9879145613513
825,504.84915205146285
826,504.71277335246714
827,504.5829741002049
828,504.4638892056349
829,504.3592922791913
830,504.27223559551965
831,504.20469299994414
832,504.15727922650296
833,504.1291080102749
834,504.1178281214934
835,504.1198432268052
836,504.1306856331501
837,504.1454860366396
838,504.1594666245496
839,504.1683884503318
840,504.1689074068421
841,504.15882062934605
842,504.1371959930185
843,504.1043721362983
844,504.0618146200349
845,504.0118311327884
846,503.9571852482042
847,503.90068725385044
848,503.8448565076895
849,503.79173019357626
850,503.74284798708027
851,503.6993869869324
852,503.66237011516534
853,503.63284495971385
854,503.6119492061674
855,503.60083809606056
856,503.60051523114527
857,503.61164431850017
858,503.63441127114766
859,503.66846763516884
860,503.7129469481265
861,503.76652258129184
862,503.8274672323521
863,503.8936798439844
864,503.9626722243795
865,504.03154980491104
866,504.0970525228036
867,504.1557180246339
868,504.20419277177035
869,504.23967118683225
870,504.26040442280345
871,504.2661867134724
872,504.25870264543204
873,504.24162348072537
874,504.2203862029219
875,504.2016583710443
876,504.19255439887513
877,504.19970398848
878,504.2282819144254
879,504.28110960557666
880,504.35795071236856
881,504.4551339907853
882,504.5656159311066
883,504.6795322034722
884,504.7852001133791
885,504.87044337338324
886,504.92403473671305
887,504.93702533464983
888,504.9037717178076
889,504.82255248197635
890,504.695736043722
891,504.5295063203547
892,504.33319416442737
893,504.1183080387533
894,503.8973926536455
895,503.68285616129145
896,503.48589524246125
897,503.3156181722137
