frame_number,force
0,612.64417000004
1,612.7352104683831
2,612.8309265766002
3,612.9354542694233
4,613.0518624057098
5,613.1816969265096
6,613.3246934394324
7,613.4787388840289
8,613.6401053903458
9,613.8039216973455
10,613.964811481235
11,614.1176083318322
12,614.258044780056
13,614.3833128069751
14,614.4924155010873
15,614.5862671046599
16,614.6675346939797
17,614.7402473572342
18,614.8092347357561
19,614.8794848590132
20,614.9555098340913
21,615.0407796769845
22,615.1372588265522
23,615.245078437829
24,615.3623935838363
25,615.4854848880517
26,615.609145997313
27,615.7273401553157
28,615.8340285703877
29,615.9240189575621
30,615.9936928386279
31,616.0415299474737
32,616.0684067785611
33,616.0776715284006
34,616.0749944525436
35,616.0679825713801
36,616.0655501769422
37,616.0770611936006
38,616.1113008793826
39,616.1753809052958
40,616.2737259504216
41,616.4073193158999
42,616.5733756953582
43,616.765545998371
44,616.974656539153
45,617.1898766180498
46,617.4001225677183
47,617.5954583408706
48,617.768254617208
49,617.9139258474701
50,618.0311636096101
51,618.1216950067972
52,618.1896870484268
53,618.2409684016206
54,618.282234187775
55,618.3203446370582
56,618.3617554316415
57,618.4120653727151
58,618.4756570278555
59,618.5554268109514
60,618.6526235772131
61,618.7668216877418
62,618.896045211012
63,619.0370412113878
64,619.1856804202628
65,619.3374466928823
66,619.4879587869475
67,619.6334505339419
68,619.7711303060313
69,619.8993548713014
70,620.017581644028
71,620.1261024410943
72,620.2256090606987
73,620.3166861163991
74,620.3993508852889
75,620.472749782984
76,620.5350799217156
77,620.583748112564
78,620.6157233219693
79,620.6279950891803
80,620.6180358642965
81,620.5841862748023
82,620.5259237769558
83,620.4440087708451
84,620.3405093131473
85,620.2186943433287
86,620.0827829644915
87,619.9375606204375
88,619.7879137505893
89,619.638368957039
90,619.4927260058276
91,619.3538363836597
92,619.2235227351706
93,619.102600627681
94,618.9909688749018
95,618.8877526732997
96,618.791487362351
97,618.7003229725198
98,618.6122260617593
99,618.5251544199741
100,618.4371758147255
101,618.3465059508668
102,618.2514677095778
103,618.1504103865709
104,618.0416451535083
105,617.9234437220597
106,617.7941278282582
107,617.6522586875225
108,617.4969116572559
109,617.3279873898753
110,617.1464790467297
111,616.9546060165636
112,616.755748473252
113,616.5541672648656
114,616.3545534452
115,616.1615032790488
116,615.9790390217919
117,615.8102788732318
118,615.6573048712073
119,615.5212087584512
120,615.4022424855185
121,615.2999814457836
122,615.2134279530391
123,615.1410322738577
124,615.0806703012476
125,615.0296537213961
126,614.9848274654124
127,614.9427457950266
128,614.8998687621468
129,614.8527217247056
130,614.7980005130596
131,614.7326516361975
132,614.6539846827112
133,614.5598648578583
134,614.4489866065866
135,614.3211745293733
136,614.1776335963795
137,614.0210827700104
138,613.8557314717355
139,613.6870830748366
140,613.5215769688413
141,613.3661093937457
142,613.2274928348947
143,613.1119167032358
144,613.0244598678993
145,612.9686878430613
146,612.9463513049521
147,612.9571871990911
148,612.9988139523864
149,613.0667237952894
150,613.1544069596829
151,613.2536641936597
152,613.3551473682422
153,613.4491147800086
154,613.5263221893894
155,613.578921232447
156,613.6012245709699
157,613.5902267815255
158,613.5458279283482
159,613.4707653265464
160,613.3702920191696
161,613.251645456435
162,613.1233483854751
163,612.9943964890313
164,612.8734139679045
165,612.7678827318305
166,612.6835545023183
167,612.6241271928318
168,612.5912117736779
169,612.58455527334
170,612.6024444300821
171,612.6421976370689
172,612.70064639431
173,612.7745086615733
174,612.86058436959
175,612.9557664724314
176,613.0569310824442
177,613.1608034394194
178,613.2638734320386
179,613.3623776560588
180,613.4523193979721
181,613.5294938617493
182,613.5895206760371
183,613.6279299577695
184,613.6403647830036
185,613.6229340720015
186,613.5726932714728
187,613.4881806163074
188,613.3699160446275
189,613.2207750418243
190,613.04616251479
191,612.8539218761015
192,612.6539321435281
193,612.4573880047112
194,612.2758256058984
195,612.1200255264702
196,611.9989589148818
197,611.9189320676522
198,611.8830468638278
199,611.8910417769681
200,611.9395096427968
201,612.022421994703
202,612.1318596195383
203,612.2588584295705
204,612.3942943875977
205,612.5297270419526
206,612.6581117767274
207,612.7743007859209
208,612.8752862081324
209,612.9601796106853
210,613.0299534559136
211,613.0869911042239
212,613.1345097490974
213,613.1759340931461
214,613.2143019934282
215,613.2517794155757
216,613.2893525216142
217,613.3267431454103
218,613.3625588396513
219,613.3946507506029
220,613.4206243922491
221,613.4384323759438
222,613.4469664118981
223,613.4465526758219
224,613.4392456596927
225,613.4288256533099
226,613.4204459377238
227,613.4199417501878
228,613.4328850219935
229,613.463535083484
230,613.5138873316901
231,613.5830352151054
232,613.6670112878035
233,613.7591665208705
234,613.8510207360149
235,613.9334128843319
236,613.9977210864565
237,614.0369141143015
238,614.0462428221072
239,614.0234806177854
240,613.9687442655974
241,613.8840171899707
242,613.772528221616
243,613.638121972584
244,613.484721107239
245,613.3159420804916
246,613.1348858714937
247,612.9440858950488
248,612.7455675863612
249,612.5409683607955
250,612.3316829194168
251,612.1190237503636
252,611.9043945963288
253,611.689452603674
254,611.4762087101508
255,611.2670259934536
256,611.0645251620113
257,610.8714530007451
258,610.6905700256324
259,610.5245677652464
260,610.3759794588073
261,610.2470447253243
262,610.1395243381552
263,610.0544954049415
264,609.9921671490401
265,609.9517543881434
266,609.9314429169475
267,609.9284708967574
268,609.9393240332488
269,609.96001062592
270,609.9863599672894
271,610.0142745926164
272,610.0398713795681
273,610.0594890903194
274,610.0696091403655
275,610.0667810097573
276,610.0476358401025
277,610.0090335896616
278,609.9483472065841
279,609.8638427538197
280,609.7550661574611
281,609.6231168719246
282,609.4707082304179
283,609.3019874247848
284,609.1221713804133
285,608.9370917268025
286,608.7527209730714
287,608.5747160184991
288,608.4080089967877
289,608.2564958929511
290,608.1228793752259
291,608.0086861796054
292,607.9144202029642
293,607.8397767990656
294,607.783855614692
295,607.7453479708622
296,607.7227057893941
297,607.7143087111108
298,607.7186367542809
299,607.7344334084227
300,607.7608240551561
301,607.7973586072821
302,607.8439784107034
303,607.9009411234653
304,607.9687459295611
305,608.0480811597944
306,608.139780019621
307,608.2447354289072
308,608.363719874197
309,608.4970977940355
310,608.644480141944
311,608.804408446144
312,608.9741537426389
313,609.1496900516817
314,609.325871233273
315,609.4968080721202
316,609.6564023961421
317,609.7989512423918
318,609.9197106925
319,610.0153235339258
320,610.0840569069921
321,610.125843084675
322,610.1421547606602
323,610.1357682308102
324,610.1104659394767
325,610.070704160516
326,610.0212410660685
327,609.9667143464035
328,609.9111880247092
329,609.857734019666
330,609.8081375725476
331,609.7627968725919
332,609.7208380099162
333,609.680410641027
334,609.639083028237
335,609.5942288613354
336,609.5433073224463
337,609.4839913941042
338,609.4141810435806
339,609.3320001636937
340,609.2358759898829
341,609.1247420202574
342,608.9983326097964
343,608.8574866910834
344,608.7043672087138
345,608.542532159039
346,608.3768384880108
347,608.2131873822178
348,608.0581246912079
349,607.918322293304
350,607.799997559374
351,607.7083502447492
352,607.6470819156713
353,607.6180266437519
354,607.6208960113966
355,607.6531390897392
356,607.7099358749233
357,607.7843732562872
358,607.8678695505722
359,607.9508818881894
360,608.0238511571786
361,608.0782557421396
362,608.1076025062023
363,608.1081938834245
364,608.0795560901682
365,608.0244706035941
366,607.9486067896686
367,607.8598056788028
368,607.7671122674044
369,607.6796946614148
370,607.6058138664346
371,607.5519977345888
372,607.522515196267
373,607.5191638170386
374,607.5413170459286
375,607.5861522270767
376,607.6489876235672
377,607.7236761242012
378,607.8030292293597
379,607.87927638323
380,607.944582381926
381,607.9916251233705
382,608.0141861266311
383,608.0076712121163
384,607.9694925895725
385,607.8992912760979
386,607.7990126678205
387,607.6728417284465
388,607.5269777206476
389,607.3692221655342
390,607.2083883140164
391,607.0535982215408
392,606.9135753546091
393,606.7960411253009
394,606.7072839582728
395,606.6519059523338
396,606.6326926145721
397,606.6505270035378
398,606.704294216811
399,606.7907800457374
400,606.9046252140464
401,607.0384212495347
402,607.1830119119129
403,607.3280082316758
404,607.4624689312024
405,607.5756721421868
406,607.6579088865961
407,607.7012357757031
408,607.7001180004578
409,607.6518903367146
410,607.556982338202
411,607.4188865877315
412,607.2438769083911
413,607.0405015069847
414,606.8188887827486
415,606.5899143423693
416,606.3642908328568
417,606.1516600942557
418,605.9597825522197
419,605.7939208203336
420,605.6565007505545
421,605.54710616103
422,605.4628212171577
423,605.3988772027838
424,605.3495021902886
425,605.3088338979611
426,605.2717493592794
427,605.2344859028047
428,605.1949658161758
429,605.1527882892749
430,605.1089168729849
431,605.0651564990376
432,605.0235557923527
433,604.9858675760084
434,604.953156107322
435,604.9255805530178
436,604.902336229319
437,604.8817057997148
438,604.861167149379
439,604.8375313098973
440,604.807127539049
441,604.7660732501256
442,604.7106430557751
443,604.6377059209505
444,604.5451649900901
445,604.4323242424153
446,604.3001220498204
447,604.1512093732732
448,603.989885363106
449,603.8219082969989
450,603.6541827558486
451,603.4943193265035
452,603.3500840206665
453,603.2287814753336
454,603.136633216396
455,603.0782229238093
456,603.0560850426812
457,603.0705012022768
458,603.1195372739267
459,603.1993142346166
460,603.3044727277504
461,603.4287657993876
462,603.5656883130251
463,603.7090266945435
464,603.8532122553538
465,603.9934133545484
466,604.125401925813
467,604.2453254941113
468,604.3495416880213
469,604.434612719205
470,604.4974618375982
471,604.5356262722842
472,604.5475264417496
473,604.532694879549
474,604.491942340587
475,604.4274559603064
476,604.3428144038658
477,604.2428838511149
478,604.1335534848317
479,604.0212933926733
480,603.9125656796942
481,603.8131712546448
482,603.7276430120169
483,603.6587846621552
484,603.6074153799784
485,603.5723409059138
486,603.5505443606124
487,603.5375676600913
488,603.528026746333
489,603.516171859171
490,603.4963858103735
491,603.46353291108
492,603.4131302594126
493,603.3413797416072
494,603.2451397760327
495,603.1219225978928
496,602.9699805394858
497,602.7884981405361
498,602.5778532773694
499,602.339875910854
500,602.0780291677745
501,601.7974584379725
502,601.5048841023402
503,601.2083315509963
504,600.9166959081223
505,600.6391545343247
506,600.3844833731389
507,600.1603793626473
508,599.972904607038
509,599.8261341367069
510,599.7220193288949
511,599.6604104465757
512,599.6391599631495
513,599.6542638784829
514,599.7000507770869
515,599.7694531677328
516,599.8543905302301
517,599.9462812863895
518,600.0366829376503
519,600.118020419789
520,600.1843136671541
521,600.2317923858197
522,600.259300557317
523,600.2684230521675
524,600.2632980880384
525,600.2501206090398
526,600.236392646768
527,600.2300157543245
528,600.2383322592344
529,600.2672167336787
530,600.3203156136293
531,600.3985327211782
532,600.4998457110679
533,600.6195003334329
534,600.7505687824784
535,600.8847918356544
536,601.0135740407482
537,601.1289833988022
538,601.224622996216
539,601.2962774788297
540,601.3422742059348
541,601.3635337348987
542,601.3633286516088
543,601.3468222847515
544,601.3204892709834
545,601.2915043823612
546,601.2671434221852
547,601.2542100344467
548,601.2585004790951
549,601.2843321372483
550,601.3341776449563
551,601.4084588622969
552,601.5055487024924
553,601.6219923109353
554,601.7529116329017
555,601.8925335607836
556,602.0347873558306
557,602.1739265888414
558,602.30512528678
559,602.4249856681503
560,602.5318938550125
561,602.6261746196234
562,602.7100217957419
563,602.7872129986965
564,602.8626456785822
565,602.9417466986556
566,603.0298150092586
567,603.1313643872666
568,603.2495338636352
569,603.3856209447656
570,603.5387753595664
571,603.7058788558295
572,603.8816318341026
573,604.0588681911748
574,604.2291148796329
575,604.3833852619277
576,604.5131439709559
577,604.6113308099458
578,604.6733098798309
579,604.6976192270675
580,604.6864174806396
581,604.6455462059739
582,604.5841568263912
583,604.5139015900701
584,604.4477597745198
585,604.3986439578903
586,604.3779815009904
587,604.3944782192492
588,604.4532378546741
589,604.5553375982803
590,604.6978764705224
591,604.874454488576
592,605.0760079248935
593,605.2918974261024
594,605.5111145456976
595,605.723451324742
596,605.9204785195799
597,606.0962056138771
598,606.24734940306
599,606.3732080816663
600,606.4752089589788
601,606.5562554638925
602,606.6200267469769
603,606.6703675337028
604,606.7108524560344
605,606.7445440700336
606,606.7739143187548
607,606.8008760555699
608,606.8268692750155
609,606.8529580076417
610,606.8799142088403
611,606.9082863334934
612,606.9384605308419
613,606.9707198573261
614,607.0053008194105
615,607.0424403231181
616,607.0823985957682
617,607.1254439730134
618,607.1718021081451
619,607.221592570142
620,607.2747799379621
621,607.3311534565493
622,607.3903322999571
623,607.4517795478725
624,607.5147979070268
625,607.5784796087373
626,607.641600550753
627,607.70248306953
628,607.7588841185878
629,607.8079750210017
630,607.8464635032027
631,607.8708828419245
632,607.8780456660214
633,607.8656290068255
634,607.8328214873685
635,607.7809301209709
636,607.7138233645088
637,607.6380856915683
638,607.5627801771469
639,607.4987644811561
640,607.4575886203229
641,607.4501110717356
642,607.4850632954252
643,607.5678204341693
644,607.6995812375258
645,607.8770602424244
646,608.0927048355375
647,608.3353928195526
648,608.5915281235866
649,608.8464137302032
650,609.0857424743244
651,609.2970223410199
652,609.4707535814797
653,609.6012040533352
654,609.6866879641634
655,609.729335988283
656,609.7344336641876
657,609.7094769451305
658,609.6631295548984
659,609.6042534420535
660,609.5411242566826
661,609.4808681562747
662,609.4290999645482
663,609.3897163106134
664,609.3647950580747
665,609.3545748674228
666,609.3575304381957
667,609.3705881302277
668,609.389510788071
669,609.4094271643287
670,609.4254316512956
671,609.4331658147929
672,609.4293129909131
673,609.4119677839108
674,609.3808603167819
675,609.3374136262432
676,609.284608112711
677,609.2266435503122
678,609.1684305709555
679,609.1149889790224
680,609.0708548262071
681,609.0395896695741
682,609.0234519750571
683,609.0232556297381
684,609.0384198579517
685,609.0672023026492
686,609.1070873164847
687,609.1552701565101
688,609.2091473117827
689,609.266712070455
690,609.3267694428417
691,609.3889202788193
692,609.4533174947219
693,609.5202615331003
694,609.5897510736103
695,609.6611083884354
696,609.7327594324594
697,609.8021985669355
698,609.8661299079654
699,609.9207550250012
700,609.9621677199913
701,609.9868129572064
702,609.9919544158879
703,609.9760729369497
704,609.9391078884463
705,609.882476423089
706,609.8088601796396
707,609.7218112688261
708,609.6252700254911
709,609.5230900294358
710,609.4186364718724
711,609.3144835803312
712,609.212209497116
713,609.1122817859904
714,609.0140345363807
715,608.9157467630205
716,608.8148354705543
717,608.708170518301
718,608.5924989041151
719,608.4649379330692
720,608.3234702091423
721,608.1673578442575
722,607.9973966716245
723,607.8159586045276
724,607.6268165764469
725,607.4347955666988
726,607.24532833438
727,607.0640064018678
728,606.8962032046943
729,606.74681255558
730,606.6201038446702
731,606.5196590101627
732,606.4483364607167
733,606.4082080004544
734,606.40043156899
735,606.4250494553052
736,606.4807339659036
737,606.5645338349225
738,606.6717003596497
739,606.7956876897986
740,606.9284155657072
741,607.0608438676397
742,607.1838376594977
743,607.2892156432121
744,607.3708038922919
745,607.4252917986933
746,607.4527193099702
747,607.4564974223243
748,607.4429533809351
749,607.4204804059771
750,607.398441997274
751,607.3860152968213
752,607.3911488669881
753,607.4197637469889
754,607.4752586113935
755,607.5583145697685
756,607.6669575242618
757,607.7968324179043
758,607.9416582364878
759,608.0938447325194
760,608.2452475780046
761,608.388010850339
762,608.515400825223
763,608.6225012611857
764,608.70665197518
765,608.7675726252631
766,608.8071850676853
767,608.8291920048484
768,608.8384811229178
769,608.8404216469138
770,608.8401244859377
771,608.8417526112004
772,608.8479790393043
773,608.8596756073533
774,608.8758787439916
775,608.8940424171536
776,608.9105626430502
777,608.921518087777
778,608.9235026575908
779,608.9143679217625
780,608.8937010999916
781,608.8629400376697
782,608.8251202730952
783,608.7843180309508
784,608.7448921988082
785,608.7106524862296
786,608.6840958216445
787,608.6658529915926
788,608.6544639187165
789,608.6465440568762
790,608.6373174448152
791,608.6214008052276
792,608.5936689985228
793,608.5500353533339
794,608.4880258440679
795,608.4070864230779
796,608.30862251895
797,608.1958214866679
798,608.0733400939627
799,607.9469378100706
800,607.8231054294798
801,607.7086953428139
802,607.6105288813054
803,607.5349551005754
804,607.4873616041457
805,607.4716756895979
806,607.4899291050241
807,607.5419771732074
808,607.6254480276801
809,607.7359511808758
810,607.8675148833388
811,608.0131691962868
812,608.1655645864033
813,608.3175307169028
814,608.4625340890693
815,608.5950481630509
816,608.7108614435955
817,608.8073163435492
818,608.883434400554
819,608.9398776961193
820,608.9787278519123
821,609.0031165726683
822,609.0167899600931
823,609.0237037653341
824,609.0277149520352
825,609.032380025126
826,609.0408322169352
827,609.0557022700451
828,609.0790619562549
829,609.1123949330486
830,609.1566191433172
831,609.2121750957562
832,609.2791541016217
833,609.3574044909758
834,609.4465586002088
835,609.5459680140449
836,609.6545849778679
837,609.7708541870771
838,609.8926759455438
839,610.0174780018245
840,610.142401639382
841,610.2645815718441
842,610.3814872118651
843,610.4912899401754
844,610.5932137393902
845,610.6878080130439
846,610.7770628246712
847,610.8642932348065
848,610.95376503755
849,611.0501044130322
850,611.1575989975541
851,611.2795331923846
852,611.4176914401293
853,611.5721095271902
854,611.7410802783512
855,611.921365070142
856,612.1085464872966
857,612.2974653486303
858,612.4826908461755
859,612.6589684946135
860,612.8215891816149
861,612.9666351053586
862,613.0910835850733
863,613.1927793430365
864,613.2703145026684
865,613.3228776284441
866,613.3501341947099
867,613.352172246865
868,613.3295089787122
869,613.2831387125311
870,613.2146120486567
871,613.1261405689903
872,613.0207048194281
873,612.9021225910166
874,612.7750359472659
875,612.6448001873963
876,612.517279627359
877,612.3985544536363
878,612.2945334710289
879,612.2104746224712
880,612.1504456970222
881,612.1167991722206
882,612.1097646506878
883,612.1272577672972
884,612.1649645448161
885,612.2167063527202
886,612.2750428337301
887,612.3320346803447
888,612.3800668493967
889,612.4126271874063
890,612.4249437773456
891,612.4144049130194
892,612.3807185717128
893,612.3258110297148
894,612.253507412637
895,612.1690652147516
896,612.078635627608
897,611.9887145293717
898,611.9056315882343
899,611.8351188422369
900,611.7819905501497
901,611.7499421473937
902,611.741444764011
903,611.7576995926142
904,611.7986357520457
905,611.8629660702576
906,611.9483313264035
907,612.0515559439011
908,612.1690101951646
909,612.2970354507875
910,612.4323545595146
911,612.5723752112194
912,612.7153146970957
913,612.8601285675799
914,613.0062851947002
915,613.1534635570057
916,613.3012600714554
917,613.4489815224
918,613.5955739968883
