acceleration,velocity,displacement
-0.003702404438008934,0.0,0.0
-0.003920756782046551,-1.9057903050138713e-06,-4.764475762534678e-10
-0.004137548761932905,-3.920366691008736e-06,-1.9329868252591195e-09
-0.004352906366887091,-6.0429804732137346e-06,-4.423823616314737e-09
-0.004566941443541937,-8.272942425820991e-06,-8.002804341073418e-09
-0.0047797496189374185,-1.060961519144083e-05,-1.2723443745388873e-08
-0.004991408750870891,-1.3052404783892907e-05,-1.8638948739222305e-08
-0.005201977912672925,-1.560075144977886e-05,-2.5802237797640247e-08
-0.005411496896890261,-1.8254120152169655e-05,-3.4265955698127374e-08
-0.0056199862152601305,-2.1011990930207253e-05,-4.4082483468721605e-08
-0.005827447574548573,-2.387384937765943e-05,-5.530394354568828e-08
-0.006033864807541484,-2.6839177473181945e-05,-6.798220025839863e-08
-0.006239205231265708,-2.9907444982883742e-05,-8.216885587241505e-08
-0.006443421393574116,-3.30781016390937e-05,-9.791524252790941e-08
-0.0066464531580483835,-3.6350570276999325e-05,-1.1527241050693267e-07
-0.006848230067324011,-3.9724241083342425e-05,-1.342911133470181e-07
-0.007048673916683586,-4.319846707934433e-05,-1.550217903876898e-07
-0.007247701462353138,-4.677256092410351e-05,-1.7751454738855176e-07
-0.007445227184364201,-5.0445793085782847e-05,-2.0181913589102334e-07
-0.0076411660256845305,-5.421739138829503e-05,-2.279849320095428e-07
-0.00783543603529352,-5.8086541903539544e-05,-2.560609153325015e-07
-0.008027960844751516,-6.20523911235508e-05,-2.8609564858927404e-07
-0.00821867190314014,-6.611404931052372e-05,-3.1813725869779265e-07
-0.008407510389890948,-7.02705948837815e-05,-3.5223341974636894e-07
-0.008594428722897143,-7.452107966197851e-05,-3.8843133838280894e-07
-0.008779391579518276,-7.886453473758236e-05,-4.2677774198269917e-07
-0.00896237635328369,-8.329997672078286e-05,-4.6731886984729045e-07
-0.009143372987056872,-8.7826414055868e-05,-5.101004675414532e-07
-0.009322383156400018,-9.244285309173222e-05,-5.551677843283533e-07
-0.009499418816053736,-9.714830358484566e-05,-6.025655734974977e-07
-0.009674500154165686,-0.00010194178332740051,-6.523380952255593e-07
-0.009847653014434667,-0.0001068223216195506,-7.045291214622971e-07
-0.010018905847813172,-0.00011178896133511256,-7.591819422009629e-07
-0.010188286253268735,-0.00011684075936038303,-8.163393723748368e-07
-0.010355817171573866,-0.00012197678521659368,-8.760437585190809e-07
-0.01052151280942444,-0.00012719611771184325,-9.383369842511901e-07
-0.010685374386500928,-0.0001324978395108246,-1.0032604735568571e-06
-0.010847385806781872,-0.0001378810295591453,-1.0708551908243495e-06
-0.011007509355848424,-0.00014334475334980287,-1.1411616365515865e-06
-0.011165681524288217,-0.00014888805106983704,-1.2142198376564965e-06
-0.011321809058117083,-0.00015450992371543836,-1.2900693313528154e-06
-0.011475765337496667,-0.0001602093173143418,-1.3687491416102605e-06
-0.01162738717670325,-0.00016598510544289178,-1.450297747299569e-06
-0.011776472115660202,-0.00017183607026598265,-1.5347530412267875e-06
-0.01192277624023674,-0.00017776088235495687,-1.6221522793820224e-06
-0.012066012537883879,-0.00018375807954948702,-1.7125320198581332e-06
-0.012205849780133607,-0.0001898260451289914,-1.8059280510277528e-06
-0.012341911927741419,-0.00019596298555596016,-1.9023753086989906e-06
-0.012473778069474124,-0.00020216690805526405,-2.0019077821017967e-06
-0.01260098291877497,-0.00020843559830232634,-2.104558408691194e-06
-0.012723017896435653,-0.00021476659850612899,-2.210358957893308e-06
-0.01283933282168982,-0.00022115718618566035,-2.3193399040662556e-06
-0.012949338219849643,-0.00022760435394604523,-2.431530289099182e-06
-0.013052408234059867,-0.0002341047905595226,-2.546957575225574e-06
-0.013147884108337725,-0.000240654863645122,-2.6656474887767354e-06
-0.013235078194732746,-0.0002472506042208896,-2.7876238557432384e-06
-0.013313278428568507,-0.00025388769337671493,-2.9129084301426395e-06
-0.013381753207364245,-0.00026056145128569813,-3.0415207163082427e-06
-0.013439756599561701,-0.0002672668287374296,-3.1734777863140246e-06
-0.013486533802898425,-0.0002739984013380446,-3.308794093832893e-06
-0.013521326774755314,-0.00028075036648245806,-3.4474812857880187e-06
-0.013543379971154807,-0.0002875165431689356,-3.589548013200867e-06
-0.013551946153353879,-0.00029429037470006276,-3.7349997426681167e-06
-0.01354629223850872,-0.0003010649342980284,-3.8838385699176395e-06
-0.013525705171488652,-0.00030783293365052773,-4.036063036904779e-06
-0.013489497778201414,-0.00031458673438795025,-4.1916679539143985e-06
-0.013437014537130495,-0.0003213183624667832,-4.350644228128082e-06
-0.013367637186491995,-0.0003280195253976888,-4.5129787000941994e-06
-0.013280790077930316,-0.0003346816322137944,-4.67865398949707e-06
-0.013175945197505506,-0.0003412958160326534,-4.8476483515586815e-06
-0.013052626793283622,-0.00034785295903035063,-5.019935545324433e-06
-0.012910415562777802,-0.000354343719619366,-5.195484714986862e-06
-0.012748952360560872,-0.0003607585616002007,-5.374260285291754e-06
-0.01256794139770449,-0.000367087785039767,-5.556221871951746e-06
-0.012367152927269991,-0.00037332155862101064,-5.7413242078669406e-06
-0.012146425437142849,-0.00037944995321211386,-5.929517085825222e-06
-0.011905667390869996,-0.00038546297641911705,-6.12074531823303e-06
-0.011644858562560425,-0.00039135060790747463,-6.314948714314678e-06
-0.01136405100509032,-0.0003971028352993873,-6.512062075116393e-06
-0.01106336967794759,-0.0004027096904701468,-6.712015206558776e-06
-0.010743012750138715,-0.00040816128607716834,-6.914732950695605e-06
-0.01040325159135528,-0.0004134478521625418,-7.120135235255533e-06
-0.010044430470907447,-0.00041855977267810747,-7.3281371414656955e-06
-0.009666965990823416,-0.00042348762179354017,-7.538648990083607e-06
-0.009271346281261564,-0.0004282221998615614,-7.751576445497383e-06
-0.008858129985919677,-0.0004327545689283567,-7.966820637694863e-06
-0.008427945065555139,-0.00043707608769122543,-8.184278301849758e-06
-0.007981487442173356,-0.00044117844581815753,-8.403841935227103e-06
-0.007519519485191155,-0.00044505369754999866,-8.625399971069143e-06
-0.007042868308887754,-0.00044869429449851837,-8.848836969081272e-06
-0.0065524238291654055,-0.0004520931175330317,-9.074033822089159e-06
-0.00604913653315137,-0.0004552435076236109,-9.300867978378319e-06
-0.005534014940382109,-0.00045813929549199425,-9.52921367915722e-06
-0.005008122758725334,-0.0004607748299167711,-9.758942210509411e-06
-0.004472575748960606,-0.0004631450045436926,-9.989922169124527e-06
-0.003928538308911922,-0.00046524528305816077,-1.022201974102499e-05
-0.003377219776838427,-0.00046707172257959837,-1.045509899243443e-05
-0.002819870442580629,-0.00046862099513445314,-1.0689022171862943e-05
-0.0022577772535329215,-0.00046989040705848153,-1.0923650022411177e-05
-0.0016922592127960802,-0.0004708779161750638,-1.1158842103219564e-05
-0.001124662478490138,-0.0004715821465978853,-1.1394457118912802e-05
-0.000556355177276665,-0.000472002401011827,-1.163035325581523e-05
1.1278054272746151e-05,-0.000472138670292578,-1.1866388523641332e-05
0.0005768417828262661,-0.00047199164033330326,-1.2102421101297802e-05
0.0011389357234710851,-0.0004715626959567289,-1.233830968537031e-05
0.0016961608946102459,-0.0004708539218022086,-1.2573913839810045e-05
0.002247125962814472,-0.0004698681000878524,-1.280909434528256e-05
0.0027904537544354616,-0.00046860870515853993,-1.3043713546594158e-05
0.003324787897280144,-0.000467079894745611,-1.3277635696570196e-05
0.003848799536927076,-0.0004652864978870592,-1.3510727294728363e-05
0.0043611940582984066,-0.0004632339994882528,-1.3742857419072191e-05
0.004860717740930977,-0.00046092852153844545,-1.3973898049328866e-05
0.0053461642837884455,-0.0004583768010322656,-1.4203724379971543e-05
0.00581638114217556,-0.0004555861646757746,-1.4432215121398552e-05
0.006270275619347088,-0.00045256450048539393,-1.4659252787688844e-05
0.006706820653593586,-0.00044932022641715875,-1.4884723969414483e-05
0.007125060245620563,-0.0004458622561923552,-1.5108519590066861e-05
0.007524114481232043,-0.00044219996251064204,-1.533053514474261e-05
0.007903184116472681,-0.0004383431378612159,-1.5550670919835576e-05
0.00826155470267542,-0.00043430195315642884,-1.5768832192589988e-05
0.008598600233756356,-0.0004300869144223209,-1.5984929409484674e-05
0.008913786294146775,-0.0004257088177903451,-1.6198878342537842e-05
0.009206672676342573,-0.00042117870304772277,-1.641060022274736e-05
0.009476915434366375,-0.0004165078060200455,-1.66200218500143e-05
0.009724268350951719,-0.000411707510073716,-1.682707567903774e-05
0.00994858381616106,-0.0004067892970319378,-1.7031699880814155e-05
0.010149813134338432,-0.00040176469779431293,-1.7233838379520717e-05
0.010328006292346743,-0.0003966452429376416,-1.7433440864703705e-05
0.010483311235292751,-0.00039144241355573174,-1.763046277882705e-05
0.010615972702419483,-0.0003861675925713037,-1.782486528035881e-05
0.010726330670168018,-0.00038083201672815684,-1.8016615182683672e-05
0.010814818431703685,-0.00037544672945268894,-1.8205684869228884e-05
0.010881960319758629,-0.00037002253476482337,-1.839205218528326e-05
0.010928369063154088,-0.00036456995241909517,-1.857570030707924e-05
0.010954742764459797,-0.0003590991744621917,-1.8756617588799564e-05
0.010961861499101513,-0.00035362002339630135,-1.8934797388264188e-05
0.010950583559541024,-0.0003481419121316407,-1.9110237872146173e-05
0.01092184138866598,-0.00034267380589458895,-1.928294180165273e-05
0.010876637251060552,-0.0003372241862346573,-1.9452916299685043e-05
0.010816038677144136,-0.00033180101725260614,-1.962017260055686e-05
0.010741173693821979,-0.00032641171415986463,-1.9784725783409977e-05
0.010653225838733222,-0.00032106311427672584,-1.9946594490519124e-05
0.010553428947341301,-0.0003157614505802072,-2.0105800631733357e-05
0.010443061700379692,-0.000310512327918277,-2.0262369076357977e-05
0.010323441921084885,-0.00030532070201291084,-2.0416327333840774e-05
0.010195920615832502,-0.0003001908613786815,-2.0567705224688672e-05
0.010061875756576006,-0.00029512641228557937,-2.071653454310474e-05
0.00992270580910093,-0.00029013026689416014,-2.0862848712899674e-05
0.009779823020008198,-0.00028520463468688286,-2.1006682438294933e-05
0.009634646487461752,-0.00028035101731001537,-2.1148071351294158e-05
0.009488595053018732,-0.00027557020692489523,-2.1287051657352886e-05
0.009343080061609757,-0.0002708622881462381,-2.142365978112067e-05
0.009199498042652913,-0.00026622664362017245,-2.155793201406227e-05
0.009059223367583318,-0.0002616619632676134,-2.1689904165784217e-05
0.008923600939573752,-0.00025716625719082416,-2.1819611220898827e-05
0.008793938971007801,-0.0002527368722131788,-2.1947087003249828e-05
0.008671501902051494,-0.00024837051199491395,-2.207236384930185e-05
0.00855750350801443,-0.00024406326064239746,-2.219547229246118e-05
0.008453100234812954,-0.00023981060970669062,-2.2316440760048452e-05
0.008359384793663648,-0.00023560748844957146,-2.2435295284587517e-05
0.008277380040664367,-0.00023144829724098946,-2.2552059231010156e-05
0.008208033164095444,-0.0002273269439397995,-2.2666753041305354e-05
0.008152210200113799,-0.0002232368830987472,-2.277939399806499e-05
0.00811069089514741,-0.0002191711578249319,-2.288999600829591e-05
0.008084163931224754,-0.00021512244411833886,-2.2998569408781728e-05
0.008073222528041506,-0.0002110830975035223,-2.3105120794187193e-05
0.008078360430947461,-0.00020704520176377506,-2.3209652869004017e-05
0.008099968288253259,-0.0002030006195839749,-2.3312164324340955e-05
0.008138330420106617,-0.0001989410449068849,-2.341264974046367e-05
0.008193621991579149,-0.00019485805680396348,-2.3511099515891383e-05
0.008265906627480243,-0.00019074317464919864,-2.3607499823754674e-05
0.00835513454145164,-0.00018658791435696568,-2.3701832596006214e-05
0.008461141286362757,-0.00018238384540001209,-2.379407553594546e-05
0.00858364725361116,-0.0001781226482650186,-2.3884202159361717e-05
0.008722258048839807,-0.00017379617193940587,-2.3972181864412822e-05
0.008876465854209663,-0.0001693964909636435,-2.4057980030138585e-05
0.009045651859477845,-0.00016491596153522163,-2.41415581432633e-05
0.00922908980813429,-0.00016034727611831859,-2.4222873952676686e-05
0.009425950660896559,-0.00015568351600106088,-2.4301881650706533e-05
0.009635308331061682,-0.00015091820125307133,-2.4378532080020064e-05
0.009856146402528758,-0.0001460453375696737,-2.445277296472575e-05
0.010087365710915381,-0.00014105945954131268,-2.4524549164003498e-05
0.010327792658490155,-0.0001359556699489613,-2.4593802946376065e-05
0.010576188143024764,-0.00013072967474858256,-2.466047428255045e-05
0.010831256994323045,-0.0001253778134642456,-2.4724501154603658e-05
0.011091657815140377,-0.00011989708476187973,-2.478581987916019e-05
0.01135601311583121,-0.00011428516702913684,-2.4844365442107945e-05
0.011622919625030913,-0.0001085404338439213,-2.490007184232621e-05
0.011890958657210132,-0.00010266196427336104,-2.495287244185553e-05
0.012158706419718819,-9.66495480041288e-05,-2.50027003199249e-05
0.012424744146807502,-9.050368536249722e-05,-2.5049488628266558e-05
0.012687667960293546,-8.422558233572196e-05,-2.5093170945191113e-05
0.012946098376723654,-7.781714075146767e-05,-2.513368162596291e-05
0.013198689402975987,-7.128094380654276e-05,-2.5170956147102413e-05
0.013444137179331652,-6.462023716096585e-05,-2.520493144234429e-05
0.013681188139104114,-5.783890583135691e-05,-2.523554622809237e-05
0.01390864665771848,-5.094144713215126e-05,-2.526274131633325e-05
0.01412538216176294,-4.3932939927280904e-05,-2.528645991309811e-05
0.01433033566225061,-3.681901047127752e-05,-2.5306647900697747e-05
0.014522525672891822,-2.9605795137491913e-05,-2.532325410209994e-05
0.014701053478398311,-2.229990034966938e-05,-2.533623052597173e-05
0.01486510772611775,-1.4908360048540363e-05,-2.5345532591071284e-05
0.015013968318282993,-7.4385910374401766e-06,-2.535111932884278e-05
0.015147009578549744,1.0165343676800846e-07,-2.5352953563242948e-05
0.015263702660488898,7.70433149652767e-06,-2.5351002067009624e-05
0.015363617163728334,1.536116145258198e-05,-2.5345235693772346e-05
0.01544642192642616,2.3063671225120603e-05,-2.533562948560292e-05
0.015511884968600774,3.0803247948877335e-05,-2.532216275580942e-05
0.015559872569095924,3.857118733330151e-05,-2.5304819146988874e-05
0.015590347470015026,4.6358742343079245e-05,-2.528358666456978e-05
0.01560336621732838,5.41571707649151e-05,-2.525845768629278e-05
0.015599075666597413,6.195778123589655e-05,-2.5229428948292578e-05
0.015577708707243251,6.975197732935672e-05,-2.5196501508651265e-05
0.01553957928280499,7.753129932686878e-05,-2.515968068948721e-05
0.015485076804091807,8.528746334859297e-05,-2.5118975998818344e-05
0.015414660065705596,9.301239756604233e-05,-2.5074401033589686e-05
0.015328850785563865,0.00010069827527885969,-2.502597336537846e-05
0.015228226894606412,0.00010833754469890226,-2.497371441038402e-05
0.015113415708415845,0.00011592295534965783,-2.491764928537188e-05
0.014985087106444694,0.00012344758105337295,-2.485780665127112e-05
0.014843946822996038,0.00013090483953573313,-2.4794218546123845e-05
0.014690729922749475,0.0001382885087221695,-2.472692020905937e-05
0.014526194504180892,0.0001455927398289021,-2.4655949896921602e-05
0.014351115654581687,0.00015281206736859275,-2.458134869512223e-05
0.014166279669937621,0.0001599414161997226,-2.450316032423015e-05
0.013972478544601897,0.00016697610575335746,-2.4421430943741882e-05
0.013770504724903427,0.00017391185157073378,-2.4336208954410858e-05
0.013561146112519977,0.00018074476428008962,-2.4247544800448153e-05
0.013345181306898175,0.00018747134613494415,-2.4155490772844393e-05
0.01312337509264362,0.0001940884852348296,-2.406010081500195e-05
0.012896474197123193,0.0002005934475572713,-2.3961430331803923e-05
0.012665203351296613,0.00020698386694437625,-2.385953600317851e-05
0.01243026167882964,0.0002132577332019078,-2.375447560314194e-05
0.012192319425181232,0.00021941337847791053,-2.3646307825221984e-05
0.011952015030519358,0.00022544946209183568,-2.353509211507955e-05
0.011709952544021669,0.00023136495398547093,-2.342088851106022e-05
0.011466699360862717,0.00023715911696169204,-2.330375749332343e-05
0.011222784237944405,0.00024283148786139383,-2.318375984211766e-05
0.010978695524053176,0.0002483818578018932,-2.306095650570184e-05
0.010734879534627982,0.0002538102515665635,-2.2935408478359725e-05
0.010491739010732856,0.0002591169062029037,-2.280717668891736e-05
0.010249631620790121,0.00026430224886078447,-2.2676321900151436e-05
0.010008868484989311,0.00026936687388722934,-2.2542904619464432e-05
0.00976971272143875,0.00027431151918883636,-2.2406985021195417e-05
0.00953237803144572,0.0002791370418770575,-2.2268622880928945e-05
0.009297027359093516,0.0002838443932246923,-2.2127877522153507e-05
0.009063771671665123,0.00028843459298238196,-2.198480777560174e-05
0.008832668911092427,0.0002929087031280713,-2.1839471951574127e-05
0.008603723170537333,0.00029726780114847876,-2.169192782550499e-05
0.008376884156729238,0.0003015129529802954,-2.1542232636972797e-05
0.008152046997039867,0.0003056451857687377,-2.139044310228554e-05
0.007929052431987589,0.0003096654606259946,-2.1236615440686855e-05
0.0077076874055797065,0.0003135746455853864,-2.108080541413401e-05
0.007487686042428082,0.00031737348894738835,-2.0923068380500816e-05
0.007268730991297729,0.0003210625932058198,-2.0763459359962514e-05
0.00705045511622171,0.00032464238973269966,-2.0602033114227886e-05
0.0068324435164511905,0.00032811311439086787,-2.0438844238196993e-05
0.006614235848544816,0.00033147478423211686,-2.0273947263541248e-05
0.006395328913118008,0.00033472717542253256,-2.0107396773627587e-05
0.006175179464460152,0.0003378698025169271,-1.993924752914272e-05
0.005953207207576015,0.00034090189918493615,-1.9769554603717257e-05
0.005728797963348166,0.00034382240047766717,-1.9598373528801607e-05
0.0055013070027562505,0.0003466299267191933,-1.942576044700239e-05
0.005270062564945443,0.0003493227691111187,-1.9251772273044812e-05
0.005034369574558416,0.0003518988771459947,-1.9076466861480534e-05
0.00479351356672631,0.00035435584793131586,-1.8899903180211206e-05
0.004546764824139708,0.00035669091752903235,-1.872214148884612e-05
0.004293382732393892,0.00035890095441816575,-1.854324352085932e-05
0.004032620362955398,0.00036098245519200305,-1.8363272668456776e-05
0.0037637292959629342,0.00036293154260673264,-1.8182294169007092e-05
0.0034859647012143256,0.00036474396610602694,-1.80003752918289e-05
0.0031985907069598334,0.0003664151049580705,-1.781758552406288e-05
0.0029008860967659643,0.0003679399741590019,-1.7633996754283612e-05
0.002592150373980639,0.00036931323327668857,-1.744968345242469e-05
0.002271710213847618,0.00037052919842364565,-1.7264722844499605e-05
0.001938926286999898,0.00037158185754885756,-1.707919508050648e-05
0.0015932003960072974,0.0003724648892196094,-1.6893183393814365e-05
0.001233982834378233,0.00037317168502720575,-1.6706774250252662e-05
0.0008607798651027645,0.000373695375702076,-1.652005748507034e-05
0.0004731612196087452,0.0003740288609732539,-1.6333126425901507e-05
7.076752316717155e-05,0.00037416484315894784,-1.6146077999868457e-05
-0.00034668245033142337,0.00037409586442715677,-1.595901282297193e-05
-0.0007793847986246769,0.00037381434761491774,-1.577203526996141e-05
-0.0012274438942276606,0.00037331264044170465,-1.5585253522947255e-05
-0.001690866275739082,0.00037258306289921297,-1.5398779597112025e-05
-0.002169555126425456,0.00037161795754867184,-1.5212729342000054e-05
-0.0026633054325264083,0.0003704097424089339,-1.5027222417010653e-05
-0.0031717999077282974,0.0003689509660738702,-1.4842382239889952e-05
-0.0036946057613728173,0.00036723436465659493,-1.4658335907207336e-05
-0.0042311723716085044,0.00036525292012334963,-1.447521408601235e-05
-0.004780829903351263,0.0003629999195546097,-1.4293150876092861e-05
-0.005342788894037728,0.0003604690148552624,-1.4112283642490393e-05
-0.005916140822627171,0.0003576542824260962,-1.3932752818170054e-05
