frame_number,force
0,781.475719105792
1,781.4583183433505
2,781.4410419282119
3,781.4238798201437
4,781.4068231059528
5,781.3898641650053
6,781.37299679272
7,781.3562162814724
8,781.3395194601474
9,781.3229046941403
10,781.3063718474377
11,781.2899222084247
12,781.2735583816465
13,781.2572841486212
14,781.2411043016923
15,781.2250244556916
16,781.2090508428472
17,781.1931900969562
18,781.1774490332086
19,781.1618344299028
20,781.1463528178147
21,781.1310102828372
22,781.1158122878757
23,781.1007635204124
24,781.0858677723234
25,781.0711278585127
26,781.0565455805184
27,781.0421217398067
28,781.0278562028507
29,781.0137480169628
30,780.9997955733254
31,780.9859968124224
32,780.9723494669631
33,780.9588513375533
34,780.9455005960153
35,780.9322961102014
36,780.9192377829139
37,780.9063268968642
38,780.8935664575591
39,780.8809615261399
40,780.8685195341286
41,780.8562505720125
42,780.8441676442584
43,780.8322868851541
44,780.8206277325114
45,780.8092130587077
46,780.7980692597399
47,780.7872263026304
48,780.7767177303039
49,780.7665806220083
50,780.756855507035
51,780.7475862299534
52,780.7388197667138
53,780.7306059926058
54,780.7229974046896
55,780.7160488024617
56,780.7098169312171
57,780.7043600932415
58,780.6997377327212
59,780.696010000761
60,780.6932373066935
61,780.6914798607314
62,780.6907972112332
63,780.6912477784572
64,780.6928883866293
65,780.6957737974847
66,780.6999562503265
67,780.705485015185
68,780.7124059661745
69,780.7207611813649
70,780.7305885740034
71,780.7419215588124
72,780.7547887565254
73,780.7692137389206
74,780.7852148148111
75,780.802804855294
76,780.8219911550216
77,780.8427753258212
78,780.8651532195381
79,780.8891148780017
80,780.914644508886
81,780.941720486415
82,780.9703153753546
83,781.0003959761889
84,781.0319233892382
85,781.0648530955133
86,781.0991350520643
87,781.1347138000268
88,781.1715285852608
89,781.2095134940294
90,781.2485976078578
91,781.2887051812779
92,781.3297558441477
93,781.3716648283005
94,781.41434321741
95,781.4576982192041
96,781.5016334600525
97,781.546049302844
98,781.590843189183
99,781.6359100061165
100,781.6811424766757
101,781.7264315731912
102,781.7716669522988
103,781.8167374102276
104,781.861531356578
105,781.9059373048121
106,781.9498443778842
107,781.9931428271581
108,782.0357245616902
109,782.0774836834614
110,782.1183170230273
111,782.1581246698852
112,782.1968104924441
113,782.2342826430211
114,782.270454043288
115,782.3052428454537
116,782.3385728647763
117,782.3703739798281
118,782.4005824978907
119,782.429141483685
120,782.456001050029
121,782.4811186086991
122,782.5044590790262
123,782.5259950515392
124,782.5457069048854
125,782.5635828758506
126,782.579619083819
127,782.5938195123044
128,782.6061959512313
129,782.6167679041656
130,782.6255624642405
131,782.6326141611113
132,782.6379647794867
133,782.6416631484672
134,782.6437649006904
135,782.6443322013099
136,782.6434334486889
137,782.6411429503283
138,782.6375405779053
139,782.6327114042099
140,782.626745323071
141,782.6197366520347
142,782.6117837169426
143,782.6029884174105
144,782.5934557723676
145,782.5832934451475
146,782.5726112480036
147,782.5615206263674
148,782.5501341238811
149,782.538564830196
150,782.5269258145144
151,782.515329548623
152,782.5038873236427
153,782.4927086648981
154,782.481900749352
155,782.4715678300338
156,782.4618106717119
157,782.4527260016107
158,782.4444059783057
159,782.436937681277
160,782.4304026231662
161,782.4248762865543
162,782.4204276869121
163,782.4171189631778
164,782.4150049972576
165,782.414133063549
166,782.414542509218
167,782.4162644655023
168,782.4193215902189
169,782.4237278424847
170,782.4294882926384
171,782.436598973145
172,782.4450467790138
173,782.4548094278965
174,782.4658554900291
175,782.4781444967919
176,782.4916271344454
177,782.5062455267267
178,782.5219336064894
179,782.5386175727605
180,782.5562164261081
181,782.5746425727897
182,782.5938024873784
183,782.6135974243148
184,782.6339241699155
185,782.6546758266078
186,782.675742620572
187,782.6970127234127
188,782.718373078361
189,782.7397102216552
190,782.7609110901345
191,782.7818638070468
192,782.8024584396854
193,782.8225877242295
194,782.8421477545199
195,782.8610386323104
196,782.8791650768324
197,782.8964369913234
198,782.912769983671
199,782.9280858380464
200,782.9423129347429
201,782.9553866160876
202,782.9672494966195
203,782.9778517154343
204,782.9871511281214
205,782.9951134355558
206,783.0017122470516
207,783.0069290758454
208,783.010753265539
209,783.0131818470092
210,783.0142193264753
211,783.013877407038
212,783.0121746479388
213,783.0091360677186
214,783.0047926989962
215,782.9991811036683
216,782.9923428580671
217,782.9843240182087
218,782.9751745756319
219,782.9649479138425
220,782.9537002736625
221,782.941490233287
222,782.9283782065021
223,782.9144259609529
224,782.8996961575184
225,782.8842519111872
226,782.8681563729658
227,782.8514723316918
228,782.8342618348967
229,782.8165858291904
230,782.7985038221802
231,782.780073568553
232,782.7613507823195
233,782.7423888761508
234,782.723238728116
235,782.703948475625
236,782.6845633350855
237,782.6651254437743
238,782.6456737187963
239,782.6262437275685
240,782.6068675650137
241,782.5875737341604
242,782.5683870285526
243,782.5493284163906
244,782.5304149277904
245,782.5116595479634
246,782.4930711200269
247,782.474654261444
248,782.4564092984037
249,782.438332222974
250,782.4204146777267
251,782.4026439710793
252,782.3850031243409
253,782.3674709495795
254,782.3500221566917
255,782.3326274881682
256,782.3152538800659
257,782.2978646470591
258,782.2804196885802
259,782.2628757127209
260,782.2451864750711
261,782.2273030309549
262,782.2091740011376
263,782.1907458521855
264,782.1719631927036
265,782.1527690861229
266,782.1331053803885
267,782.1129130550426
268,782.0921325864458
269,782.0707043321133
270,782.0485689356249
271,782.0256677544704
272,782.0019433140395
273,781.9773397909062
274,781.9518035270052
275,781.9252835734042
276,781.8977322590249
277,781.8691057770905
278,781.8393647811001
279,781.8084749824301
280,781.7764077420718
281,781.7431406487756
282,781.7086580752743
283,781.6729517039951
284,781.6360210138682
285,781.5978737203355
286,781.5585261611911
287,781.5180036213652
288,781.4763405904692
289,781.4335809482259
290,781.3897780746037
291,781.3449948828295
292,781.299303774045
293,781.2527865125054
294,781.2055340204125
295,781.1576460919761
296,781.1092310270774
297,781.0604051860151
298,781.0112924682853
299,780.9620237199907
300,780.9127360759159
301,780.8635722432363
302,780.8146797342852
303,780.7662100559895
304,780.7183178636441
305,780.6711600866519
306,780.6248950338666
307,780.5796814865145
308,780.5356777873204
309,780.4930409349503
310,780.4519256927815
311,780.4124837203335
312,780.3748627346591
313,780.3392057078217
314,780.3056501054907
315,780.2743271710076
316,780.2453612591603
317,780.2188692240221
318,780.1949598649423
319,780.1737334337095
320,780.1552812043054
321,780.1396851050894
322,780.1270174119442
323,780.1173404999229
324,780.1107066503935
325,780.1071579106243
326,780.1067260027751
327,780.1094322788662
328,780.1152877177021
329,780.1242929597743
330,780.1364383773207
331,780.1517041784618
332,780.1700605458575
333,780.1914678114025
334,780.2158766692195
335,780.2432284295838
336,780.2734553161765
337,780.3064808081106
338,780.342220026784
339,780.3805801661554
340,780.4214609637187
341,780.4647552083462
342,780.510349280299
343,780.558123718002
344,780.60795380544
345,780.659710173362
346,780.7132594072294
347,780.7684646552992
348,780.8251862314113
349,780.8832822089142
350,780.9426090044559
351,781.0030219524119
352,781.0643758716817
353,781.126525626097
354,781.1893266781296
355,781.2526356336018
356,781.3163107733742
357,781.3802125671587
358,781.4442041649119
359,781.5081518622483
360,781.5719255370446
361,781.6353990542971
362,781.6984506353152
363,781.7609631858614
364,781.822824576309
365,781.8839278660469
366,781.944171465214
367,782.0034592298757
368,782.0617004912959
369,782.1188100246497
370,782.1747079660793
371,782.2293196886991
372,782.2825756478646
373,782.3344112043155
374,782.3847664317697
375,782.433585913944
376,782.48081853495
377,782.5264172663416
378,782.5703389536624
379,782.6125441052568
380,782.6529966864906
381,782.6916639232152
382,782.7285161188267
383,782.7635264891384
384,782.7966710184509
385,782.8279283389721
386,782.857279634352
387,782.8847085666259
388,782.9102012242794
389,782.9337460876858
390,782.9553340072333
391,782.9749581891659
392,782.9926141840551
393,783.0082998725843
394,783.0220154435519
395,783.0337633604943
396,783.0435483160734
397,783.0513771763768
398,783.0572589193255
399,783.0612045719205
400,783.0632271505118
401,783.0633416075622
402,783.0615647879667
403,783.0579153974215
404,783.0524139840502
405,783.0450829328126
406,783.0359464710755
407,783.0250306834569
408,783.0123635340295
409,782.9979748934848
410,782.9818965681146
411,782.9641623272021
412,782.9448079260063
413,782.9238711226735
414,782.9013916884352
415,782.8774114107332
416,782.8519740882828
417,782.8251255161715
418,782.7969134588069
419,782.7673876091612
420,782.7365995337245
421,782.7046026031385
422,782.6714519085406
423,782.6372041636263
424,782.6019175926838
425,782.5656518053084
426,782.5284676589185
427,782.4904271104525
428,782.451593058635
429,782.412029177927
430,782.3717997449771
431,782.3309694585104
432,782.2896032544392
433,782.2477661194287
434,782.205522907543
435,782.1629381650835
436,782.1200759679795
437,782.0769997747113
438,782.0337722967363
439,781.9904553882634
440,781.9471099574238
441,781.9037959004017
442,781.8605720585397
443,781.8174961962401
444,781.7746249955198
445,781.7320140619489
446,781.6897179364448
447,781.6477901074522
448,781.6062830180117
449,781.5652480623322
450,781.5247355671384
451,781.4847947541124
452,781.4454736808033
453,781.4068191583096
454,781.3688766451332
455,781.3316901181167
456,781.2953019231395
457,781.2597526095582
458,781.2250807526077
459,781.1913227671196
460,781.1585127145804
461,781.1266821042884
462,781.0958596884767
463,781.0660712510563
464,781.037339390272
465,781.0096832966364
466,780.9831185282724
467,780.9576567863223
468,780.9333056941686
469,780.9100685860826
470,780.8879443127266
471,780.8669270716816
472,780.8470062706009
473,780.8281664292604
474,780.810387125616
475,780.7936429904651
476,780.7779037549334
477,780.7631343538627
478,780.7492950860159
479,780.7363418296726
480,780.7242263105738
481,780.7128964183156
482,780.7022965667137
483,780.6923680932491
484,780.6830496927454
485,780.6742778806507
486,780.6659874809274
487,780.6581121323717
488,780.6505848059038
489,780.643338324915
490,780.6363058814021
491,780.6294215417392
492,780.6226207368904
493,780.6158407325572
494,780.6090210754768
495,780.6021040128154
496,780.5950348821112
497,780.587762469416
498,780.5802393332942
499,780.5724220923175
500,780.564271673681
501,780.5557535204965
502,780.5468377552124
503,780.5374992966299
504,780.5277179284593
505,780.5174783183686
506,780.506769987643
507,780.4955872324301
508,780.4839289982236
509,780.4717987102439
510,780.4592040637298
511,780.4461567792846
512,780.4326723287178
513,780.4187696361363
514,780.4044707577972
515,780.3898005433591
516,780.3747862813752
517,780.3594573330121
518,780.3438447590531
519,780.3279809453975
520,780.3118992316753
521,780.2956335469063
522,780.2792180556253
523,780.2626868176883
524,780.2460734653482
525,780.2294109021882
526,780.2127310295652
527,780.1960645065471
528,780.1794405487786
529,780.1628867709048
530,780.1464290765927
531,780.1300915995906
532,780.1138966979746
533,780.0978650015571
534,780.0820155098814
535,780.0663657357491
536,780.050931886955
537,780.0357290770663
538,780.0207715552361
539,780.0060729453983
540,779.9916464862912
541,779.9775052650482
542,779.9636624382143
543,779.9501314349824
544,779.9369261385516
545,779.9240610431445
546,779.9115513861436
547,779.8994132563088
548,779.8876636797547
549,779.8763206854921
550,779.8654033521112
551,779.8549318363588
552,779.8449273828184
553,779.8354123123341
554,779.826409986305
555,779.8179447447857
556,779.8100418177404
557,779.8027272100702
558,779.7960275619807
559,779.7899699867934
560,779.7845818881968
561,779.7798907579797
562,779.7759239536737
563,779.7727084540712
564,779.7702705901586
565,779.7686357497859
566,779.7678280558201
567,779.7678700190799
568,779.7687821690207
569,779.7705826670294
570,779.7732869089549
571,779.7769071245764
572,779.7814519820691
573,779.7869262059373
574,779.7933302177477
575,779.800659809631
576,779.8089058601344
577,779.8180541007322
578,779.8280849398175
579,779.8389733495408
580,779.8506888192242
581,779.8631953772807
582,779.8764516820662
583,779.8904111812116
584,779.9050223386444
585,779.9202289284787
586,779.9359703949351
587,779.9521822770697
588,779.9687966960518
589,779.9857429011731
590,780.0029478690791
591,780.0203369492073
592,780.0378345471851
593,780.0553648369341
594,780.0728524912087
595,780.0902234190695
596,780.1074054976101
597,780.1243292847092
598,780.1409287001197
599,780.1571416636675
600,780.1729106808541
601,780.1881833668252
602,780.2029128996379
603,780.217058394181
604,780.23058518975
605,780.2434650468027
606,780.2556762509967
607,780.2672036250103
608,780.2780384511154
609,780.288178310096
610,780.2976268445469
611,780.3063934562831
612,780.3144929484054
613,780.3219451229998
614,780.3287743461134
615,780.3350090925284
616,780.3406814830155
617,780.3458268254343
618,780.3504831684121
619,780.3546908731579
620,780.3584922057993
621,780.3619309498964
622,780.3650520368798
623,780.3679011912451
624,780.3705245873676
625,780.3729685155829
626,780.3752790562703
627,780.3775017615068
628,780.3796813442597
629,780.3818613756338
630,780.384083991949
631,780.3863896150522
632,780.3888166902791
633,780.3914014463894
634,780.3941776810809
635,780.3971765749925
636,780.4004265365606
637,780.4039530793348
638,780.4077787323807
639,780.4119229838507
640,780.4164022582167
641,780.4212299286233
642,780.4264163663642
643,780.4319690291196
644,780.4378925882571
645,780.4441890935284
646,780.450858171735
647,780.4578972551332
648,780.4653018353055
649,780.4730657382181
650,780.4811814162575
651,780.489640253866
652,780.4984328847746
653,780.5075495196778
654,780.5169802828091
655,780.5267155546406
656,780.5367463164562
657,780.5470644911119
658,780.557663273202
659,780.5685374415883
660,780.5796836480895
661,780.5911006774975
662,780.6027896750494
663,780.6147543375534
664,780.6270010637268
665,780.639539058428
666,780.6523803846925
667,780.6655399569497
668,780.6790354688775
669,780.6928872505824
670,780.7071180523319
671,780.72175275537
672,780.7368180140293
673,780.7523418373037
674,780.7683531219176
675,780.7848811517972
676,780.8019550798526
677,780.8196034070158
678,780.8378534713946
679,780.8567309581723
680,780.876259438879
681,780.8964599465266
682,780.9173505905383
683,780.9389462127665
684,780.9612580839415
685,780.9842936389274
686,781.0080562489695
687,781.0325450293201
688,781.0577546810921
689,781.0836753669078
690,781.1102926207071
691,781.1375872924621
692,781.1655355279844
693,781.1941087826515
694,781.223273866411
695,781.2529930165772
696,781.283223994956
697,781.3139202066409
698,781.3450308391991
699,781.3765010228163
700,781.4082720142225
701,781.4402814094113
702,781.4724633913097
703,781.504749017883
704,781.5370665539297
705,781.5693418469942
706,781.6014987453339
707,781.633459554097
708,781.6651455249711
709,781.6964773745199
710,781.7273758268719
711,781.7577621766233
712,781.7875588673775
713,781.8166900805129
714,781.8450823280439
715,781.8726650430544
716,781.8993711610556
717,781.925137685731
718,781.9499062330023
719,781.9736235480026
720,781.9962419899496
721,782.0177199798746
722,782.0380224061041
723,782.0571209825578
724,782.0749945552769
725,782.0916293531888
726,782.1070191799664
727,782.1211655446604
728,782.1340777292601
729,782.1457727915449
730,782.1562755017344
731,782.1656182117874
732,782.1738406568412
733,782.1809896892042
734,782.1871189464315
735,782.1922884560781
736,782.1965641805174
737,782.2000175057108
738,782.2027246784983
739,782.2047661982473
740,782.2062261702829
741,782.2071916296245
742,782.2077518437038
743,782.2079976025218
744,782.2080205050646
745,782.2079122518834
746,782.2077639545864
747,782.2076654726178
748,782.2077047860836
749,782.2079674112136
750,782.2085358627203
751,782.2094891648076
752,782.2109024102396
753,782.2128463655692
754,782.2153871208843
755,782.2185857836665
756,782.2224982174117
757,782.2271748257689
758,782.2326603821602
759,782.23899390347
760,782.246208564665
761,782.2543316493727
762,782.2633845299142
763,782.2733826694894
764,782.2843356392843
765,782.2962471440873
766,782.3091150514474
767,782.322931421501
768,782.3376825371391
769,782.3533489366775
770,782.3699054529234
771,782.387321263037
772,782.4055599530055
773,782.4245795997552
774,782.4443328739691
775,782.4647671676557
776,782.4858247514699
777,782.5074429665503
778,782.5295544541178
779,782.5520874242966
780,782.5749659647553
781,782.5981103899239
782,782.6214376320443
783,782.644861675504
784,782.6682940355596
785,782.6916442814705
786,782.7148206021222
787,782.7377304097914
788,782.7602809756897
789,782.7823800901265
790,782.8039367406878
791,782.8248618029817
792,782.8450687390181
793,782.8644742973707
794,782.8829992070524
795,782.9005688545298
796,782.9171139315673
797,782.9325710409468
798,782.9468832470928
799,782.9600005590037
800,782.9718803340252
801,782.9824875932605
802,782.9917952421491
803,782.999784191975
804,783.0064433796714
805,783.0117696852618
806,783.015767749235
807,783.0184496954588
808,783.0198347678233
809,783.019948890399
810,783.01882416182
811,783.0164982950821
812,783.0130140139377
813,783.0084184167068
814,783.0027623177806
815,782.9960995763225
816,782.9884864203386
817,782.9799807725028
818,782.9706415825735
819,782.9605281705511
820,782.9496995848654
821,782.9382139805169
822,782.9261280230147
823,782.9134963250692
824,782.9003709239684
825,782.8868008077217
826,782.8728314972149
827,782.8585046904462
828,782.8438579742007
829,782.8289246080558
830,782.8137333845705
831,782.7983085674782
832,782.782669907244
833,782.7668327312218
834,782.7508081042014
835,782.7346030540992
836,782.7182208566736
837,782.7016613723775
838,782.6849214279331
839,782.6679952349728
840,782.6508748381738
841,782.6335505855343
842,782.6160116133843
843,782.5982463379404
844,782.5802429439135
845,782.5619898596694
846,782.5434762084058
847,782.5246922256548
848,782.5056296347032
849,782.4862819730506
850,782.4666448649315
851,782.4467162372605
852,782.4264964788118
853,782.405988544425
854,782.3851980071125
855,782.3641330613079
856,782.3428044808007
857,782.3212255355331
858,782.299411872168
859,782.2773813638436
860,782.2551539348178
861,782.2327513659965
862,782.2101970876593
863,782.1875159656038
864,782.1647340858946
865,782.1418785415952
866,782.1189772230441
867,782.0960586120934
868,782.0731515805019
869,782.0502851932104
870,782.0274885180025
871,782.0047904433942
872,781.98221950649
873,781.959803732506
874,781.9375704880189
875,781.9155463503129
876,781.8937569948794
877,781.872227102221
878,781.8509802841751
879,781.8300390296171
880,781.8094246696662
881,781.7891573626649
882,781.7692560984655
883,781.749738720081
884,781.7306219593817
885,781.7119214825409
886,781.6936519399354
887,781.6758270138866
888,781.6584594564692
889,781.6415611092867
890,781.6251428979733
891,781.6092147960103
892,781.5937857547044
893,781.5788635983015
894,781.5644548850972
895,781.5505647374334
896,781.5371966456568
897,781.5243522526866
898,781.5120311261023
899,781.5002305238532
900,781.488945158524
901,781.478166964081
902,781.4678848685992
903,781.4580845768578
904,781.4487483674958
905,781.4398549097269
906,781.4313791040098
907,781.4232919501529
908,781.4155604460399
909,781.4081475207812
910,781.4010120071933
911,781.3941086594535
912,781.3873882222032
913,781.3807975571581
914,781.3742798324322
915,781.3677747781975
916,781.3612190098761
