frame_number,force
0,781.6855708297015
1,781.6785484894898
2,781.6679716300685
3,781.6535970199824
4,781.635249232941
5,781.6128292212226
6,781.5863207660491
7,781.5557946978778
8,781.5214109747301
9,781.483418712396
10,781.4421541542017
11,781.3980364977905
12,781.3515615187482
13,781.3032930070865
14,781.2538521209875
15,781.2039048444545
16,781.154147809262
17,781.1052928160802
18,781.0580504422518
19,781.0131131085678
20,780.97113792383
21,780.9327296352109
22,780.8984241147051
23,780.868672933285
24,780.8438296650531
25,780.8241386347925
26,780.8097268380021
27,780.8005996255567
28,780.7966404261564
29,780.7976143856197
30,780.8031755002393
31,780.8128767179451
32,780.8261825484032
33,780.8424838293159
34,780.8611143132617
35,780.8813686386306
36,780.9025211120588
37,780.9238446655995
38,780.9446293772637
39,780.9641999830548
40,780.9819318046603
41,780.9972645063511
42,781.0097131788267
43,781.0188764976225
44,781.0244420721154
45,781.0261894287269
46,781.0239911970511
47,781.0178129461283
48,781.0077118542096
49,780.993834151369
50,780.9764111423258
51,780.9557536026125
52,780.9322444327662
53,780.9063296251145
54,780.8785077696745
55,780.8493184261014
56,780.8193297263101
57,780.7891256111388
58,780.759293163679
59,780.7304105302873
60,780.7030358483607
61,780.6776973905452
62,780.6548848370337
63,780.6350413568035
64,780.6185561673863
65,780.6057574544467
66,780.5969058383594
67,780.5921888344907
68,780.5917168610272
69,780.595521259561
70,780.6035546016309
71,780.6156934232532
72,780.6317434860918
73,780.6514475700615
74,780.6744955691953
75,780.7005363741285
76,780.7291908301919
77,780.7600650368524
78,780.7927633800995
79,780.8269008870589
80,780.8621146624548
81,780.8980742248352
82,780.9344905096509
83,780.9711232447502
84,781.0077864022763
85,781.0443514532428
86,781.080748159929
87,781.1169627216613
88,781.1530333623243
89,781.1890438525451
90,781.2251157308195
91,781.2613999267444
92,781.2980681845672
93,781.3353043910224
94,781.3732957873958
95,781.4122240932617
96,781.4522567205959
97,781.4935384091716
98,781.53618364704
99,781.5802701298197
100,781.6258333865957
101,781.6728626692279
102,781.7212982149769
103,781.771029962862
104,781.8218977648838
105,781.8736931547758
106,781.92616278705
107,781.9790136331532
108,782.0319198688587
109,782.0845311669377
110,782.1364819442937
111,782.1874010913823
112,782.2369218042189
113,782.2846912200356
114,782.3303795510207
115,782.373688377488
116,782.4143577963674
117,782.452172229084
118,782.4869648206293
119,782.5186204640462
120,782.5470775172294
121,782.5723281991587
122,782.5944175048195
123,782.6134404112737
124,782.6295372560005
125,782.6428873818771
126,782.6537013468666
127,782.6622121631117
128,782.6686661630051
129,782.6733141401845
130,782.676403315744
131,782.6781704344207
132,782.6788359944753
133,782.6785993889805
134,782.6776346810029
135,782.6760868772434
136,782.6740688374084
137,782.6716591968335
138,782.6689017226213
139,782.6658063417854
140,782.6623518038199
141,782.6584897228078
142,782.6541496351539
143,782.649244674738
144,782.6436774773173
145,782.6373459633102
146,782.6301486909168
147,782.621989523897
148,782.6127814496463
149,782.6024495130443
150,782.5909329623188
151,782.578186801344
152,782.5641829928996
153,782.5489115623217
154,782.5323818332491
155,782.5146240013157
156,782.4956912024487
157,782.4756621414409
158,782.4546442244194
159,782.432777021892
160,782.4102358091094
161,782.3872348875066
162,782.3640303611555
163,782.3409220149312
164,782.3182539235621
165,782.2964134051525
166,782.2758278973366
167,782.2569592916566
168,782.2402952837602
169,782.2263374705904
170,782.2155862854811
171,782.2085233561556
172,782.205592364263
173,782.2071798140751
174,782.2135971962391
175,782.2250659021934
176,782.2417059886825
177,782.2635295375377
178,782.290438905247
179,782.3222296585686
180,782.3585975439909
181,782.3991485521952
182,782.44341110448
183,782.4908495843166
184,782.5408786796979
185,782.5928781035125
186,782.6462072234252
187,782.7002190912402
188,782.7542733779455
189,782.8077477656285
190,782.8600474188879
191,782.9106123077198
192,782.9589223907229
193,783.0045009159159
194,783.0469162712842
195,783.0857828940676
196,783.1207617365814
197,783.1515606894467
198,783.1779352095595
199,783.1996892736651
200,783.2166767408705
201,783.2288032154328
202,783.2360284518311
203,783.238369198312
204,783.2359021987544
205,783.2287669468938
206,783.2171677236729
207,783.201374424164
208,783.1817216903268
209,783.1586059159255
210,783.1324797937652
211,783.1038442540058
212,783.0732378819401
213,783.0412241469777
214,783.008376971386
215,782.9752653017435
216,782.9424374365361
217,782.9104059446695
218,782.8796340642776
219,782.850524404691
220,782.8234105257294
221,782.7985516072007
222,782.7761300913601
223,782.7562519800763
224,782.7389493869912
225,782.7241848941418
226,782.7118571849193
227,782.7018073809634
228,782.6938256124974
229,782.6876576169414
230,782.6830114576986
231,782.6795646067535
232,782.6769715883124
233,782.6748722628433
234,782.6729007768398
235,782.6706951630676
236,782.6679074060953
237,782.6642135007688
238,782.6593227975967
239,782.652985873836
240,782.6450002921074
241,782.6352138440175
242,782.6235251364554
243,782.609881605917
244,782.5942752592512
245,782.5767366425325
246,782.5573276608204
247,782.5361338942856
248,782.5132570816155
249,782.4888084987359
250,782.462903916796
251,782.4356605746603
252,782.4071962297223
253,782.3776300417032
254,782.347084914127
255,782.315690923971
256,782.2835894640305
257,782.2509376205481
258,782.2179121763131
259,782.1847125826374
260,782.1515623346837
261,782.118708401993
262,782.0864186405873
263,782.054977314057
264,782.0246788936088
265,781.9958202607825
266,781.9686914333533
267,781.9435650074131
268,781.9206846022515
269,781.9002526887523
270,781.8824183189806
271,781.8672654767279
272,781.8548029643271
273,781.8449567951187
274,781.8375658806502
275,781.8323814100354
276,781.829069852572
277,781.8272191631779
278,781.8263476595639
279,781.825915120993
280,781.8253357472512
281,781.8239925931274
282,781.8212530069386
283,781.8164845519789
284,781.8090709033833
285,781.7984272586289
286,781.7840148403578
287,781.7653540911726
288,781.7420362051688
289,781.7137327696298
290,781.6802034701838
291,781.6413019306428
292,781.5969797527396
293,781.547288737613
294,781.4923811932343
295,781.4325081992271
296,781.3680157122712
297,781.2993384576532
298,781.2269916744551
299,781.1515609358999
300,781.0736903935929
301,780.9940698512866
302,780.9134210638783
303,780.8324836157896
304,780.7520006825661
305,780.6727049241064
306,780.5953047221428
307,780.5204710027257
308,780.4488249724137
309,780.3809271717032
310,780.3172682443053
311,780.2582617363303
312,780.2042391114612
313,780.1554470263238
314,780.1120467901732
315,780.0741158845689
316,780.0416514631652
317,780.0145758390659
318,779.9927439966241
319,779.9759530731375
320,779.963953582673
321,779.9564619843718
322,779.9531740700288
323,779.9537785650374
324,779.9579703241299
325,779.9654625633369
326,779.9759976381174
327,779.9893558784607
328,780.0053619561406
329,780.0238883201916
330,780.0448554656035
331,780.068229116039
332,780.0940146806493
333,780.1222495492243
334,780.1529939403107
335,780.1863211073307
336,780.2223076987763
337,780.2610249474985
338,780.302531171664
339,780.3468658647001
340,780.3940454660375
341,780.4440607487409
342,780.4968756407444
343,780.5524271990862
344,780.6106263523302
345,780.6713589287544
346,780.7344864550151
347,780.7998462818605
348,780.8672507755011
349,780.9364855986113
350,781.0073074534248
351,781.0794419648221
352,781.1525825139781
353,781.2263907384398
354,781.3004991470925
355,781.3745159614197
356,781.4480319931229
357,781.5206292012766
358,781.5918905791895
359,781.6614111277366
360,781.728809737423
361,781.7937417308058
362,781.8559116111519
363,781.9150852761984
364,781.9711006586863
365,782.0238755658513
366,782.0734115641536
367,782.1197931688703
368,782.1631822502701
369,782.2038082442856
370,782.2419552614192
371,782.2779474090815
372,782.3121335590738
373,782.3448724968239
374,782.3765190468044
375,782.4074115016033
376,782.4378605114795
377,782.4681394829637
378,782.4984764709366
379,782.5290475450918
380,782.5599716866242
381,782.5913073995391
382,782.6230513272874
383,782.6551391757386
384,782.6874491483926
385,782.7198079443377
386,782.7519991936517
387,782.7837740155595
388,782.8148631800632
389,782.8449901661662
390,782.8738843037468
391,782.9012931785701
392,782.9269934981778
393,782.9507996135397
394,782.9725689564589
395,782.9922039129613
396,783.00965010405
397,783.0248915331979
398,783.0379433975694
399,783.0488434588382
400,783.0576427966156
401,783.0643966679834
402,783.0691561395491
403,783.0719610747034
404,783.0728348614196
405,783.0717810041328
406,783.0687815219396
407,783.0637970487276
408,783.056768518898
409,783.0476202374665
410,783.0362640049344
411,783.0226039118786
412,783.0065414936665
413,782.9879810953337
414,782.966835436939
415,782.9430313909157
416,782.9165158621983
417,782.8872614962719
418,782.8552718719659
419,782.8205859100923
420,782.7832813549616
421,782.7434772504305
422,782.7013353190431
423,782.6570601299732
424,782.6108979632107
425,782.563134333057
426,782.5140901877813
427,782.4641168353039
428,782.4135896426801
429,782.3629005159466
430,782.3124491260005
431,782.2626328746912
432,782.2138357408074
433,782.166416389371
434,782.1206961661178
435,782.0769476991941
436,782.0353847420463
437,781.9961537056464
438,781.959327203333
439,781.9248999434681
440,781.8927873667212
441,781.8628273803938
442,781.8347853271525
443,781.8083620097658
444,781.7832043066007
445,781.7589177528331
446,781.7350804313614
447,781.7112575295107
448,781.6870159093753
449,781.661938047978
450,781.6356347873087
451,781.6077564743127
452,781.5780022043833
453,781.5461269916573
454,781.5119468176621
455,781.475341700052
456,781.4362571481125
457,781.3947045247103
458,781.3507608163718
459,781.3045681277662
460,781.25633295698
461,781.2063250619644
462,781.1548755441154
463,781.1023736997588
464,781.0492622543685
465,780.9960307312662
466,780.943206804429
467,780.8913455540525
468,780.8410167084537
469,780.7927902517988
470,780.7472210734949
471,780.7048334766375
472,780.6661063077352
473,780.6314593068611
474,780.6012411498783
475,780.5757196339971
476,780.5550744671838
477,780.5393930160734
478,780.5286691094126
479,780.522804710298
480,780.5216141015057
481,780.5248301787306
482,780.5321124368709
483,780.5430562504484
484,780.5572031306093
485,780.574051744676
486,780.5930694902729
487,780.6137042877078
488,780.6353961011887
489,780.6575876668447
490,780.6797340316226
491,780.701310698964
492,780.7218203295487
493,780.7407980485667
494,780.7578155064053
495,780.7724839266263
496,780.7844564174561
497,780.7934298069964
498,780.799146208435
499,780.8013944551865
500,780.8000114734051
501,780.7948835728304
502,780.7859475382667
503,780.7731913227015
504,780.7566541284667
505,780.7364257314888
506,780.7126449959819
507,780.68549757215
508,780.6552127901401
509,780.6220598384735
510,780.5863434491929
511,780.5483994168181
512,780.5085902615482
513,780.46730118365
514,780.4249362162824
515,780.3819143095436
516,780.3386650827043
517,780.2956241411175
518,780.2532280129013
519,780.2119087878912
520,780.1720884627603
521,780.1341729118359
522,780.0985453587579
523,780.0655592350946
524,780.035530421041
525,780.0087290797777
526,779.9853715288622
527,779.9656127163398
528,779.9495398635269
529,779.9371677913074
530,779.9284364404972
531,779.9232110889669
532,779.9212856525296
533,779.9223892026815
534,779.9261955179312
535,779.9323351784697
536,779.9404094311712
537,779.9500048314363
538,779.9607075955652
539,779.9721167015921
540,779.9838549895567
541,779.995577744277
542,780.0069784405546
543,780.0177914889296
544,780.0277919952271
545,780.0367927949768
546,780.0446393064798
547,780.0512029548726
548,780.0563739964315
549,780.060054551319
550,780.0621525673344
551,780.0625772525558
552,780.0612362118814
553,780.0580342104352
554,780.0528733337433
555,780.0456543627455
556,780.0362793199931
557,780.0246552591399
558,780.0106994321835
559,779.9943459677004
560,779.9755540924249
561,779.9543176973051
562,779.9306757193874
563,779.9047225068047
564,779.8766171975341
565,779.846591200115
566,779.8149530279806
567,779.7820899320592
568,779.7484659971419
569,779.7146166319271
570,779.6811396415976
571,779.6486832333977
572,779.6179313695063
573,779.5895869669097
574,779.5643536124164
575,779.542916607726
576,779.5259241607203
577,779.5139694146678
578,779.5075738608823
579,779.5071725502412
580,779.5131013693807
581,779.525586480632
582,779.5447359098766
583,779.5705332528893
584,779.602833543395
585,779.6413614457534
586,779.6857120559686
587,779.7353546530653
588,779.7896396934531
589,779.8478092015501
590,779.9090105399979
591,779.9723133881147
592,780.0367296325098
593,780.1012357683093
594,780.164797285313
595,780.2263943407131
596,780.2850478365423
597,780.339844918343
598,780.3899629610645
599,780.4346912853371
600,780.4734500178961
601,780.5058055345962
602,780.5314818277272
603,780.5503671018492
604,780.5625150485571
605,780.5681405243753
606,780.56760963553
607,780.5614244828073
608,780.5502030801737
609,780.5346552494186
610,780.5155555557357
611,780.4937145040761
612,780.4699492419797
613,780.4450549889501
614,780.4197784356128
615,780.3947944212416
616,780.3706871662209
617,780.3479370835258
618,780.3269137502499
619,780.3078751030632
620,780.2909724172457
621,780.2762602021587
622,780.2637098574558
623,780.2532258092
624,780.2446628741915
625,780.2378437537936
626,780.2325757656671
627,780.2286660926667
628,780.2259349380759
629,780.2242261111209
630,780.2234148156658
631,780.223412724348
632,780.2241706345101
633,780.2256790476765
634,780.2279669624266
635,780.23109912397
636,780.2351719502418
637,780.2403082994641
638,780.2466511536657
639,780.254356269919
640,780.2635839785299
641,780.2744905166978
642,780.2872194327482
643,780.301893597409
644,780.3186082079703
645,780.3374249205108
646,780.358367022955
647,780.3814154856028
648,780.406505763509
649,780.433525263102
650,780.4623114318658
651,780.492650585488
652,780.524277823833
653,780.5568785319621
654,780.5900919098672
655,780.6235167809376
656,780.6567196897329
657,780.689245058418
658,780.7206269724934
659,780.7504020907968
660,780.7781232594429
661,780.8033735694999
662,780.8257806874772
663,780.845031230246
664,780.8608847829619
665,780.8731869440452
666,780.8818805775594
667,780.8870142860661
668,780.8887470418026
669,780.8873480200743
670,780.8831909866839
671,780.8767430243138
672,780.8685478766835
673,780.8592047315392
674,780.8493437997549
675,780.8396004369869
676,780.8305896600993
677,780.8228827219065
678,780.8169870527388
679,780.8133305104981
680,780.8122505577969
681,780.8139886518477
682,780.8186897413143
683,780.8264063709851
684,780.8371066139879
685,780.8506849325214
686,780.8669750735633
687,780.8857641796307
688,780.9068074124981
689,780.9298425484529
690,780.9546041809675
691,780.9808372798003
692,781.0083098258906
693,781.0368240865066
694,781.066225926382
695,781.0964114772573
696,781.1273305513781
697,781.1589863685223
698,781.191431439469
699,781.2247597953084
700,781.2590961605933
701,781.2945830671486
702,781.33136714087
703,781.3695857468637
704,781.4093548860751
705,781.4507588535386
706,781.4938418322704
707,781.5386013711428
708,781.5849836027115
709,781.6328800955462
710,781.6821263433249
711,781.7325019598159
712,781.7837326100629
713,781.8354936014806
714,781.8874149627848
715,781.9390877873568
716,781.9900715989143
717,782.0399025077833
718,782.0881019816135
719,782.1341861324204
720,782.1776754493727
721,782.2181048594967
722,782.2550339367222
723,782.2880570457141
724,782.3168131938576
725,782.3409953821844
726,782.3603592983128
727,782.3747312348626
728,782.3840151021087
729,782.3881983423765
730,782.3873564833376
731,782.3816560255349
732,782.3713553664966
733,782.3568035179126
734,782.338436458751
735,782.3167710545175
736,782.2923965213291
737,782.2659634267128
738,782.2381702684967
739,782.2097478239652
740,782.1814416733628
741,782.153993447249
742,782.128121357593
743,782.1045005365265
744,782.0837437722663
745,782.0663834188753
746,782.0528554174009
747,782.0434863454353
748,782.0384842064136
749,782.0379333845545
750,782.0417938865725
751,782.0499046617338
752,782.0619904889782
753,782.0776717797602
754,782.0964767462436
755,782.1178556359513
756,782.141196951985
757,782.1658456455664
758,782.1911231880362
759,782.2163492529609
760,782.2408645014478
761,782.2640537016755
762,782.2853681915863
763,782.3043465787041
764,782.320632585231
765,782.3339890704632
766,782.3443074812504
767,782.3516122954018
768,782.3560604070088
769,782.3579357764945
770,782.3576399258153
771,782.3556789284786
772,782.3526474476273
773,782.3492102525038
774,782.3460816546402
775,782.3440034709002
776,782.3437222881366
777,782.3459667975578
778,782.3514257662073
779,782.3607269817991
780,782.3744174243903
781,782.3929450043173
782,782.4166423487084
783,782.4457132198077
784,782.4802221682825
785,782.5200879319973
786,782.565080863819
787,782.6148243678398
788,782.6688000788164
789,782.7263564588249
790,782.7867206260298
791,782.8490134539778
792,782.912268094142
793,782.97545195026
794,783.0374917946946
795,783.0973013176502
796,783.1538101047875
797,783.205992896364
798,783.2528979220124
799,783.2936730881462
800,783.3275888849448
801,783.354057128086
802,783.372644963446
803,783.3830837852265
804,783.3852728364044
805,783.3792774290249
806,783.365322041221
807,783.3437789192882
808,783.3151530755913
809,783.2800646846649
810,783.2392298946629
811,783.1934410244303
812,783.1435470073973
813,783.0904347893991
814,783.0350122223908
815,782.9781928100527
816,782.9208824061758
817,782.8639676578309
818,782.8083057333527
819,782.7547147745054
820,782.7039645591406
821,782.6567670019381
822,782.6137663239659
823,782.5755289716632
824,782.542533606712
825,782.5151616181574
826,782.4936885920349
827,782.4782771172041
828,782.4689713270463
829,782.4656936434467
830,782.4682441667672
831,782.476302981885
832,782.4894354055465
833,782.5071000059878
834,782.5286591276002
835,782.5533916132695
836,782.5805073887863
837,782.6091635515252
838,782.6384816050801
839,782.667565512646
840,782.6955203048553
841,782.7214710476823
842,782.7445819840674
843,782.7640755425444
844,782.7792506870885
845,782.7894998939847
846,782.7943239881239
847,782.7933441420989
848,782.7863104675296
849,782.7731067815489
850,782.7537513353783
851,782.7283935557352
852,782.6973071268483
853,782.6608799432448
854,782.6196015258237
855,782.5740484460589
856,782.524868250627
857,782.4727623824758
858,782.4184686215494
859,782.3627435693386
860,782.306345678094
861,782.2500193146182
862,782.1944803544521
863,782.1404037549282
864,782.0884133758302
865,782.0390740284241
866,781.9928854566105
867,781.9502777930425
868,781.9116080256453
869,781.877157131531
870,781.8471277001357
871,781.8216419760014
872,781.800740292957
873,781.7843799298944
874,781.772434540248
875,781.7646944230172
876,781.7608679214775
877,781.7605841585547
878,781.7633972339137
879,781.7687920081578
880,781.7761916885701
881,781.784967495275
882,781.7944506042302
883,781.8039463565584
884,781.8127505212541
885,781.8201672489862
886,781.825528189074
887,781.8282120176494
888,781.8276634132068
889,781.8234104262975
890,781.8150792744774
891,781.8024058223668
892,781.7852432955817
893,781.7635660403378
894,781.7374693648081
895,781.7071657427866
896,781.6729779294021
897,781.6353297149772
898,781.5947350210432
899,781.5517858595273
900,781.5071394444126
901,781.4615045483381
902,781.4156271000148
903,781.3702750604817
904,781.3262227343924
905,781.2842347270499
906,781.2450496839328
907,781.2093638397824
908,781.1778144040653
909,781.1509629639615
910,781.1292793250087
911,781.1131264363377
912,781.1027472009436
913,781.0982540334791
914,781.0996219962406
915,781.1066862012016
916,781.1191438939567
917,781.1365612650699
