acceleration,velocity,displacement
-0.0032792906368137344,0.0,0.0
-0.003531565012655607,-1.7027139123673354e-06,-4.2567847809183383e-10
-0.003783301500542687,-3.531430540666909e-06,-1.734214591350395e-09
-0.004034442397831667,-5.485866515260497e-06,-3.9885388553322465e-09
-0.004284930982363178,-7.5657098603092086e-06,-7.2514329492246734e-09
-0.004534710516938716,-9.770620235134682e-06,-1.1585515473085645e-08
-0.004783723333086135,-1.2100228697640894e-05,-1.705322770627954e-08
-0.0050319099992052144,-1.4554137030713731e-05,-2.3716819138368197e-08
-0.005279208573806586,-1.7131916673966682e-05,-3.16383325645383e-08
-0.005525553943217768,-1.983310730322277e-05,-4.0879588558835665e-08
-0.005770877243696359,-2.2657215099951302e-05,-5.150216915962918e-08
-0.00601510536792475,-2.560371075285658e-05,-6.356740062283115e-08
-0.006258160554452593,-2.8672027233450916e-05,-7.713633511940802e-08
-0.006499960056514863,-3.186155738619278e-05,-9.226973127431895e-08
-0.006740415884459225,-3.517165137143631e-05,-1.0902803346372622e-07
-0.00697943461403915,-3.86016139960609e-05,-1.2747134980560053e-07
-0.007216917251134468,-4.215070196235431e-05,-1.4765942879520433e-07
-0.007452759142015865,-4.581812106064189e-05,-1.6965163455095339e-07
-0.00768684991724843,-4.9603023325457965e-05,-1.9350692064747835e-07
-0.007919073457641751,-5.350450416918051e-05,-2.1928380252113796e-07
-0.00814930787181248,-5.752159950154407e-05,-2.470403284388191e-07
-0.008377425475153499,-6.165328283828556e-05,-2.7683404902377653e-07
-0.008603292758968187,-6.589846239681598e-05,-3.0872198533255194e-07
-0.008826770337328428,-7.025597817089014e-05,-3.4276059547447844e-07
-0.00904771285861449,-7.472459896987587e-05,-3.790057397596699e-07
-0.009265968868582143,-7.930301940167502e-05,-4.1751264435255766e-07
-0.009481380612639855,-8.398985677198052e-05,-4.5833586339597153e-07
-0.009693783768442646,-8.878364786725115e-05,-5.015292395557795e-07
-0.009903007106287552,-9.36828455859337e-05,-5.471458629190757e-07
-0.010108872082369382,-9.868581538309794e-05,-5.952380281613336e-07
-0.010311192376091237,-0.00010379083149771308,-6.458571898815364e-07
-0.010509773385453188,-0.00010899607293809919,-6.990539159904894e-07
-0.01070441169455965,-0.00011429961920810239,-7.548778390270398e-07
-0.010894894526581201,-0.00011969944576338761,-8.133776052699122e-07
-0.011080999196051634,-0.00012519341919404583,-8.746008215092706e-07
-0.011262492576761924,-0.0001307792921372492,-9.385939993420943e-07
-0.011439130604249054,-0.00013645469793250196,-1.005402496859532e-06
-0.011610657833238613,-0.00014221714504187387,-1.075070457603126e-06
-0.011776807070200306,-0.0001480640112677336,-1.147640746680528e-06
-0.011937299100419473,-0.00015399253781038855,-1.2231548839500583e-06
-0.012091842528833644,-0.00015999982321770182,-1.301652974207081e-06
-0.012240133753560681,-0.0001660828172883004,-1.3831736343335815e-06
-0.01238185708901655,-0.0001722383149989447,-1.4677539174053927e-06
-0.012516685050608881,-0.00017846295053385107,-1.5554292337885917e-06
-0.01264427880600089,-0.0001847531914980035,-1.6462332692965554e-06
-0.012764288791423422,-0.00019110533339735959,-1.7401979005203962e-06
-0.01287635548809203,-0.00019751549446723844,-1.8373531074865457e-06
-0.012980110354389339,-0.00020397961092785878,-1.93772688383532e-06
-0.013075176912058046,-0.00021049343274447062,-2.0413451447534025e-06
-0.01316117198702508,-0.0002170525199692414,-2.1482316329318307e-06
-0.013237707105929739,-0.00022365223974248012,-2.258407822859761e-06
-0.01330439004797061,-0.0002302877640309552,-2.37189282380312e-06
-0.013360826548486275,-0.00023695406818006941,-2.488703281855876e-06
-0.01340662214638927,-0.0002436459303537883,-2.60885328148934e-06
-0.013441384163164656,-0.0002503579319311768,-2.7323542470605815e-06
-0.013464723798073085,-0.00025708445892148624,-2.8592148447737474e-06
-0.013476258322238093,-0.000263819704451564,-2.98944088561701e-06
-0.01347561335240572,-0.00027055767237022497,-3.123035229822457e-06
-0.013462425183178696,-0.0002772921820041211,-3.2599976934160432e-06
-0.013436343155119455,-0.00028401687408869563,-3.4003249574392472e-06
-0.013397032036569827,-0.00029072521788661796,-3.5440104804330754e-06
-0.013344174399827114,-0.0002974105194957172,-3.691044414778659e-06
-0.01327747297679296,-0.0003040659313398722,-3.841413527487556e-06
-0.013196652982739285,-0.00031068446282975524,-3.995101126029963e-06
-0.013101464396989742,-0.0003172589921746875,-4.152086989781073e-06
-0.01299168418612659,-0.0003237822793204666,-4.312347307654862e-06
-0.012867118450655227,-0.00033024697997966206,-4.475854622479895e-06
-0.012727604472419269,-0.0003366456607104307,-4.642577782652418e-06
-0.01257301263891784,-0.000342970814988265,-4.812481901577092e-06
-0.012403248222933615,-0.00034921488020372786,-4.985528325375091e-06
-0.012218252999828944,-0.0003553702555094185,-5.161674609303377e-06
-0.012018006687988775,-0.0003614293204313729,-5.340874503288575e-06
-0.011802528199649498,-0.0003673844541532825,-5.523077946934739e-06
-0.01157187669198209,-0.00037322805537619037,-5.708231074317107e-06
-0.01132615241325525,-0.0003789525626524997,-5.8962762288242795e-06
-0.011065497344720567,-0.00038455047509199363,-6.087151988260403e-06
-0.010790095643195592,-0.0003900143733389727,-6.280793200368145e-06
-0.010500173890910066,-0.0003953369407224991,-6.477131028883513e-06
-0.01019600115830307,-0.0004005109844848024,-6.676093010185338e-06
-0.009877888883387548,-0.00040552945699522504,-6.877603120555345e-06
-0.009546190569663712,-0.00041038547685848785,-7.081581854018773e-06
-0.009201301304659886,-0.00041507234982706873,-7.287946310690162e-06
-0.008843657103035332,-0.00041958358942899255,-7.496610295504178e-06
-0.008473734080089803,-0.00042391293722477384,-7.70748442716762e-06
-0.008092047462460415,-0.0004280543826104114,-7.920476257126415e-06
-0.007699150443308551,-0.00043200218208685364,-8.135490398300731e-06
-0.007295632889930111,-0.0004357508779201633,-8.352428663302485e-06
-0.006882119911193078,-0.00043929531612044414,-8.571190211812636e-06
-0.006459270288527264,-0.0004426306636703742,-8.79167170676034e-06
-0.006027774768304929,-0.00044575242493458226,-9.01376747891158e-06
-0.005588354209823179,-0.0004486564571791143,-9.237369699440003e-06
-0.005141757584632604,-0.0004513389851277283,-9.462368560016714e-06
-0.004688759828558866,-0.00045379661448102614,-9.688652459918903e-06
-0.004230159553146475,-0.0004560263443264525,-9.916108199620773e-06
-0.003766776625874624,-0.0004580255783712078,-1.0144621180295188e-05
-0.0032994496283280817,-0.00045979213493475845,-1.037407560862168e-05
-0.002829033199655797,-0.00046132425564175445,-1.0604354706265808e-05
-0.002356395270791073,-0.00046262061275936616,-1.0835340923366088e-05
-0.0018824141949670464,-0.00046368031512580566,-1.1066916155337382e-05
-0.0014079757824065513,-0.00046450291262014904,-1.129896196227387e-05
-0.0009339702496760905,-0.0004650883991281697,-1.1531359790210949e-05
-0.00046128909523506385,-0.0004654372139643975,-1.176399119348409e-05
9.178087041801356e-06,-0.0004655502417164458,-1.19967380574043e-05
0.0004765468435708643,-0.00046542881048379264,-1.222948282045436e-05
0.0009399411322110907,-0.00046507468848984716,-1.246210869519777e-05
0.0013984966150113257,-0.0004644900790530416,-1.2694499887083493e-05
0.0018513639592432135,-0.00046367761390947795,-1.2926541810324123e-05
0.0022977121327791054,-0.00046264034488647236,-1.315812130002311e-05
0.0027367316772351044,-0.0004613817339339688,-1.338912681972822e-05
0.0031676379387400415,-0.000459905641529975,-1.3619448663594205e-05
0.0035896742335634014,-0.00045821631348689915,-1.3848979152348423e-05
0.004002114925598404,-0.0004563183661971087,-1.4077612822269426e-05
0.004404268394532457,-0.000454216770367076,-1.4305246606410473e-05
0.00479547987519064,-0.0004519168332996452,-1.4531780007327152e-05
0.005175134148893068,-0.00044942417979362424,-1.475711526060047e-05
0.005542658067751195,-0.0004467447317394632,-1.4981157488483742e-05
0.005897522894053519,-0.000443884686499012,-1.5203814843043361e-05
0.00623924643947045,-0.000440850494165631,-1.542499863820952e-05
0.006567394991756867,-0.00043764883380782417,-1.5644623470202885e-05
0.006881585019247261,-0.00043428658880507315,-1.586260732585611e-05
0.007181484644994758,-0.00043077082138901266,-1.6078871678404632e-05
0.007466814882281234,-0.00042710874650719367,-1.6293341570378682e-05
0.007737350621944604,-0.00042330770513113723,-1.6505945683288265e-05
0.007992921362123508,-0.0004193751371351202,-1.671661639385483e-05
0.008233411674015388,-0.0004153185538760855,-1.692528981660763e-05
0.008458761401901825,-0.0004111455106071062,-1.713190583272843e-05
0.00866896560025009,-0.00040686357885656824,-1.7336408105094347e-05
0.008864074214672939,-0.0004024803189028375,-1.7538744079534197e-05
0.009044191516878278,-0.0003980032524699497,-1.7738864972377393e-05
0.009209475305727653,-0.0003934398357642982,-1.7936725744435955e-05
0.009360135886155764,-0.00038879743296632737,-1.8132285061618613e-05
0.009496434834835879,-0.0003840832902860795,-1.8325505242431715e-05
0.009618683557666926,-0.0003793045106879538,-1.8516352192675225e-05
0.00972724164155028,-0.0003744680293881495,-1.870479532769425e-05
0.009822515003012691,-0.00036958059022700876,-1.889080748259804e-05
0.009904953839417406,-0.0003646487230164012,-1.9074364810908893e-05
0.009975050393802427,-0.0003596787219580963,-1.9255446672152517e-05
0.010033336549075534,-0.0003546766252223768,-1.9434035508947634e-05
0.010080381268723673,-0.000349648195767927,-1.961011671419521e-05
0.010116787899037354,-0.0003445989034759868,-1.978367848900619e-05
0.010143191343937513,-0.0003395339086652431,-1.9954711692041497e-05
0.010160255120684775,-0.0003344580470490875,-2.012320968097008e-05
0.01016866830357129,-0.00032937581619302346,-2.028916814678061e-05
0.010169142362626785,-0.00032429136352647394,-2.0452584941710483e-05
0.01016240790508526,-0.00031920847595954594,-2.0613459901581987e-05
0.010149211328455738,-0.0003141305711511607,-2.0771794663359663e-05
0.010130311395113339,-0.0003090606904702684,-2.0927592478765022e-05
0.010106475739643656,-0.00030400149368657917,-2.1080858024804233e-05
0.010078477322042234,-0.0002989552554211577,-2.1231597212081167e-05
0.010047090842266277,-0.00029392386338008056,-2.1379816991781478e-05
0.01001308913410358,-0.0002889088183859881,-2.1525525162222995e-05
0.009977239558174126,-0.00028391123621291866,-2.166873017587272e-05
0.009940300414933914,-0.00027893185121964165,-2.180944094773086e-05
0.009903017398817432,-0.0002739710217662038,-2.1947666665977324e-05
0.009866120114461136,-0.0002690287373878842,-2.2083416605765848e-05
0.0098303186756493,-0.0002641046276903566,-2.2216699947035406e-05
0.009796300406770507,-0.0002591979729197516,-2.2347525597187932e-05
0.009764726665100771,-0.0002543077161517838,-2.2475902019455816e-05
0.009736229800030962,-0.0002494324770355009,-2.2601837067752636e-05
0.009711410263274744,-0.0002445705670196745,-2.272533782876643e-05
0.009690833882394211,-0.00023972000598325725,-2.2846410472017163e-05
0.009675029308897612,-0.0002348785401854343,-2.2965060108559336e-05
0.009664485651056489,-0.00023004366144544579,-2.3081290658967057e-05
0.009659650300484,-0.00022521262745756065,-2.3195104731192808e-05
0.009660926960439069,-0.0002203824831423299,-2.330650350884278e-05
0.009668673882615575,-0.00021555008293156622,-2.3415486650361256e-05
0.009683202317478094,-0.0002107121138815428,-2.3522052199564535e-05
0.0097047751813441,-0.00020586511950683727,-2.362619650791163e-05
0.009733605942442313,-0.00020100552422589067,-2.3727914168844812e-05
0.00976985772945526,-0.00019612965830791628,-2.3827197964478263e-05
0.009813642670248163,-0.00019123378320799042,-2.392403882485724e-05
0.009865021474743382,-0.00018631411717174253,-2.401842579995217e-05
0.009924003282061064,-0.00018136686098254142,-2.4110346044490742e-05
0.009990545795386324,-0.00017638822371317958,-2.4199784815664672e-05
0.0100645557272657,-0.00017137444833251658,-2.4286725483676095e-05
0.010145889573784476,-0.00016632183700725404,-2.437114955501104e-05
0.01023435472987356,-0.00016122677593133954,-2.4453036708245687e-05
0.010329710950020003,-0.00015608575951136616,-2.4532364842106364e-05
0.010431672149262529,-0.00015089541373654552,-2.460911013541834e-05
0.010539908529134818,-0.0001456525185669462,-2.4683247118494214e-05
0.010654049003903557,-0.0001403540291836866,-2.475474875543187e-05
0.010773683895858923,-0.00013499709595874598,-2.482358653671748e-05
0.010898367865931435,-0.0001295790830182984,-2.488973058146174e-05
0.01102762304739988,-0.00012409758528996557,-2.4953149748538805e-05
0.011160942352794655,-0.00011855044393991694,-2.5013811755846277e-05
0.01129779292433626,-0.00011293576012063422,-2.5071683306861415e-05
0.011437619696549575,-0.00010725190696541276,-2.5126730223632927e-05
0.011579849038018343,-0.00010149753978177077,-2.5178917585319723e-05
0.011723892438819125,-9.567160441256141e-05,-2.5228209871368307e-05
0.011869150210422254,-8.977334375025107e-05,-2.527457110840901e-05
0.012015015165768857,-8.380230240620329e-05,-2.5317965019948125e-05
0.012160876249718164,-7.775832955233153e-05,-2.5358355177937757e-05
0.012306122094190729,-7.164157996635431e-05,-2.5395705155317428e-05
0.012450144476859746,-6.545251332359169e-05,-2.5429978678639916e-05
0.012592341665886206,-5.91918917879052e-05,-2.546113977991779e-05
0.012732121635496077,-5.2860775962559634e-05,-2.5489152946855406e-05
0.012868905138177875,-4.646051926914115e-05,-2.551398327066333e-05
0.013002128619267455,-3.999276082977981e-05,-2.553559659068806e-05
0.013131246958782494,-3.345941693526732e-05,-2.5553959635129323e-05
0.013255736025142253,-2.6862671189286138e-05,-2.5569040157160463e-05
0.01337509502676349,-2.0204963426309703e-05,-2.558080706581436e-05
0.01348884864973601,-1.3488977507184827e-05,-2.5589230551047734e-05
0.013596548971149503,-6.717628101963449e-06,-2.559428220245002e-05
0.013697777137500594,1.0595342519907503e-07,-2.5595935121119212e-05
0.01379214479710833,6.978433908851307e-06,-2.55941640242857e-05
0.013879295275681736,1.3896293927048823e-05,-2.5588945342326724e-05
0.013958904485494117,2.0855843867342787e-05,-2.5580257307878125e-05
0.014030681560469075,2.7853240378833584e-05,-2.556808003681658e-05
0.014094369211888405,3.488450307192295e-05,-2.555239560095389e-05
0.014149743802306703,4.194553132547173e-05,-2.5533188092354542e-05
0.014196615138977957,4.9032121060792895e-05,-2.5510443679257977e-05
0.014234825992880016,5.613998134375739e-05,-2.548415065365684e-05
0.014264251355023544,6.326475068073328e-05,-2.5454299470650715e-05
0.01428479744724876,7.040201288130135e-05,-2.5420882779760205e-05
0.014296400509262607,7.75473123704292e-05,-2.538389544844727e-05
0.01429902538708433,8.469616884451594e-05,-2.5343334578143536e-05
0.014292663950499713,9.184409117891195e-05,-2.529919951313768e-05
0.01427733336928411,9.898659050885791e-05,-2.5251491842715738e-05
0.014253074279405288,0.00010611919242103026,-2.5200215396983266e-05
0.01421994886973082,0.00011323744820831428,-2.514537623682593e-05
0.014178038916005805,0.00012033694515474843,-2.508698263848516e-05
0.01412744378301757,0.00012741331582950428,-2.50250450732391e-05
0.014068278410383097,0.00013446224637785444,-2.4959576182687258e-05
0.01400067129379846,0.00014147948380389982,-2.489059075014182e-05
0.013924762471900476,0.00014846084224532456,-2.4818105668629512e-05
0.013840701527418526,0.00015540220824515432,-2.4742139906006893e-05
0.013748645609377184,0.00016229954502935325,-2.4662714467688265e-05
0.013648757481629437,0.0001691488958021049,-2.45798523574804e-05
0.013541203603817777,0.0001759463860734667,-2.4493578537011508e-05
0.013426152254225759,0.0001826882250379776,-2.4403919884233646e-05
0.013303771707884304,0.0001893707060285051,-2.4310905151467026e-05
0.013174228484805007,0.00019599020607667742,-2.4214564923440732e-05
0.013037685681520713,0.00020254318461825885,-2.4114931575766997e-05
0.012894301396317538,0.00020902618138771842,-2.40120392342655e-05
0.012744227256732132,0.00021543581355098083,-2.3905923735530825e-05
0.012587607056437192,0.00022176877212927315,-2.3796622589110763e-05
0.01242457550504174,0.00022802181776964287,-2.3684174941636033e-05
0.012255257088957286,0.00023419177591814264,-2.3568621543214085e-05
0.012079765037031521,0.00024027553144963983,-2.345000471637214e-05
0.011898200383101805,0.0002462700228046732,-2.332836832780856e-05
0.011710651119050234,0.0002521722356802112,-2.320375776318734e-05
0.011517191435264602,0.00025797919631878987,-2.307621990518759e-05
0.011317881049138608,0.00026368796443989066,-2.294580311499792e-05
0.011112764625505983,0.0002692956258585518,-2.281255721742331e-05
0.010901871295998752,0.000274799284838928,-2.267653348974894e-05
0.010685214287305872,0.00028019605623475413,-2.253778465448052e-05
0.010462790669877587,0.00028548305747405,-2.239636487605332e-05
0.01023458123876933,0.00029065740045121173,-2.2252329761572e-05
0.010000550538405928,0.00029571618339550555,-2.2105736365610322e-05
0.009760647043727423,0.00030065648279103887,-2.1956643199063686e-05
0.00951480350910355,0.0003054753454292466,-2.1805110242008616e-05
0.009262937492125582,0.0003101697806795539,-2.1651198960481415e-05
0.009004952053033081,0.00031473675306584355,-2.1494972327045066e-05
0.008740736625147651,0.0003191731752353887,-2.1336494844969756e-05
0.008470168049166513,0.00032347590140396724,-2.1175832575809917e-05
0.008193111763837673,0.0003276417213572183,-2.101305317011962e-05
0.007909423144960726,0.00033166735508441793,-2.084822590100921e-05
0.007618948982403326,0.0003355494481162589,-2.068142170020904e-05
0.007321529082112794,0.00033928456763238795,-2.051271319627188e-05
0.007016997978722866,0.0003428691993975969,-2.0342174754514383e-05
0.006705186745044583,0.00034629974557853874,-2.016988251827035e-05
0.006385924887500802,0.0003495725234866751,-1.9995914451004046e-05
0.006059042320207314,0.00035268376528860214,-1.9820350378810228e-05
0.005724371412736,0.00035562961872183797,-1.9643272032807618e-05
0.005381749106357279,0.0003584061488516113,-1.9464763090914254e-05
0.00503101909184,0.0003610093409011606,-1.9284909218476062e-05
0.004672034040856966,0.0003634351041843349,-1.9103798107204687e-05
0.004304657883148387,0.00036567927716533625,-1.892151951186727e-05
0.003928768122029295,0.00036773763366663065,-1.8738165284159276e-05
0.0035442581813704193,0.0003696058902424806,-1.8553829403182e-05
0.003151039778289117,0.00037127971473239547,-1.836860800193828e-05
0.0027490453180480543,0.00037275473600647976,-1.8182599389253562e-05
0.002338230309857745,0.00037402655491345624,-1.7995904066523578e-05
0.0019185758022262603,0.00037509075644147723,-1.7808624738684846e-05
0.0014900908327845595,0.0003759429231002299,-1.762086631879942e-05
0.0010528148804314667,0.0003765786495285339,-1.743273592564223e-05
0.0006068202994793316,0.0003769935583235116,-1.7244342873679216e-05
0.00015221470939843693,0.0003771833170757311,-1.7055798654829406e-05
-0.0003108566883645575,0.00037714365658098953,-1.6867216911415228e-05
-0.0007822088938447588,0.0003768703901854372,-1.6678713399723622e-05
-0.0012616150181193702,0.00037635943420744614,-1.64904059436254e-05
-0.00174880434486856,0.00037560682936669913,-1.6302414377731863e-05
-0.0022434605707824795,0.0003746087631377864,-1.6114860479605743e-05
-0.0027452202517399328,0.0003733615929321558,-1.5927867890588256e-05
-0.00325367148046731,0.000371861869999104,-1.574156202485544e-05
-0.0037683528195518123,0.00037010636392409917,-1.555606996637464e-05
-0.004288752511565913,0.00036809208759131976,-1.537152035349579e-05
-0.004814307986189764,0.0003658163224668808,-1.5188043250981238e-05
-0.005344405681654641,0.00036327664404991973,-1.5005770009352037e-05
-0.005878381193777599,0.0003604709473310617,-1.4824833111506793e-05
-0.006415519760800223,0.0003573974720924172,-1.4645366006650924e-05
-0.006955057088077289,0.00035405482788019785,-1.446750293165777e-05
-0.007496180514352933,0.00035044201847959027,-1.4291378720067823e-05
-0.008038030520233469,0.00034655846572094365,-1.411712859901769e-05
