frame_number,force
0,781.5093298384833
1,781.4892257910404
2,781.4691646085336
3,781.4491508893555
4,781.429189153763
5,781.4092839232115
6,781.3894397933708
7,781.3696615004162
8,781.3499539805393
9,781.3303224227268
10,781.3107723148128
11,781.291309482807
12,781.2719401236128
13,781.252670831419
14,781.2335086182264
15,781.2144609291254
16,781.1955356530759
17,781.1767411300592
18,781.1580861555478
19,781.1395799832193
20,781.121232326744
21,781.1030533614614
22,781.0850537268396
23,781.0672445307104
24,781.0496373563184
25,781.032244273234
26,781.0150778531098
27,780.9981511909904
28,780.981477932376
29,780.9650723056367
30,780.948949158884
31,780.9331240001848
32,780.9176130399954
33,780.9024332347567
34,780.8876023305403
35,780.8731389054533
36,780.8590624092853
37,780.8453931987766
38,780.8321525668998
39,780.8193627646103
40,780.80704701353
41,780.7952295080568
42,780.7839354055533
43,780.7731908036593
44,780.76302270433
45,780.7534589647211
46,780.7445282353156
47,780.7362598856367
48,780.7286839176883
49,780.7218308670714
50,780.7157316916939
51,780.7104176481017
52,780.7059201557183
53,780.7022706496207
54,780.6995004228304
55,780.6976404593445
56,780.6967212592859
57,780.6967726577051
58,780.697823638721
59,780.6999021468048
60,780.703034896969
61,780.7072471854079
62,780.7125627017726
63,780.7190033439875
64,780.7265890365001
65,780.7353375531106
66,780.7452643459025
67,780.7563823820805
68,780.7687019906202
69,780.7822307204473
70,780.7969732115528
71,780.8129310802029
72,780.830102819259
73,780.848483714415
74,780.8680657767663
75,780.8888376916568
76,780.9107847834089
77,780.933888995413
78,780.9581288851233
79,780.9834796336712
80,781.009913069939
81,781.0373977089279
82,781.065898804107
83,781.0953784132772
84,781.1257954774103
85,781.15710591188
86,781.1892627094543
87,781.2222160544582
88,781.2559134478097
89,781.2902998431024
90,781.3253177941947
91,781.3609076146458
92,781.3970075488909
93,781.4335539546184
94,781.4704814956062
95,781.5077233442825
96,781.5452113934288
97,781.5828764765886
98,781.6206485967398
99,781.6584571626038
100,781.6962312317552
101,781.733899759613
102,781.7713918533749
103,781.8086370298745
104,781.8455654762633
105,781.882108312414
106,781.918197853983
107,781.9537678750239
108,781.9887538688278
109,782.0230933053869
110,782.0567258836676
111,782.0895937768587
112,782.1216418689083
113,782.1528179807948
114,782.1830730850039
115,782.2123615066934
116,782.240641110121
117,782.2678734691209
118,782.2940240206442
119,782.3190622005927
120,782.3429615612947
121,782.3656998699641
122,782.387259187382
123,782.4076259260506
124,782.4267908873103
125,782.4447492772797
126,782.4615007018434
127,782.4770491412272
128,782.4914029049685
129,782.5045745682477
130,782.5165808905172
131,782.5274427171356
132,782.5371848644124
133,782.5458359882589
134,782.5534284366496
135,782.5599980863522
136,782.5655841648044
137,782.5702290583928
138,782.5739781084998
139,782.5768793965145
140,782.5789835186916
141,782.5803433515171
142,782.5810138081472
143,782.5810515864816
144,782.5805149094867
145,782.5794632584748
146,782.5779571001291
147,782.57605760817
148,782.5738263807062
149,782.5713251545061
150,782.5686155176206
151,782.5657586219376
152,782.5628148973293
153,782.5598437690793
154,782.5569033802557
155,782.5540503206772
156,782.5513393640484
157,782.5488232147235
158,782.5465522653834
159,782.5445743667451
160,782.5429346102853
161,782.5416751248765
162,782.5408348881432
163,782.5404495532594
164,782.5405512918217
165,782.5411686533371
166,782.5423264417283
167,782.5440456091118
168,782.5463431670266
169,782.5492321153931
170,782.5527213898152
171,782.5568158283395
172,782.5615161592733
173,782.5668190119328
174,782.572716952129
175,782.5791985438628
176,782.5862484382055
177,782.5938474897041
178,782.601972899905
179,782.6105983867732
180,782.6196943780416
181,782.6292282260024
182,782.6391644410513
183,782.6494649414165
184,782.6600893166894
185,782.670995102795
186,782.6821380659001
187,782.6934724926293
188,782.7049514839215
189,782.7165272498787
190,782.7281514030363
191,782.7397752476777
192,782.7513500631476
193,782.7628273794796
194,782.7741592439422
195,782.7852984772917
196,782.7961989185994
197,782.8068156575187
198,782.8171052527845
199,782.8270259357229
200,782.8365377976522
201,782.8456029602372
202,782.8541857279641
203,782.8622527218952
204,782.8697729938193
205,782.8767181199347
206,782.8830622733019
207,782.8887822744546
208,782.8938576197463
209,782.898270487241
210,782.9020057202507
211,782.9050507890062
212,782.9073957313911
213,782.9090330741117
214,782.9099577360336
215,782.9101669156939
216,782.9096599651863
217,782.9084382527906
218,782.9065050168358
219,782.9038652132274
220,782.9005253587725
221,782.8964933719701
222,782.8917784124961
223,782.8863907203266
224,782.8803414553084
225,782.8736425378686
226,782.8663064914012
227,782.858346286753
228,782.8497751892922
229,782.8406066093172
230,782.8308539568668
231,782.8205305021204
232,782.8096492424362
233,782.7982227768562
234,782.7862631887605
235,782.7737819372393
236,782.7607897574628
237,782.7472965699025
238,782.7333113979008
239,782.7188422929655
240,782.7038962672751
241,782.6884792331506
242,782.6725959495426
243,782.6562499758453
244,782.6394436335934
245,782.6221779768375
246,782.6044527721184
247,782.586266488971
248,782.5676163018979
249,782.5484981048055
250,782.5289065388088
251,782.5088350339734
252,782.4882758650535
253,782.4672202208582
254,782.4456582866748
255,782.4235793391558
256,782.4009718530255
257,782.3778236187845
258,782.354121870377
259,782.3298534216693
260,782.3050048106514
261,782.2795624504857
262,782.2535127868242
263,782.2268424609971
264,782.1995384786587
265,782.1715883833391
266,782.1429804342672
267,782.1137037878409
268,782.0837486821525
269,782.0531066240226
270,782.0217705780823
271,781.989735157626
272,781.9569968171294
273,781.9235540463253
274,781.8894075654334
275,781.8545605205745
276,781.8190186777505
277,781.7827906132859
278,781.7458878984581
279,781.7083252761362
280,781.6701208273703
281,781.6312961258685
282,781.5918763782208
283,781.551890547725
284,781.5113714597653
285,781.4703558868425
286,781.4288846115195
287,781.3870024656994
288,781.3447583448552
289,781.3022051961527
290,781.2593999798133
291,781.2164036033936
292,781.1732808288432
293,781.130100152293
294,781.086933656625
295,781.0438568370395
296,781.0009484000534
297,780.9582900366414
298,780.915966170586
299,780.8740636834839
300,780.8326716182002
301,780.7918808627957
302,780.7517838170917
303,780.7124740441158
304,780.6740459087214
305,780.6365942056997
306,780.6002137797365
307,780.5649991396627
308,780.531044069592
309,780.4984412396587
310,780.4672818190612
311,780.4376550939796
312,780.4096480927449
313,780.3833452203854
314,780.3588279044595
315,780.3361742539316
316,780.3154587328082
317,780.2967518502542
318,780.28011986883
319,780.2656245322469
320,780.2533228136834
321,780.2432666853509
322,780.2355029096942
323,780.230072852369
324,780.2270123169822
325,780.2263514015227
326,780.2281143763598
327,780.2323195835528
328,780.2389793570412
329,780.2480999632364
330,780.2596815617126
331,780.2737181859743
332,780.2901977445338
333,780.3091020426809
334,780.3304068254184
335,780.3540818420521
336,780.3800909328205
337,780.4083921376989
338,780.4389378271803
339,780.4716748544909
340,780.506544728381
341,780.5434838053598
342,780.5824235000237
343,780.6232905119443
344,780.6660070673883
345,780.7104911739717
346,780.7566568862691
347,780.80441458045
348,780.8536712362325
349,780.904330724783
350,780.9562941016397
351,781.0094599041199
352,781.0637244528536
353,781.1189821569805
354,781.1751258222235
355,781.2320469606577
356,781.289636100641
357,781.3477830952173
358,781.4063774273648
359,781.4653085106729
360,781.5244659841945
361,781.5837400002019
362,781.643021503409
363,781.7022024999435
364,781.7611763140648
365,781.8198378304851
366,781.878083720343
367,781.9358126495196
368,781.9929254689201
369,782.0493253873211
370,782.1049181281226
371,782.1596120717223
372,782.2133183852003
373,782.2659511406963
374,782.317427423491
375,782.3676674305102
376,782.4165945598032
377,782.4641354914411
378,782.5102202602312
379,782.5547823206572
380,782.5977586045597
381,782.6390895722475
382,782.6787192578527
383,782.71659530975
384,782.7526690267207
385,782.7868953903165
386,782.8192330936312
387,782.8496445664049
388,782.8780959961065
389,782.9045573443502
390,782.9290023578454
391,782.9514085730333
392,782.9717573135563
393,782.9900336796765
394,783.0062265288161
395,783.0203284467009
396,783.0323357091523
397,783.0422482351812
398,783.0500695324519
399,783.0558066363058
400,783.0594700434244
401,783.0610736410737
402,783.060634632796
403,783.0581734613003
404,783.0537137290506
405,783.047282116716
406,783.0389082994109
407,783.0286248606088
408,783.0164672036009
409,783.0024734602739
410,782.9866843968366
411,782.9691433160608
412,782.9498959557252
413,782.9289903831772
414,782.9064768861322
415,782.8824078598798
416,782.8568376909441
417,782.8298226370528
418,782.801420703215
419,782.7716915138335
420,782.7406961809628
421,782.7084971689377
422,782.675158155608
423,782.6407438904039
424,782.6053200495081
425,782.568953088497
426,782.531710092896
427,782.4936586271443
428,782.4548665824615
429,782.4154020240549
430,782.3753330380447
431,782.3347275785073
432,782.2936533152024
433,782.2521774828402
434,782.210366733022
435,782.1682869900812
436,782.1260033119052
437,782.0835797565297
438,782.0410792551044
439,781.9985634917878
440,781.9560927911814
441,781.9137260138018
442,781.8715204597796
443,781.8295317805321
444,781.7878138977561
445,781.7464189288577
446,781.70539711788
447,781.6647967709952
448,781.6246641956129
449,781.585043642176
450,781.5459772478353
451,781.507504981399
452,781.4696645891545
453,781.4324915413347
454,781.3960189792131
455,781.3602776631011
456,781.3252959218642
457,781.2910996048239
458,781.2577120369431
459,781.2251539780087
460,781.193443586244
461,781.1625963865118
462,781.1326252430795
463,781.103540336852
464,781.0753491470978
465,781.0480564378828
466,781.0216642495677
467,780.9961718958077
468,780.9715759666965
469,780.9478703390504
470,780.9250461951756
471,780.903092051586
472,780.8819937990141
473,780.8617347547664
474,780.8422957282273
475,780.8236551001957
476,780.8057889166438
477,780.7886709972449
478,780.7722730585668
479,780.7565648513466
480,780.7415143109223
481,780.7270877197154
482,780.7132498805304
483,780.699964299342
484,780.6871933762471
485,780.6748986032907
486,780.6630407677997
487,780.6515801596131
488,780.6404767803461
489,780.6296905527257
490,780.6191815281725
491,780.6089100910278
492,780.598837158022
493,780.5889243717231
494,780.579134286861
495,780.5694305485741
496,780.5597780617439
497,780.5501431506294
498,780.5404937080345
499,780.5307993332497
500,780.5210314580256
501,780.5111634598425
502,780.5011707617302
503,780.4910309179262
504,780.4807236847674
505,780.4702310764411
506,780.4595374054722
507,780.4486293080207
508,780.437495754217
509,780.4261280439943
510,780.4145197891633
511,780.40266688273
512,780.3905674565348
513,780.3782218281802
514,780.3656324379832
515,780.352803776535
516,780.3397423035152
517,780.326456358651
518,780.3129560659498
519,780.2992532323827
520,780.2853612420894
521,780.2712949470576
522,780.2570705551441
523,780.2427055162715
524,780.2282184077287
525,780.2136288197114
526,780.1989572424638
527,780.1842249564593
528,780.1694539269564
529,780.1546667041125
530,780.1398863297255
531,780.1251362515607
532,780.1104402459665
533,780.0958223490503
534,780.0813067961781
535,780.0669179690702
536,780.0526803493079
537,780.0386184766991
538,780.0247569107877
539,780.0111201938556
540,779.9977328139897
541,779.984619167044
542,779.971803516544
543,779.9593099507728
544,779.9471623364934
545,779.935384269086
546,779.9239990192568
547,779.9130294767834
548,779.9024980918823
549,779.892426814819
550,779.8828370343249
551,779.8737495152077
552,779.8651843352332
553,779.8571608210311
554,779.8496974826669
555,779.8428119466729
556,779.8365208876086
557,779.8308399584582
558,779.8257837203573
559,779.8213655722351
560,779.8175976809224
561,779.8144909120697
562,779.8120547618876
563,779.8102972894064
564,779.8092250488572
565,779.8088430219095
566,779.8091545497775
567,779.8101612654888
568,779.8118630269342
569,779.8142578516731
570,779.8173418548007
571,779.8211091913813
572,779.8255520050019
573,779.8306603840625
574,779.8364223275678
575,779.8428237222936
576,779.849848333102
577,779.8574778079027
578,779.8656916984409
579,779.8744674977775
580,779.8837806949841
581,779.893604847191
582,779.9039116688082
583,779.9146711375515
584,779.9258516168154
585,779.9374199939145
586,779.9493418337051
587,779.9615815470024
588,779.9741025729951
589,779.9868675745357
590,779.9998386448449
591,780.012977523856
592,780.0262458221803
593,780.0396052504726
594,780.053017851769
595,780.0664462341311
596,780.0798538006984
597,780.0932049741481
598,780.1064654126803
599,780.1196022149502
600,780.1325841116847
601,780.145381641877
602,780.1579673114527
603,780.1703157324127
604,780.182403740802
605,780.1942104923811
606,780.2057175354167
607,780.2169088605073
608,780.2277709278803
609,780.2382926731472
610,780.2484654930104
611,780.2582832127869
612,780.2677420377956
613,780.2768404907687
614,780.2855793376053
615,780.293961503982
616,780.3019919853909
617,780.3096777529355
618,780.3170276567037
619,780.3240523279258
620,780.3307640805072
621,780.337176811997
622,780.3433059036831
623,780.3491681193419
624,780.3547815021881
625,780.360165269739
626,780.365339706535
627,780.3703260548339
628,780.3751464034898
629,780.3798235753355
630,780.38438101365
631,780.3888426686183
632,780.3932328849006
633,780.3975762914057
634,780.4018976942225
635,780.4062219735229
636,780.4105739851348
637,780.4149784673338
638,780.4194599532007
639,780.4240426887784
640,780.4287505573375
641,780.4336070102496
642,780.4386350050719
643,780.4438569513665
644,780.4492946645039
645,780.4549693273012
646,780.4609014589857
647,780.4671108908086
648,780.4736167476207
649,780.4804374347145
650,780.487590629246
651,780.4950932757089
652,780.5029615852142
653,780.5112110384845
654,780.5198563923943
655,780.5289116896437
656,780.5383902708464
657,780.548304788032
658,780.558667218334
659,780.5694888765865
660,780.5807804257196
661,780.5925518841148
662,780.6048126292758
663,780.6175713971824
664,780.6308362765674
665,780.6446146971787
666,780.6589134109329
667,780.6737384647616
668,780.6890951639632
669,780.7049880251158
670,780.7214207181142
671,780.7383959975504
672,780.7559156243892
673,780.7739802796817
674,780.7925894728176
675,780.8117414473917
676,780.8314330879489
677,780.8516598306685
678,780.8724155806207
679,780.8936926377662
680,780.9154816334556
681,780.9377714787416
682,780.9605493252892
683,780.9838005391191
684,781.0075086870145
685,781.0316555352042
686,781.0562210598765
687,781.0811834690996
688,781.1065192357918
689,781.1322031415074
690,781.1582083309384
691,781.1845063770884
692,781.2110673569374
693,781.2378599371199
694,781.2648514688234
695,781.292008090922
696,781.3192948403416
697,781.3466757687945
698,781.374114065276
699,781.4015721840684
700,781.4290119784307
701,781.4563948405757
702,781.4836818487536
703,781.5108339221097
704,781.5378119835315
705,781.564577130126
706,781.5910908104619
707,781.6173150073511
708,781.643212424769
709,781.6687466775043
710,781.6938824822192
711,781.7185858486569
712,781.7428242696478
713,781.7665669084184
714,781.7897847815746
715,781.8124509360734
716,781.8345406184959
717,781.8560314349764
718,781.8769035002672
719,781.8971395745733
720,781.9167251869128
721,781.9356487437738
722,781.9539016218735
723,781.9714782438865
724,781.9883761361212
725,782.0045959672821
726,782.0201415676645
727,782.035019928339
728,782.0492411800121
729,782.0628185513435
730,782.0757683065606
731,782.0881096623283
732,782.0998646839975
733,782.1110581615836
734,782.121717466089
735,782.1318723870279
736,782.1415549522142
737,782.1507992310019
738,782.1596411223385
739,782.1681181292719
740,782.1762691219008
741,782.1841340909963
742,782.1917538945755
743,782.1991699996869
744,782.2064242217485
745,782.213558464011
746,782.2206144598912
747,782.2276335208562
748,782.2346562922118
749,782.2417225187115
750,782.2488708214346
751,782.2561384868609
752,782.2635612685964
753,782.2711732019206
754,782.2790064313581
755,782.2870910517058
756,782.2954549631293
757,782.3041237409373
758,782.3131205204542
759,782.3224658970992
760,782.3321778414027
761,782.3422716282843
762,782.3527597795718
763,782.3636520185399
764,782.3749552352223
765,782.3866734613669
766,782.3988078541582
767,782.4113566882006
768,782.4243153557234
769,782.4376763754251
770,782.4514294106789
771,782.4655612978752
772,782.4800560855247
773,782.4948950845405
774,782.510056930091
775,782.5255176555712
776,782.5412507793974
777,782.5572274052473
778,782.5734163360327
779,782.5897842015025
780,782.6062955991781
781,782.6229132483265
782,782.6395981567622
783,782.6563098002821
784,782.673006314459
785,782.6896446982855
786,782.7061810287661
787,782.7225706850618
788,782.7387685803859
789,782.7547293996912
790,782.7704078413059
791,782.7857588609099
792,782.8007379163603
793,782.815301211704
794,782.8294059382878
795,782.8430105103887
796,782.8560747924674
797,782.8685603150382
798,782.8804304761721
799,782.891650725755
800,782.9021887298732
801,782.9120145131893
802,782.9211005777452
803,782.9294219971107
804,782.9369564851534
805,782.9436844391322
806,782.949588957445
807,782.9546558330549
808,782.9588735241725
809,782.9622331041253
810,782.9647281925589
811,782.9663548702456
812,782.9671115798003
813,782.9669990145617
814,782.9660199978099
815,782.9641793543667
816,782.961483776375
817,782.9579416847208
818,782.9535630872653
819,782.9483594349315
820,782.9423434767361
821,782.9355291149892
822,782.927931262081
823,782.9195657005016
824,782.9104489479389
825,782.9005981293323
826,782.8900308575901
827,782.8787651244437
828,782.8668192027567
829,782.8542115615168
830,782.8409607945158
831,782.8270855633073
832,782.8126045545274
833,782.7975364512315
834,782.7818999175887
835,782.7657135960623
836,782.748996116009
837,782.7317661124674
838,782.7140422537793
839,782.69584327663
840,782.6771880270892
841,782.6580955062714
842,782.6385849192026
843,782.6186757253158
844,782.5983876887194
845,782.5777409261719
846,782.556755950679
847,782.535453708783
848,782.513855609872
849,782.4919835461247
850,782.4698599020891
851,782.4475075533536
852,782.4249498542534
853,782.4022106149528
854,782.3793140684583
855,782.3562848281883
856,782.333147836789
857,782.3099283070123
858,782.2866516556255
859,782.2633434314201
860,782.240029238458
861,782.2167346557491
862,782.1934851546324
863,782.1703060151126
864,782.1472222422091
865,782.1242584830197
866,782.101438944845
867,782.0787873144967
868,782.0563266788803
869,782.0340794470551
870,782.0120672741375
871,781.9903109874934
872,781.9688305156485
873,781.9476448203508
874,781.9267718322931
875,781.9062283910786
876,781.8860301899499
877,781.8661917256287
878,781.8467262534339
879,781.8276457477764
880,781.8089608681859
881,781.7906809310568
882,781.772813887157
883,781.7553663046446
884,781.7383433570677
885,781.721748815621
886,781.7055850447322
887,781.6898529997873
888,781.6745522255655
889,781.6596808538824
890,781.6452355991102
891,781.6312117506018
892,781.6176031614887
893,781.6044022337417
894,781.5915998997513
895,781.5791856010803
896,781.5671472654685
897,781.5554712834673
898,781.5441424861273
899,781.5331441249834
900,781.5224578553359
901,781.5120637236024
902,781.5019401594228
903,781.4920639732584
904,781.4824103603696
905,781.4729529121024
906,781.4636636352769
907,781.4545129802726
908,781.4454698783289
909,781.4365017886854
910,781.427574756395
911,781.418653481814
912,781.4097014028454
913,781.4006807909531
914,781.3915528617863
915,781.3822779009175
916,781.3728154047056
917,781.3631242356728
