frame_number,force
0,726.4463701014903
1,726.4925484263214
2,726.5436442615277
3,726.5987217602236
4,726.656788981735
5,726.7168253980872
6,726.7778095334627
7,726.838746009256
8,726.8986913014414
9,726.9567775367847
10,727.0122336959447
11,727.064403669041
12,727.1127607006067
13,727.1569178289204
14,727.1966339752877
15,727.2318154402225
16,727.2625127781052
17,727.2889133189997
18,727.3113298663228
19,727.3301862291997
20,727.3460002661144
21,727.359365074162
22,727.3709288576719
23,727.3813738748534
24,727.3913948018492
25,727.4016769586451
26,727.4128750564884
27,727.425593301918
28,727.4403677212832
29,727.4576514663602
30,727.4778037151482
31,727.5010826238052
32,727.5276425590308
33,727.5575355389776
34,727.590716547661
35,727.6270522601292
36,727.6663326882875
37,727.7082852188034
38,727.7525904079188
39,727.7988987629703
40,727.8468476284695
41,727.8960772182173
42,727.9462448326802
43,727.9970364341889
44,728.0481749938224
45,728.0994252673297
46,728.1505948633136
47,728.2015316866417
48,728.2521181013713
49,728.3022624196441
50,728.3518885388065
51,728.400924703813
52,728.4492924613296
53,728.4968968690604
54,728.5436188818464
55,728.5893105350609
56,728.6337931368246
57,728.6768582746055
58,728.7182711534284
59,728.757775664236
60,728.7951005819723
61,728.8299663166746
62,728.8620916673109
63,728.8912001254923
64,728.9170254726149
65,728.9393166512782
66,728.957842101493
67,728.9723938875385
68,728.982791963521
69,728.9888888111059
70,728.990574427272
71,728.9877812927359
72,728.9804886733227
73,728.9687255933186
74,728.9525721091958
75,728.9321589252415
76,728.9076656972975
77,728.8793184504473
78,728.8473864135518
79,728.8121783624487
80,728.7740384160417
81,728.7333412324914
82,728.6904866546986
83,728.6458939391991
84,728.5999957075634
85,728.5532316917687
86,728.5060422620662
87,728.4588617248369
88,728.4121115151872
89,728.3661935963867
90,728.3214844443222
91,728.2783298822791
92,728.2370408453004
93,728.1978899972038
94,728.1611089941663
95,728.1268860701297
96,728.0953635604066
97,728.0666350404312
98,728.0407419474468
99,728.0176698438164
100,727.9973448062925
101,727.9796306812182
102,727.964328016871
103,727.9511753013868
104,727.9398527231366
105,727.9299881816497
106,727.9211649466619
107,727.9129303418154
108,727.9048050296312
109,727.8962926648157
110,727.8868897505079
111,727.8760955496189
112,727.8634219622257
113,727.8484033679301
114,727.8306064766792
115,727.8096401934238
116,727.7851654139694
117,727.7569045920632
118,727.7246508658657
119,727.6882764766449
120,727.64774014216
121,727.6030929728458
122,727.5544824492729
123,727.5021539398567
124,727.4464492746376
125,727.3878020301768
126,727.3267294133647
127,727.2638209309279
128,727.1997243516789
129,727.1351297462677
130,727.0707525635092
131,727.0073167349219
132,726.9455386764973
133,726.8861128007604
134,726.8296988290049
135,726.7769108901806
136,726.7283081783879
137,726.6843868404908
138,726.6455727618783
139,726.6122149929004
140,726.5845797139988
141,726.5628448507238
142,726.5470956327428
143,726.5373214554461
144,726.5334143494555
145,726.5351692732784
146,726.5422863916499
147,726.5543754924304
148,726.5709626783572
149,726.5914993902026
150,726.615373647825
151,726.6419231588674
152,726.6704497203822
153,726.7002342175813
154,726.7305515499504
155,726.7606849645966
156,726.7899394707865
157,726.8176541594545
158,726.8432133297139
159,726.8660563649846
160,726.88568632143
161,726.9016771699673
162,726.9136795675507
163,726.9214249616577
164,726.9247277965744
165,726.9234856109819
166,726.9176768919422
167,726.9073566702384
168,726.892649994506
169,726.8737435823361
170,726.8508760722684
171,726.8243273557226
172,726.7944074528571
173,726.761445345965
174,726.7257781393142
175,726.6877408879087
176,726.6476574103713
177,726.6058323597596
178,726.5625447891581
179,726.518043422133
180,726.472543764322
181,726.4262270206714
182,726.3792405741733
183,726.3316996636404
184,726.2836899191628
185,726.2352704947999
186,726.1864775723587
187,726.1373279913128
188,726.0878227602976
189,726.0379502579368
190,725.9876890112245
191,725.9370100389169
192,725.8858788748335
193,725.8342575054096
194,725.7821064753743
195,725.7293872923392
196,725.6760650936657
197,725.6221114777339
198,725.5675074702134
199,725.5122466624715
200,725.4563384974899
201,725.399811517209
202,725.3427162640921
203,725.2851275327846
204,725.2271457588487
205,725.1688974368562
206,725.1105345367578
207,725.0522329148517
208,724.9941896987918
209,724.9366196156903
210,724.8797502621749
211,724.8238163412334
212,724.7690528892417
213,724.715687563685
214,724.6639322079285
215,724.6139740814251
216,724.5659672480213
217,724.5200246318367
218,724.4762112046625
219,724.4345386861313
220,724.3949620502646
221,724.3573780866973
222,724.321626264546
223,724.2874920976325
224,724.254713027558
225,724.2229865918691
226,724.191980470704
227,724.1613439507493
228,724.130720339318
229,724.0997598335466
230,724.0681323160863
231,724.0355395861998
232,724.001726657268
233,723.9664918554023
234,723.9296954489595
235,723.8912664641367
236,723.8512072919889
237,723.8095956978957
238,723.7665838878115
239,723.7223943859793
240,723.6773126923499
241,723.6316770121729
242,723.5858656788399
243,723.5402831070323
244,723.4953451928782
245,723.45146505843
246,723.4090399347539
247,723.3684397979918
248,723.3299981573153
249,723.2940051837893
250,723.2607031715128
251,723.230284148506
252,723.2028893421491
253,723.1786101794041
254,723.1574905557019
255,723.1395301869736
256,723.1246888880535
257,723.1128915649019
258,723.1040336435259
259,723.0979866800163
260,723.094603979177
261,723.0937260904424
262,723.0951860111995
263,723.0988138649096
264,723.104440811466
265,723.111902013975
266,723.1210385827546
267,723.131698513195
268,723.1437367764684
269,723.1570149134849
270,723.171400575186
271,723.186767317604
272,723.2029946877194
273,723.2199684159021
274,723.2375804423076
275,723.2557285493127
276,723.2743155608136
277,723.2932483490198
278,723.3124371156267
279,723.3317954879893
280,723.3512418978478
281,723.3707025058682
282,723.3901156101966
283,723.4094371193513
284,723.4286464161534
285,723.447751869208
286,723.4667953589174
287,723.4858554058337
288,723.5050486908212
289,723.5245298472255
290,723.5444894427422
291,723.5651501819783
292,723.5867615592316
293,723.6095933395059
294,723.6339282402059
295,723.6600540805
296,723.688255588204
297,723.7188060537691
298,723.7519590526434
299,723.7879404822579
300,723.8269411824784
301,723.8691104165536
302,723.9145504472651
303,723.963312369412
304,724.0153933183319
305,724.0707351528982
306,724.129224628889
307,724.1906949305741
308,724.2549283207501
309,724.3216596836602
310,724.3905808328954
311,724.4613455437451
312,724.5335753108606
313,724.6068658532682
314,724.6807943976269
315,724.754927743033
316,724.8288310484934
317,724.9020772264448
318,724.9742567967238
319,725.0449880372886
320,725.1139272197394
321,725.1807786012391
322,725.245303666021
323,725.3073289572361
324,725.366751826025
325,725.4235435737759
326,725.4777497023248
327,725.5294872234311
328,725.578939155044
329,725.6263464465795
330,725.6719976696323
331,725.7162169131757
332,725.7593504408118
333,725.8017527976828
334,725.8437731501875
335,725.8857426348685
336,725.9279633683317
337,725.9706995678569
338,726.0141709983885
339,726.058548744213
340,726.1039531700542
341,726.1504539386015
342,726.1980720660093
343,726.2467841223452
344,726.2965287072233
345,726.3472151898767
346,726.3987344115785
347,726.4509706911405
348,726.5038141777701
349,726.557172475665
350,726.6109805559902
351,726.6652082121138
352,726.7198646084951
353,726.7749997433665
354,726.8307028538006
355,726.8870979720849
356,726.9443370219042
357,727.0025909522118
358,727.0620393731715
359,727.1228590287863
360,727.1852113205292
361,727.249229043591
362,727.315002520231
363,727.382565433896
364,727.4518809426756
365,727.5228290669681
366,727.5951966964717
367,727.6686715866028
368,727.742841360607
369,727.8171979653662
370,727.8911474555671
371,727.9640245546391
372,728.035111227902
373,728.103658462859
374,728.1689104667299
375,728.2301304641595
376,728.2866271998837
377,728.3377811609629
378,728.3830694333841
379,728.422087990168
380,728.454570129498
381,728.480399829227
382,728.4996190060967
383,728.5124280738039
384,728.5191797417838
385,728.5203665522029
386,728.5166030455897
387,728.5086035949106
388,728.4971569228336
389,728.4830982841788
390,728.4672803858144
391,728.4505443020033
392,728.4336917684066
393,728.417460192337
394,728.4025015344386
395,728.3893659836465
396,728.3784910864208
397,728.3701966684063
398,728.3646854803151
399,728.3620490638434
400,728.3622779856222
401,728.3652753993639
402,728.3708728257411
403,728.3788470055431
404,728.388936664766
405,728.4008580742942
406,728.4143184536755
407,728.4290265930081
408,728.4447005015545
409,728.4610722968774
410,728.4778907844768
411,728.4949222223267
412,728.5119497180779
413,728.5287716693882
414,728.5451996418227
415,728.5610560681439
416,728.5761721564955
417,728.5903863869682
418,728.6035438851304
419,728.6154967646165
420,728.6261052950962
421,728.6352395721464
422,728.6427812950554
423,728.6486252941421
424,728.6526805717951
425,728.6548708120665
426,728.6551345068148
427,728.6534249353529
428,728.6497101858198
429,728.6439733219983
430,728.6362127894986
431,728.6264431899658
432,728.614696527016
433,728.6010239236562
434,728.5854976725753
435,728.5682133110216
436,728.5492912203941
437,728.5288771428416
438,728.507141097405
439,728.4842744436555
440,728.4604851659936
441,728.4359917736903
442,728.4110165060723
443,728.3857787134617
444,728.360489240083
445,728.335346340995
446,728.3105332281602
447,728.2862169469568
448,728.2625480794956
449,728.2396607655726
450,728.2176726363668
451,728.1966843870848
452,728.1767788452133
453,728.1580195241525
454,728.1404487794821
455,728.1240857812381
456,728.1089245677723
457,728.0949324663478
458,728.0820491676728
459,728.0701867229545
460,728.0592306593184
461,728.0490422529901
462,728.0394617990293
463,728.0303125636635
464,728.0214050538466
465,728.0125412814037
466,728.0035188121967
467,727.9941345347503
468,727.9841881919494
469,727.9734857416418
470,727.9618425404539
471,727.9490862099985
472,727.9350589159861
473,727.9196187690925
474,727.9026401970755
475,727.8840133772436
476,727.8636430111493
477,727.8414467667212
478,727.8173536335772
479,727.7913023545325
480,727.7632401028989
481,727.7331216443262
482,727.7009092451927
483,727.6665735084354
484,727.6300951777462
485,727.5914678309567
486,727.5507013320206
487,727.5078259305554
488,727.4628969302507
489,727.4159998229159
490,727.3672557102045
491,727.316826760599
492,727.2649213664121
493,727.2117985334252
494,727.1577708934273
495,727.1032056936431
496,727.0485232615823
497,726.9941927349555
498,726.9407251787674
499,726.8886644583229
500,726.8385762988116
501,726.7910358718472
502,726.7466141800721
503,726.7058635770453
504,726.6693028862018
505,726.6374026623521
506,726.610571186664
507,726.5891418393447
508,726.5733624867647
509,726.5633873558609
510,726.5592715740298
511,726.5609682820727
512,726.5683281208123
513,726.5811009491044
514,726.5989397582218
515,726.6214067856209
516,726.6479817453863
517,726.6780719138197
518,726.7110236338492
519,726.7461347353202
520,726.7826674625418
521,726.8198617233709
522,726.8569487076815
523,726.8931650231591
524,726.927767390083
525,726.9600476903006
526,726.98934793876
527,727.0150746338736
528,727.0367119087886
529,727.0538329039904
530,727.0661088350347
531,727.0733153445467
532,727.0753358656757
533,727.0721618695958
534,727.0638900253698
535,727.0507164202202
536,727.032928003351
537,727.0108913424539
538,726.9850387561984
539,726.9558520591647
540,726.9238445208272
541,726.8895419965926
542,726.8534643251132
543,726.8161079843575
544,726.777930822604
545,726.7393395888312
546,726.7006809875612
547,726.6622369330514
548,726.6242244311837
549,726.586800099549
550,726.550068920443
551,726.5140965257749
552,726.4789241094194
553,726.4445848897857
554,726.4111209126578
555,726.3785989538593
556,726.3471243866534
557,726.3168520696705
558,726.2879935002735
559,726.260819641413
560,726.2356590155107
561,726.2128909127847
562,726.1929338880564
563,726.1762300882588
564,726.1632262974642
565,726.1543528299804
566,726.1500015057076
567,726.1505039116134
568,726.15611102468
569,726.1669751323566
570,726.1831349283307
571,726.2045046549833
572,726.2308680867096
573,726.2618779539322
574,726.2970611554123
575,726.3358298415543
576,726.3774981489383
577,726.4213039933013
578,726.4664349212873
579,726.5120566756042
580,726.5573429118878
581,726.6015044342506
582,726.6438164089025
583,726.6836422965451
584,726.7204536702869
585,726.7538455076377
586,726.7835467912771
587,726.8094262771996
588,726.831493228008
589,726.8498929607122
590,726.8648973007133
591,726.8768903925735
592,726.886350667705
593,726.893830007635
594,726.8999312028744
595,726.905284685472
596,726.9105252904228
597,726.9162695987898
598,726.9230943033954
599,726.9315160132716
600,726.94197293778
601,726.9548089130739
602,726.9702602085569
603,726.9884454836176
604,727.0093591982774
605,727.0328687385769
606,727.0587154705131
607,727.0865198338212
608,727.1157904175685
609,727.1459367876666
610,727.1762857425506
611,727.2061006391777
612,727.2346033268537
613,727.2609979655117
614,727.284495680781
615,727.3043387988606
616,727.3198233918791
617,727.330319011418
618,727.3352847332868
619,727.3342809469066
620,727.3269766757845
621,727.3131525786505
622,727.2927001108084
623,727.2656175806711
624,727.2320039834798
625,727.1920515231799
626,727.1460376687348
627,727.0943174584855
628,727.0373165845979
629,726.9755256145121
630,726.9094955846856
631,726.8398350647886
632,726.7672085127757
633,726.6923353292415
634,726.615988637411
635,726.5389926207048
636,726.462217278248
637,726.3865696770845
638,726.3129811838463
639,726.2423907471127
640,726.175724970444
641,726.1138762517444
642,726.0576804887189
643,726.0078957457687
644,725.9651829619581
645,725.9300894073458
646,725.9030352975136
647,725.8843038079349
648,725.8740346400845
649,725.8722212029708
650,725.8787113855551
651,725.8932118525796
652,725.9152957842599
653,725.9444139142707
654,725.9799085536076
655,726.0210300891636
656,726.0669553304492
657,726.1168070728515
658,726.1696742760832
659,726.2246322678559
660,726.2807624143463
661,726.3371708046094
662,726.3930056452369
663,726.4474731586683
664,726.4998517563434
665,726.5495041300255
666,726.5958867576663
667,726.6385562655211
668,726.6771721810751
669,726.7114958188791
670,726.7413853152309
671,726.7667871487774
672,726.7877247942362
673,726.8042853480339
674,726.8166050104761
675,726.8248543005842
676,726.8292238876929
677,726.8299119181257
678,726.8271136313916
679,726.8210138610948
680,726.8117827133461
681,726.7995743902374
682,726.7845288748782
683,726.7667760333476
684,726.7464415596704
685,726.7236540774296
686,726.6985526893251
687,726.671294379069
688,726.6420608255887
689,726.6110642635394
690,726.5785520366991
691,726.5448095501698
692,726.5101614513419
693,726.4749709820856
694,726.4396374909817
695,726.404592076171
696,726.370291273622
697,726.3372086562546
698,726.3058242328137
699,726.2766116953658
700,726.2500238628401
701,726.2264770192864
702,726.2063351276215
703,726.1898950247083
704,726.1773736494185
705,726.1688981682789
706,726.1644996235075
707,726.1641104807844
708,726.1675661888501
709,726.1746105811618
710,726.1849047045845
711,726.1980385048994
712,726.2135447539214
713,726.2309146679913
714,726.249614796772
715,726.269104854397
716,726.2888561399457
717,726.3083700489098
718,726.3271959760503
719,726.3449477371172
720,726.3613175659708
721,726.3760868183205
722,726.3891327231704
723,726.4004308067227
724,726.4100529052758
725,726.4181609476663
726,726.4249969109529
727,726.4308695296862
728,726.436138462596
729,726.4411966869588
730,726.4464519151143
731,726.4523078369089
732,726.4591459856841
733,726.4673089625861
734,726.4770856123641
735,726.4886985797453
736,726.5022945781154
737,726.5179376970026
738,726.5356061129258
739,726.5551925649229
740,726.5765087935501
741,726.5992937470934
742,726.6232248523801
743,726.6479312873146
744,726.6730081074687
745,726.6980301845479
746,726.7225650943691
747,726.7461843386643
748,726.7684726215407
749,726.7890352578958
750,726.8075040467928
751,726.8235420605267
752,726.8368478268005
753,726.8471593520925
754,726.8542583616693
755,726.8579750285556
756,726.8581933151428
757,726.8548568323884
758,726.8479748560305
759,726.8376278870028
760,726.82397196359
761,726.807240880076
762,726.7877455643586
763,726.7658700742994
764,726.7420639262804
765,726.7168307598735
766,726.6907137042019
767,726.6642782327438
768,726.638093671639
769,726.6127147363486
770,726.5886644462163
771,726.5664195143781
772,726.5463989148926
773,726.5289559336293
774,726.514373725418
775,726.5028642177074
776,726.4945700522757
777,726.4895691387196
778,726.4878813353791
779,726.489476707804
780,726.4942846303106
781,726.5022027303821
782,726.5131045355803
783,726.5268448353739
784,726.5432621898844
785,726.5621785400933
786,726.5833963239063
787,726.6066937813678
788,726.6318192578124
789,726.6584853596501
790,726.6863638101224
791,726.7150817766362
792,726.7442203266529
793,726.77331557357
794,726.8018629785906
795,726.8293250895558
796,726.8551426933732
797,726.8787490126607
798,726.8995862899541
799,726.9171239354039
800,726.9308773806276
801,726.9404268241963
802,726.9454350646715
803,726.9456635618535
804,726.9409858452725
805,726.9313974970788
806,726.9170221346625
807,726.8981130047656
808,726.8750499514214
809,726.8483316810683
810,726.8185634522159
811,726.7864405672947
812,726.7527283229125
813,726.7182393214384
814,726.6838091852095
815,726.6502717285842
816,726.6184345774901
817,726.5890561125091
818,726.5628244608843
819,726.5403391095615
820,726.5220955907049
821,726.508473605782
822,726.4997288894215
823,726.4959890302711
824,726.4972533071999
825,726.5033963752778
826,726.5141754437814
827,726.5292405054072
828,726.5481471886862
829,726.5703718517692
830,726.5953285542286
831,726.6223874942009
832,726.6508943799503
833,726.6801900659541
834,726.709629698079
835,726.7386006067303
836,726.7665382075573
837,726.7929391981073
838,726.8173714847258
839,726.8394806328324
840,726.8589931004249
841,726.8757168470429
842,726.889539967897
843,726.9004278593557
844,726.9084192579501
845,726.9136214291595
846,726.9162047993366
847,726.9163973180555
848,726.9144787157873
849,726.9107745924558
850,726.9056500430414
851,726.8995024055292
852,726.8927527343036
853,726.8858357197043
854,726.8791879398678
855,726.8732345189147
856,726.8683744910827
857,726.8649654550603
858,726.8633083976708
859,726.8636337509708
860,726.8660897522477
861,726.870734047159
862,726.8775292710453
863,726.8863430538886
864,726.8969525137669
865,726.9090529029174
866,726.9222697584572
867,726.9361737457348
868,726.950297347491
869,726.9641525960554
870,726.9772491255616
871,726.9891118921869
872,726.9992979430211
873,727.0074116283561
874,727.0131176853035
875,727.0161516747426
876,727.0163273154402
877,727.0135403472793
878,727.0077687156212
879,726.9990691261562
880,726.9875703347229
881,726.9734638247048
882,726.9569927410532
883,726.9384401060223
884,726.9181173982911
885,726.8963544193201
886,726.8734909690556
887,726.8498703649601
888,726.8258344650819
889,726.8017196762928
890,726.7778534274241
891,726.7545507255511
892,726.7321106134859
893,726.7108125082823
894,726.6909124850389
895,726.6726396059246
896,726.6561924104527
897,726.6417356818287
898,726.6293975936767
899,726.6192673418346
900,726.6113933623658
901,726.6057821910139
902,726.6023979576394
903,726.6011625236598
904,726.601956391241
905,726.604620631104
906,726.6089600356211
907,726.6147474761644
908,726.6217291765846
909,726.6296304887682
910,726.6381618282467
911,726.6470246214667
912,726.6559173043634
913,726.664541509003
914,726.6726085759782
915,726.679846450868
916,726.6860068620323
917,726.6908724746496
