acceleration,velocity,displacement
-0.003198286798312146,0.0,0.0
-0.002574893670195829,-1.4432951171269937e-06,-3.6082377928174846e-10
-0.001885115670247147,-2.558297452237738e-06,-1.3612219216229311e-09
-0.001141586442487752,-3.3149729804214627e-06,-2.8295395297877313e-09
-0.0003576968797677663,-3.6897938109853424e-06,-4.580731227639433e-09
0.00045277620533421236,-3.666023979593731e-06,-6.419685675284201e-09
0.0012760432046520288,-3.2338191270971707e-06,-8.144646451956926e-09
0.002098666814325233,-2.390141622352855e-06,-9.550636639319432e-09
0.0029079097513087086,-1.1384974809443697e-06,-1.0432796415143738e-08
0.003692055994888856,5.114939556050215e-07,-1.0589547296478575e-08
0.004440697022005823,2.5446822098286914e-06,-9.825503255120146e-09
0.005144975551839819,4.941100353290102e-06,-7.954057614340448e-09
0.005797780548219503,7.676789378304932e-06,-4.7995851814416885e-09
0.006393888147375784,1.0724706552203754e-05,-1.9921119881451716e-10
0.006930043861364343,1.4055689554388785e-05,5.995887827833617e-09
0.007404982776052959,1.763944621374311e-05,1.3919671769866592e-08
0.007819387359969357,2.144553874774869e-05,2.369091801023954e-08
0.008175786511136927,2.544433221552526e-05,3.541338575105803e-08
0.00847840297911081,2.9607879588087197e-05,4.917643870196114e-08
0.008732958056232898,3.3910719846923123e-05,6.505608856071372e-08
0.008946442672152553,3.8330570029019484e-05,8.311641102969937e-08
0.009126863454542725,4.28488965606933e-05,1.0341127767712756e-07
0.009282970961720847,4.745135516475919e-05,1.2598634060849067e-07
0.00942397546887477,5.21280917724081e-05,1.5088120234278249e-07
0.009559254889455755,5.687389936199073e-05,1.7813170012638218e-07
0.009698060831686187,6.168822829227622e-05,2.0777223203994892e-07
0.009849231695267522,6.657505142401464e-05,2.3983805196902166e-07
0.010020924081933945,7.154259036831501e-05,2.7436746241710406e-07
0.010220374181908453,7.660291493427561e-05,3.114038387427517e-07
0.010453699404261088,8.177143333081799e-05,3.509974258090251e-07
0.010725748541090688,8.706629531715594e-05,3.9320685797101855e-07
0.011040006620827046,9.250773410763537e-05,4.381003653272164e-07
0.011398557546253695,9.811737514940555e-05,4.857566426414766e-07
0.01180210354637201,0.00010391754042256198,5.362653715344685e-07
0.012250036919288172,0.00010993057553897703,5.897274005248533e-07
0.012740557819314444,0.00011617822422362769,6.462546004655044e-07
0.013270831472006493,0.0001226810715464579,7.059694244080259e-07
0.013837177681540355,0.00012945807383484462,7.690042107533515e-07
0.014435284055806201,0.00013652618926918126,8.35500276529358e-07
0.015060432551753386,0.00014390011842107115,9.056068534519211e-07
0.01570772743225172,0.00015159215841707244,9.79479922661457e-07
0.01637231169469594,0.00015961216819880935,1.0572810043154276e-06
0.017049559001187882,0.0001679676358727803,1.139175955333325e-06
0.01773522994014748,0.00017666383310811415,1.2253338225785485e-06
0.018425584706672656,0.0001857040367698192,1.3159257900480318e-06
0.01911744757600386,0.00019508979484048834,1.4111242479506087e-06
0.019808221323676982,0.00020482121206540855,1.511101999677083e-06
0.02049585271236375,0.00021489723057441874,1.6160316103370399e-06
0.02117875369315473,0.00022531588217579836,1.726084888524594e-06
0.02185568650827307,0.0002360744922261553,1.8414324821250826e-06
0.022525623795390044,0.0002471698198020711,1.9622435601321393e-06
0.02318759688354358,0.0002585981249718045,2.0886855463256082e-06
0.023840546676949084,0.0002703551608619277,2.2209238677840413e-06
0.024483191483922074,0.0002824360954021455,2.3591216818500596e-06
0.025113924231572226,0.00029483537433101905,2.5034395492833506e-06
0.025730747443119335,0.00030754654224969194,2.6540350284285283e-06
0.026331248833363186,0.00032056204131881256,2.8110621743206544e-06
0.02691261489746781,0.0003338730072515203,2.9746709364632373e-06
0.02747167597575866,0.0003474690799698269,3.145006458268574e-06
0.028004974675031557,0.0003613382426325245,3.3222082889191618e-06
0.028508849540770913,0.0003754666986864751,3.5064095242489115e-06
0.02897952619479937,0.00038983879262036766,3.697735897075622e-06
0.029413208510003615,0.0004044369762965684,3.896304839304856e-06
0.029806163708503027,0.00041924181935119507,4.102224538216797e-06
0.03015479792133602,0.00043423205975865484,4.3155930079942595e-06
0.030455721951108437,0.00044938468972676593,4.536497195365615e-06
0.030705809809458293,0.0004646750726669076,4.765012135964033e-06
0.030902254428351046,0.00048007708872635995,5.0012001763123505e-06
0.031042625243811066,0.0004955633086444005,5.24511027565504e-06
0.03112493080386551,0.0005111051976563197,5.496777402230221e-06
0.031147686101690837,0.0005266733518827088,5.756222039614978e-06
0.03110997964780641,0.0005422377683200831,6.023449819665676e-06
0.031011531537252793,0.0005577681461163479,6.2984512982747835e-06
0.030852733588932243,0.0005732342123978941,6.581201887903344e-06
0.030634666540503574,0.0005886060624302531,6.871661956610381e-06
0.030359094859490916,0.0006038545027802517,7.169777097913007e-06
0.030028443844289366,0.0006189513874561968,7.475478570472119e-06
0.02964576476374496,0.0006338699396082054,7.78868390223822e-06
0.029214692124358496,0.0006485850538302312,8.10929765059783e-06
0.028739394304605235,0.0006630735754374721,8.437212307914756e-06
0.028224516803443886,0.0006773145532144844,8.772309340077745e-06
0.02767511739037027,0.0006912894617629379,9.114460343822101e-06
0.02709659382109654,0.0007049823895658046,9.463528306654287e-06
0.026494605929416108,0.0007183801895034327,9.819368951421596e-06
0.02587499397296071,0.0007314725894790269,1.0181832146167211e-05
0.02524369419766226,0.0007442522615216827,1.0550763358917388e-05
0.024606651465950785,0.0007567148479375859,1.0926005136282206e-05
0.023969728779881336,0.000768858942999044,1.1307398584016363e-05
0.023338615383278333,0.0007806860290398339,1.1694784827026083e-05
0.02271873765617624,0.0007922003672996974,1.2088006426110966e-05
0.022115177906816837,0.0008034088461904458,1.2486908729483501e-05
0.021532604642780992,0.0008143207918278453,1.2891341138988075e-05
0.020975215391152466,0.0008249477468363286,1.3301158273654118e-05
0.020446691029287513,0.0008353032234414386,1.3716221016223561e-05
0.019950158844053965,0.000845402435909774,1.4136397431061365e-05
0.019488159935550736,0.0008552620156046752,1.4561563543939976e-05
0.019062615786553338,0.0008648997095352012,1.4991603975224945e-05
0.018674789636533257,0.0008743340608909729,1.5426412417831488e-05
0.018325240875482235,0.0008835840685189767,1.5865891950183975e-05
0.01801377459975683,0.0008926688223877864,1.6309955172910665e-05
0.017739392868339657,0.0009016071142548106,1.6758524157071314e-05
0.017500257648897753,0.00091041702688412,1.7211530192356047e-05
0.017293676404758505,0.0009191155103975341,1.7668913326676462e-05
0.017116118806492765,0.000927717959200347,1.8130621694075934e-05
0.016963267495849664,0.0009362378057759326,1.8596610635320004e-05
0.01683009923135694,0.0009446861474577342,1.906684162362842e-05
0.01671098828310784,0.0009530714193363504,1.9541281015326943e-05
0.016599823660033212,0.0009613991223221356,2.0019898650741565e-05
0.016490134454157774,0.0009696716118506834,2.050266633428477e-05
0.016375220157257564,0.0009778879505035372,2.0989556224873325e-05
0.016248283717158394,0.0009860438264721412,2.1480539169117245e-05
0.016102565337760267,0.000994131538735871,2.1975583010419248e-05
0.015931475820798496,0.0010021400490255105,2.2474650907359593e-05
0.015728729434650944,0.0010100551003393728,2.2977699694700813e-05
0.0154884768973789,0.0010178594019223802,2.3484678320266253e-05
0.015205438546563815,0.001025532880783366,2.399552639094269e-05
0.014875036580276625,0.0010330529995650761,2.45101728610298e-05
0.01449352420979358,0.0010403951397625936,2.5028534895861716e-05
0.01405810886414797,0.001047533048031079,2.5550516942810133e-05
0.013567065839902153,0.0010544393417070913,2.6076010040244676e-05
0.013019837839551187,0.0010610860676269547,2.6604891392578187e-05
0.012417114838183639,0.0010674453057963884,2.7137024235934024e-05
0.011760887777969483,0.0010734898064504268,2.767225801399573e-05
0.011054469056763732,0.0010791936456591102,2.8210428877023114e-05
0.010302473274573369,0.0010845328812419445,2.875136050874838e-05
0.009510753581111232,0.0010894861879558657,2.929486527604783e-05
0.008686292109717199,0.0010940354493785727,2.9840745685381443e-05
0.00783704701919537,0.0010981662841608008,3.0388796118766286e-05
0.006971762988522809,0.0011018684866627303,3.0938804811472167e-05
0.006099755758420003,0.001105136366349466,3.1490556024725216e-05
0.005230683667002641,0.0011079689762058217,3.2043832360364035e-05
0.004374319566261538,0.0011103702270141378,3.259841716116903e-05
0.0035403348508973517,0.0011123488906184275,3.315409694057717e-05
0.0027381038756034933,0.0011139185003000527,3.371066378830679e-05
0.001976532674162276,0.001115097159437494,3.426791770324118e-05
0.0012639117977911547,0.0011159072705554823,3.482566881073942e-05
0.0006077901941989507,0.0011163751960534798,3.538373942739166e-05
1.4865692868556112e-05,0.0011165308600252467,3.5941965941411344e-05
-0.0005091123849355979,0.0011164072983522299,3.650020048100571e-05
-0.0009594319672544245,0.0011160401622641823,3.705831234615981e-05
-0.0013324997003053905,0.0011154671793472924,3.761618918156268e-05
-0.0016259136440929245,0.0011147275760111928,3.8173737870402306e-05
-0.0018385232244204903,0.0011138614667940644,3.873088513110362e-05
-0.0019704716002443778,0.0011129092180878983,3.928757780232411e-05
-0.002023216324837036,0.001111910796106628,3.984378280587275e-05
-0.0019995253950435277,0.0011109051106766579,4.039948678256857e-05
-0.001903446494368203,0.0011099293677043049,4.095469540216381e-05
-0.0017402473662225528,0.0011090184442391572,4.150943235514968e-05
-0.0015163254773408687,0.0011082043010282663,4.206373804146654e-05
-0.0012390862079363102,0.001107515448106947,4.261766797875034e-05
-0.0009167911009757007,0.001106976478779719,4.317129096047201e-05
-0.0005583808988037204,0.001106607685779774,4.372468700161188e-05
-0.00017328112564895913,0.0011064247702736608,4.427794511562524e-05
0.00022880039086849938,0.0011064386500899658,4.4831160970716145e-05
0.0006380750176736125,0.0011066553689421013,4.5384434475474164e-05
0.0010448668120024564,0.0011070761043995203,4.593786734380957e-05
0.0014397936135250044,0.0011076972695059021,4.6491560687285926e-05
0.001813933353905193,0.0011085107012477596,4.704561267997434e-05
0.0021589742612645748,0.001109503928151552,4.760011633732417e-05
0.0024673481848571923,0.0011106605087630825,4.815515744655283e-05
0.002732346536313235,0.001111960432443375,4.871081268185444e-05
0.002948218054550987,0.0011133805735910913,4.926714793336306e-05
0.0031102467163045683,0.001114895189783805,4.982421687420678e-05
0.003214807145435109,0.00111647645324924,5.0382059784965044e-05
0.003259394397092334,0.0011180950036348719,5.094070264918607e-05
0.003242625275105359,0.0011197205085529212,5.150015652723302e-05
0.003164209361454364,0.0011213222172120612,5.2060417208674265e-05
0.00302488955472063,0.001122869491941105,5.262146513596256e-05
0.002826353972874093,0.0011243323028230037,5.318326558465359e-05
0.0025711232457501496,0.0011256816721276596,5.374576907839126e-05
0.002262418919954556,0.0011268900576690858,5.430891201084045e-05
0.0019040194432413838,0.001127931667259885,5.487261744207269e-05
0.0015001099920317537,0.0011287826996187033,5.543679603379234e-05
0.0010551317257143631,0.0011294215100481398,5.600134708620905e-05
0.000573635447828801,0.0011298287018415257,5.6566159639181465e-05
6.014429748146159e-05,0.0011299871467778532,5.713111360133631e-05
-0.00048097027389485856,0.0011298819402837498,5.769608087310171e-05
-0.0010455955440798882,0.0011295002988292561,5.826092643287996e-05
-0.0016299643825883788,0.001128831408847589,5.882550935979917e-05
-0.002230719098067754,0.001127866237977425,5.938968377150542e-05
-0.002844950430944338,0.001126597320595172,5.995329966114857e-05
-0.00347021217038946,0.0011250185299448384,6.0516203623783573e-05
-0.004104514691510367,0.0011231248482293636,6.107823946832713e-05
-0.00474630230591642,0.001120912143980007,6.163924871637947e-05
-0.005394419033827211,0.001118376963645071,6.219907099328573e-05
-0.0060480663137058,0.0011155163423081876,6.275754431977405e-05
-0.006706755702327057,0.0011123276368041795,6.331450531455215e-05
-0.007370259871998291,0.0011088083829105982,6.386978931948084e-05
-0.00803856520644964,0.0011049561766409862,6.442323045936873e-05
-0.008711828590676264,0.0011007685781917046,6.49746616480769e-05
-0.00939033990362768,0.0010962430360681285,6.552391455164186e-05
-0.010074490383145422,0.0010913768284964353,6.6070819517783e-05
-0.01076474531202852,0.0010861670195726418,6.661520547980027e-05
-0.011461617861660726,0.0010806104287792195,6.715689984188824e-05
-0.012165640666019217,0.0010747036141472994,6.769572835261987e-05
-0.012877333360464762,0.0010684428706406784,6.823151497381686e-05
-0.013597166579853234,0.001061824245655599,6.876408175289094e-05
-0.014325523737283612,0.0010548435730763149,6.929324870757392e-05
-0.015062660980360867,0.0010474965268969037,6.981883373256723e-05
-0.015808664823645742,0.0010397786954459021,7.034065253815293e-05
-0.016563407789801386,0.0010316856772925403,7.085851863133753e-05
-0.01732650457144566,0.0010232131992022285,7.137224335046122e-05
-0.018097272860925065,0.0010143572548441358,7.188163596397281e-05
-0.018874702953622646,0.001005114260890499,7.238650384290646e-05
-0.019657439000455433,0.0009954812254019795,7.288665271447959e-05
-0.02044377336375709,0.0009854559223109263,7.338188700140781e-05
-0.021231654496115367,0.0009750370653459581,7.387201024832203e-05
-0.022018708391794643,0.0009642244746239806,7.435682563331451e-05
-0.022802273888331493,0.000953019229053949,7.4836136559234e-05
-0.023579452236005025,0.0009414237975228648,7.53097473158782e-05
-0.02434717095061072,0.0009294421417262109,7.577746380069047e-05
-0.025102261614272873,0.00091707978358499,7.623909428201827e-05
-0.025841551308483573,0.0009043438303543009,7.669445018550309e-05
-0.026561966727479652,0.00089124295084531,7.714334688080299e-05
-0.027260648051236142,0.0008777872971506311,7.758560444280197e-05
-0.027935067334951862,0.0008639883683040842,7.802104835916565e-05
-0.02858314476426656,0.0008498588152792795,7.844951015506149e-05
-0.029203355898427475,0.000835412190113606,7.887082790640971e-05
-0.029794823638314667,0.0008206626452294205,7.928484661524546e-05
-0.030357389772505645,0.0008056245918767154,7.969141842452199e-05
-0.030891662137809906,0.0007903123288991365,8.009040265471595e-05
-0.03139903404228916,0.0007747396548541117,8.048166565065427e-05
-0.03188167260330801,0.0007589194781927124,8.086508043391598e-05
-0.03234247331805253,0.0007428634417123723,8.124052616389224e-05
-0.032784980643843296,0.0007265815782218983,8.160788741887582e-05
-0.0332132777304176,0.0007100820136283331,8.196705331683838e-05
-0.03363185079331153,0.0006933707314974007,8.231791650311982e-05
-0.03404543435397703,0.0006764514102105786,8.266037203854682e-05
-0.03445884365355987,0.0006593253407086944,8.299431622627664e-05
-0.03487680092272251,0.0006419914295646238,8.331964541884496e-05
-0.03530376264375129,0.0006244462886730054,8.363625484840437e-05
-0.0357437544345354,0.0006066844094034337,8.394403752292347e-05
-0.03620021853570497,0.0005886984161608736,8.424288322931455e-05
-0.03667587748249392,0.0005704793921563238,8.453267768139385e-05
-0.03717261760894355,0.0005520172683834645,8.48133018465288e-05
-0.03769139703947987,0.0005333012647213586,8.508463147980501e-05
-0.03823218349560043,0.0005143203695875885,8.534653688838224e-05
-0.038793927168688194,0.0004950638419215163,8.559888294125952e-05
-0.03937457332535151,0.00047552171679800644,8.58415293309394e-05
-0.03997111795701226,0.0004556852939774155,8.607433108363325e-05
-0.04057970690248004,0.0004355475877625424,8.629713930406824e-05
-0.04119577449530292,0.00041510371741309665,8.650980213036215e-05
-0.04181421335149936,0.0003943512204513961,8.671216586482828e-05
-0.04242956399773126,0.00037329027611408843,8.690407623896965e-05
-0.04303621196467364,0.0003519238321234872,8.708537976602905e-05
-0.04362858023216406,0.0003302576340742778,8.725592513257849e-05
-0.044201306303452474,0.00030830016244037367,8.741556458170715e-05
-0.04474939561484842,0.0002860624869607984,8.756415524405744e-05
-0.045268345895501674,0.0002635580515832109,8.770156037869345e-05
-0.04575423992562694,0.00024080240512792874,8.782765049287124e-05
-0.04620380680969139,0.00021781289344409915,8.794230431751424e-05
-0.0466144542287084,0.0001946083281844992,8.804540962292139e-05
-0.04698427565665017,0.00017120864571315954,8.81368638663958e-05
-0.04731203685775455,0.00014763456758455835,8.821657466972023e-05
-0.047597145257258895,0.000123907272055805,8.828446012963032e-05
-0.0478396046900034,0.00010004808456898943,8.834044896878652e-05
-0.04803995764332037,7.607819398565848e-05,8.838448053842517e-05
-0.048199217863558734,5.2018400108938706e-05,8.841650468694882e-05
-0.04831879706733913,2.788889637621424e-05,8.843648151107012e-05
-0.048400429207777734,3.7090898074350223e-06,8.844438100761602e-05
-0.04844609462473302,-2.0502541150692665e-05,8.844018264478021e-05
-0.04845794585161108,-4.472855126977869e-05,8.84238748716751e-05
-0.04843823737212564,-6.895259707571287e-05,8.839545458458872e-05
-0.04838926246710343,-9.315947203552014e-05,8.835492656731092e-05
-0.04831330042585654,-0.00011733511275876013,8.830230292111234e-05
-0.04821257649555743,-0.00014146658198911362,8.823760249742538e-05
-0.04808923563785879,-0.00016554203502246767,8.816085034317249e-05
-0.047945329868062055,-0.0001895506763989479,8.807207716531714e-05
-0.047782817030567484,-0.00021348271312360528,8.79713188179365e-05
-0.04760356628033851,-0.00023732930895133177,8.785861581241777e-05
-0.04740936428880498,-0.00026108254159361766,8.773401284978153e-05
-0.047201918010492554,-0.00028473536216844204,8.759755837384101e-05
-0.04698285352397528,-0.000308281555052059,8.744930414453589e-05
-0.046753713433979924,-0.0003317156967915478,8.728930483157499e-05
-0.04651595651504607,-0.0003550331142788043,8.71176176288074e-05
-0.04627096267352644,-0.00037822984407594743,8.693430188921872e-05
-0.04602004375682084,-0.00040130259568353427,8.673941877927884e-05
-0.04576445696134996,-0.000424248720863077,8.65330309501422e-05
-0.04550541453649926,-0.0004470661887375393,8.631520222274204e-05
-0.045244082486311094,-0.00046975356299324187,8.608599728480934e-05
-0.04498156195710957,-0.000492309974104097,8.584548140053501e-05
-0.044718849757105654,-0.0005147350770326508,8.559372013775083e-05
-0.04445677884227632,-0.0005370289841824963,8.533077912244704e-05
-0.04419594443401398,-0.0005591921650015689,8.505672383515103e-05
-0.04393662485786772,-0.0005812253073245393,8.477161946706951e-05
-0.04367870714025078,-0.0006031291403240689,8.447553085515735e-05
-0.04342162590866446,-0.0006249042235862977,8.416852251417976e-05
-0.04316432115989546,-0.0006465507103534377,8.385065878069482e-05
-0.042905217738301776,-0.000668068095077987,8.352200407933697e-05
-0.04264222814145969,-0.0006894549565479274,8.31826233164305e-05
-0.042372779764312245,-0.0007107087085243704,8.283258240016242e-05
-0.042093866163425316,-0.0007318253700063048,8.247194888052975e-05
-0.04180211924280592,-0.0007527993663578625,8.210079269643871e-05
-0.04149389725819091,-0.0007736233704831117,8.171918701222847e-05
-0.04116538361190111,-0.0007942881907006347,8.132720912193253e-05
-0.04081269283402726,-0.0008147827098121169,8.092494139680434e-05
-0.040431981186961105,-0.0008350938783173639,8.051247224977197e-05
-0.04001955933398846,-0.0008552067634476013,8.008989708933073e-05
-0.03957200408484682,-0.0008751046543023102,7.965731923489325e-05
-0.03908626589396366,-0.0008947692217970128,7.921485076586842e-05
-0.03855976848206897,-0.000914180730391021,7.87626132778214e-05
-0.03799049684139095,-0.000933318296721886,7.830073852104318e-05
-0.037377070455947035,-0.0009521601885462205,7.782936889972616e-05
-0.03671879956172721,-0.0009706841560506391,7.734865781357694e-05
