acceleration,velocity,displacement
-0.0017353022362196497,0.0,0.0
-0.0016186844778459523,-8.384966785164005e-07,-2.0962416962910014e-10
-0.0014661426477647504,-1.609703459919076e-06,-8.216742042379693e-10
-0.0012788127447966357,-2.295942308059423e-06,-1.798085646232594e-09
-0.0010578970881860755,-2.8801197663051005e-06,-3.0921011648237247e-09
-0.0008046547364280311,-3.3457577224586272e-06,-4.648570537014657e-09
-0.0005203918974078565,-3.6770193809175994e-06,-6.4042648128587135e-09
-0.00020645245504144095,-3.8587304690299234e-06,-8.288202275345595e-09
0.00013579126643232224,-3.8763957661822035e-06,-1.0221983834148627e-08
0.000504947383469331,-3.7162111037067904e-06,-1.2120135551620875e-08
0.0008996128692423688,-3.3650710405288655e-06,-1.3890456087679789e-08
0.001318381404609093,-2.810572472066e-06,-1.5434366965828506e-08
0.0017598505761365947,-2.041014476879578e-06,-1.66472637030649e-08
0.002222628344616632,-1.0453947466912714e-06,-1.741886600895761e-08
0.002705338718259676,1.8659701902780569e-07,-1.7633565440873477e-08
0.0032066265796875425,1.6645883435146105e-06,-1.7170769100237874e-08
0.0037251616392494163,3.39753539824885e-06,-1.590523816479701e-08
0.004259641516800714,5.393736187261382e-06,-1.370742026841945e-08
0.004808793981056032,7.660845061725569e-06,-1.0443774956172712e-08
0.005371378393396837,1.0205888155338786e-05,-5.977091651906623e-09
0.005946186412467098,1.303527935680477e-05,-1.6679977387073325e-10
0.00653204202083353,1.6154836465129927e-05,7.1307291816129405e-09
0.007127800935180484,1.956979720413343e-05,1.606188759892878e-08
0.007732349458730075,2.328483480261107e-05,2.6775545600614905e-08
0.008344602836459762,2.730407287640853e-05,3.942277252036981e-08
0.008963503186509394,3.163109938215082e-05,5.415656558500965e-08
0.009588017101008003,3.626897945403017e-05,7.11315852940549e-08
0.010217133025622577,4.122026698568781e-05,9.050389690398439e-08
0.010849858531848892,4.648701487505568e-05,1.1243071736917027e-07
0.011485217590390477,5.207078390561552e-05,1.3707016706433807e-07
0.012122247944330488,5.797265028929576e-05,1.645810256130659e-07
0.012759998669401034,6.419321194272864e-05,1.95122491171072e-07
0.01339752799155586,7.073259360796786e-05,2.2885394255874612e-07
0.014033901408812957,7.759045095806006e-05,2.659347037002531e-07
0.01466819014312185,8.476597384604376e-05,3.065238099012791e-07
0.015299469935799791,9.225788886577416e-05,3.5077977557923353e-07
0.015926820194474577,0.00010006446139834276,3.9886036314526277e-07
0.016549323492629865,0.00010818349732011887,4.509223528248782e-07
0.017166065410733383,0.00011661234454595969,5.071213132913979e-07
0.01777613469356321,0.00012534789457203384,5.676113730708963e-07
0.01837862368536784,0.00013438658416676662,6.325449927555964e-07
0.018972628993973405,0.00014372439733660193,7.020727381314386e-07
0.019557252329670455,0.0001533568676675129,7.763430543824672e-07
0.02013160146909583,0.00016327908111720446,8.555020415786465e-07
0.020694791306509686,0.00017348567931110584,9.396932316857241e-07
0.021245944967326794,0.00018397086337956496,1.0290573673583918e-06
0.021784194968744907,0.0001947283983635829,1.1237321827941787e-06
0.02230868442346754,0.00020575161821163602,1.2238521869379834e-06
0.022818568296896092,0.00021703343139172694,1.329548449338824e-06
0.023313014742899926,0.00022856632715167595,1.4409483889746747e-06
0.023791206554967876,0.0002403423824761429,1.5581755663816295e-06
0.024252342777252123,0.0002523532698091979,1.6813494794529648e-06
0.024695640523353567,0.00026459026563434935,1.8105853633138516e-06
0.025120337047875297,0.0002770442600271566,1.945993994729228e-06
0.025525692103362422,0.00028970576731496603,2.087681501564759e-06
0.025910990591928765,0.0003025649379887888,2.2357491778906975e-06
0.02627554549024202,0.0003156115720093315,2.3902933053902276e-06
0.02661870099659727,0.0003288351336310413,2.5514049818003208e-06
0.026939835827650648,0.00034222476783710333,2.719169957167357e-06
0.027238366583827243,0.0003557693184399728,2.893668478736626e-06
0.027513751102840725,0.00036945734786163984,3.0749751453120293e-06
0.027765491723260968,0.0003832771585681653,3.2631587719194805e-06
0.027993138383262714,0.0003972168160947962,3.458282265585221e-06
0.02819629148836278,0.00041126417356270257,3.660402512999596e-06
0.028374604498169583,0.00042540689755933564,3.8695702807801054e-06
0.02852778620171232,0.0004396324952343061,4.085830128978516e-06
0.028655602668904396,0.00045392834245196027,4.3092203384000825e-06
0.028757878878741303,0.00046828171283887167,4.53977285222279e-06
0.028834500030164675,0.00048267980756609816,4.777513232324033e-06
0.028885412537357564,0.0004971097857079787,5.022460630642552e-06
0.028910624697284913,0.0005115587950166394,5.2746277758237064e-06
0.028910206996977775,0.000526014002940205,5.534020975312917e-06
0.028884292012775047,0.0005404626276926432,5.8006401329711295e-06
0.028833073857418495,0.0005548919691601916,6.0744787821843384e-06
0.028756807156146577,0.0005692894394135828,6.355524134327782e-06
0.02865580556695659,0.0005836425925943587,6.643757142329768e-06
0.02853043988630471,0.000597939153957674,6.939152578967776e-06
0.02838113579140813,0.0006121670478771022,7.24167912942647e-06
0.02820837126543284,0.0006263144246413124,7.551299497556073e-06
0.02801267374038154,0.0006403696858927661,7.867970525189594e-06
0.02779461698512766,0.0006543215085741434,8.19164332380632e-06
0.027554817768965276,0.0006681588672626667,8.522263417765523e-06
0.027293932340500236,0.0006818710547900331,8.859770898278699e-06
0.0270126527694324,0.0006954477010675163,9.204100587243086e-06
0.02671170320018915,0.0007088787900599217,9.555182210024945e-06
0.02639183606199946,0.0007221546748754689,9.912940576258793e-06
0.026053828273943192,0.0007352660909594545,1.0277295767717524e-05
0.025698477482640026,0.0007482041673986003,1.0648163332307039e-05
0.025326598378605382,0.0007609604363639117,1.1025454483247667e-05
0.024939019148645547,0.0007735268407457244,1.1409076302525076e-05
0.02453657812375921,0.0007858957400638256,1.1798931947727463e-05
0.024120120670813466,0.0007980599147624688,1.2194920861434036e-05
0.023690496359329384,0.0008100125690200045,1.2596938982379654e-05
0.023248556419449142,0.0008217473322146992,1.300487895768833e-05
0.022795151493434383,0.0008332582591929201,1.3418630355540234e-05
0.022331129669740768,0.0008445398294837139,1.3838079877709392e-05
0.021857334779446715,0.0008555869455960108,1.4263111571479324e-05
0.021374604933859828,0.0008663949305243374,1.469360704050941e-05
0.02088377129041825,0.000876959524580407,1.5129445654285597e-05
0.020385657049397772,0.0008872768816653609,1.557050475584704e-05
0.01988107670192755,0.0008973435651031923,1.6016659867539178e-05
0.01937083556301149,0.0009071565431694271,1.6467784894607333e-05
0.018855729623556333,0.000916713184466069,1.6923752326516206e-05
0.018336545737981696,0.0009260112533064535,1.7384433435959336e-05
0.017814062130686446,0.0009350489052736206,1.7849698475604356e-05
0.017289049166390173,0.0009438246830978897,1.8319416872697232e-05
0.016762270302983273,0.000952337512965233,1.8793457421713013e-05
0.01623448314189383,0.0009605867013264524,1.9271688475285936e-05
0.015706440503822517,0.0009685719322378814,1.975397813367702e-05
0.015178891470637628,0.0009762932652314964,2.0240194433044364e-05
0.01465258233919205,0.0009837511336839538,2.0730205532773228e-05
0.014128257435023142,0.0009909463436275077,2.1223879902101095e-05
0.013606659739911302,0.0009978800729212413,2.1721086506238283e-05
0.013088531296108557,0.0010045538706802463,2.2221694992138654e-05
0.012574613356594209,0.001010969656843422,2.2725575874019572e-05
0.012065646252141982,0.0010171297217456059,2.323260071866683e-05
0.011562368944452839,0.0010230367255447547,2.374264233048942e-05
0.01106551823454945,0.0010286936973395052,2.4255574936210484e-05
0.010575827597827476,0.0010341040337975994,2.4771274368994762e-05
0.010094025619625305,0.0010392714971019625,2.5289618251719654e-05
0.009620834006868117,0.001044200212008586,2.581048617899729e-05
0.009156965152969116,0.0010488946617985453,2.6333759897449073e-05
0.008703119235248757,0.0010533596828955997,2.685932348362261e-05
0.008259980828338032,0.0010576004579114964,2.7387063518824387e-05
0.007828215026535119,0.0010616225068752147,2.7916869260021065e-05
0.0074084630846170535,0.0010654316764030028,2.844863280584062e-05
0.007001337609390011,0.0010690341265765044,2.8982249256585496e-05
0.006607417361288852,0.0010724363153191742,2.9517616867059416e-05
0.006227241753223051,0.0010756449800978021,3.005463719091366e-05
0.00586130515799716,0.001078667116825607,3.059321521514451e-05
0.005510051151572328,0.0010815099559029994,3.113325948332666e-05
0.005173866824401917,0.0010841809353969928,3.167468220615166e-05
0.0048530772860036165,0.0010866876714245943,3.221739935785705e-05
0.00454794047034369,0.0010890379258636812,3.276133075717912e-05
0.004258642326266885,0.0010912395715628339,3.330640013153575e-05
0.0039852924542210545,0.0010933005552579559,3.3852535163240946e-05
0.0037279202328650736,0.0010952288584297274,3.439966751666287e-05
0.0034864714687015777,0.001097032456355119,3.494773284535908e-05
0.0032608055973638505,0.0010987192756216353,3.5496670778353266e-05
0.0030506934654118086,0.0011002971503873292,3.604642488485551e-05
0.002855815726687175,0.001101773777685354,3.659694261687368e-05
0.002675761895918605,0.0011031566720910053,3.7148175229317775e-05
0.0025100301081563896,0.001104453120092024,3.770007767736353e-05
0.0023580276295913642,0.001105670134526461,3.825260849101815e-05
0.0022190721535502635,0.0011068144094722463,3.8805729627017826e-05
0.002092393900830495,0.0011078922759858415,3.935940629838235e-05
0.0019771385314986574,0.0011089096590939237,3.991360678215229e-05
0.0018723708663325952,0.0011098720364433815,4.0468302206036616e-05
0.0017770794068475235,0.0011107843990116766,4.102346631490038e-05
0.001690181629336335,0.0011116512142707227,4.157907521822098e-05
0.0016105300088873284,0.0011124763921802785,4.213510711983373e-05
0.0015369187055907366,0.001113263254358898,4.2691542031468525e-05
0.0014680908229022108,0.0011140145067410213,4.3248361471743505e-05
0.001402746134000916,0.0011147322159802471,4.380554815242382e-05
0.0013395491690761472,0.0011154177898060164,4.4363085653870385e-05
0.001277137563293747,0.001116071961489109,4.492095809169417e-05
0.0012141305759722052,0.0011166947785239256,4.547914977669742e-05
0.0011491377001466648,0.0011172855955929554,4.603764487022664e-05
0.0010807672860807885,0.0011178430718395123,4.6596427037084756e-05
0.0010076351049507764,0.0011183651724372703,4.715547909815395e-05
0.0009283727809946736,0.0011188491744087566,4.771478268486546e-05
0.0008416360203894129,0.0011192916766091026,4.827431789761992e-05
0.0007461125627959551,0.0011196886137548989,4.883406297021092e-05
0.0006405297794424981,0.0011200352743404585,4.939399394223476e-05
0.000523661842828188,0.0011203263222460261,4.9954084341381376e-05
0.00039433639898178713,0.0011205558218064786,5.05143048773945e-05
0.00025144068343583035,0.0011207172660770831,5.1074623149365394e-05
9.39270359034203e-05,0.001120803608006918,5.1635003367886397e-05
-7.918221492256326e-05,0.001120807294212163,5.2195406093441166e-05
-0.0002687905077236895,0.0011207203010315016,5.275578799225208e-05
-0.0004757234424661706,0.001120534172543954,5.3316101610645946e-05
-0.000700725798327408,0.0011202400602337557,5.3876295168840376e-05
-0.0009444591572540523,0.0011198287639948602,5.4436312374897527e-05
-0.0012075001125183191,0.001119290774177417,5.499609225944059e-05
-0.0014903390392205294,0.0011186163143894823,5.555556903158232e-05
-0.0017933794002096212,0.0011177953847796248,5.6114671956374595e-05
-0.0021169375577578717,0.0011168178055401328,5.667332525395453e-05
-0.0024612430595917973,0.0011156732603857954,5.723144802043601e-05
-0.0028264393661868274,0.0011143513397793507,5.77889541704773e-05
-0.0032125849842274197,0.0011128415836917471,5.8345752401345076e-05
-0.003619654972923817,0.0011111335237024593,5.8901746178193626e-05
-0.004047542799051406,0.0011092167242594654,5.9456833740184105e-05
-0.004496062528842878,0.0011070808229274919,6.0010908126980844e-05
-0.004964951351103712,0.0011047155694575053,6.056385722507709e-05
-0.0054538724225972075,0.00110211086351408,6.111556383331999e-05
-0.005962418019584136,0.0010992567909035348,6.166590574692439e-05
-0.0064901129759013,0.0010961436581546635,6.221475585918894e-05
-0.007036418388627823,0.0010927620253135312,6.276198228005599e-05
-0.007600735571958295,0.0010891027368233846,6.330744847059022e-05
-0.008182410236095663,0.001085156950371371,6.38510133923889e-05
-0.00878073686237953,0.0010809161635967524,6.439253167088094e-05
-0.009394963239224636,0.0010763722385713514,6.493185377142296e-05
-0.01002429511494327,0.0010715174239828095,6.54688261870615e-05
-0.010667900915799389,0.0010663443749751238,6.600329163680098e-05
-0.011324916477244786,0.0010608461706268627,6.653508927320147e-05
-0.011994449746108441,0.0010550163290710245,6.706405489812594e-05
-0.012675585424727612,0.0010488488202783156,6.759002118546328e-05
-0.013367389533657056,0.0010423380765387194,6.811281790966754e-05
-0.014068913866170296,0.0010354790006887626,6.863227217897442e-05
-0.01477920030451776,0.0010282669721460905,6.914820867218313e-05
-0.015497284973922863,0.0010206978508264803,6.966044987792627e-05
-0.016222202223462254,0.001012767979027134,7.016881633538968e-05
-0.01695298843336823,0.0010044741813629264,7.067312687548719e-05
-0.017688685649878338,0.0009958137628421147,7.117319886153845e-05
-0.01842834504415131,0.0009867845051686073,7.166884842854113e-05
-0.019171030186220375,0.0009773846613610143,7.215989072017353e-05
-0.019915820121549334,0.0009676129487840719,7.26461401227098e-05
-0.020661812237918003,0.0009574685406942051,7.312741049507937e-05
-0.021408124913779893,0.0009469510564062806,7.36035153943545e-05
-0.02215389994227392,0.0009360605501922671,7.407426829600413e-05
-0.02289830472533734,0.0009247974990253643,7.453948280830854e-05
-0.023640534232927415,0.0009131627892857981,7.499897288038632e-05
-0.024379812725055756,0.0009011577025463023,7.545255300334435e-05
-0.02511539523351677,0.0008887839005566592,7.59000384041201e-05
-0.02584656879243488,0.0008760434095501713,7.63412452316468e-05
-0.02657265339712929,0.0008629386040027802,7.677599073503504e-05
-0.02729300266601119,0.0008494721899869951,7.720409343353248e-05
-0.028007004181640243,0.0008356471882750823,7.7625373278098e-05
-0.028714079492844092,0.0008214669173564612,7.803965180450588e-05
-0.029413683768147472,0.0008069349765412133,7.84467522779803e-05
-0.030105305099287775,0.0007920552293243545,7.884649982944668e-05
-0.030788463458933223,0.0007768317871847992,7.923872158357397e-05
-0.03146270931861842,0.0007612689939904113,7.962324677886777e-05
-0.032127621938018075,0.0007453714111762522,7.999990688015945e-05
-0.032782807350980596,0.0007291438038540026,8.036853568391701e-05
-0.033427896092453516,0.000712591127993144,8.072896941687879e-05
-0.034062540723410445,0.0006957185187891781,8.108104682857438e-05
-0.034686413214947344,0.0006785312803045886,8.142460927834781e-05
-0.03529920225291831,0.0006610348764376221,8.175950081753336e-05
-0.03590061052579041,0.000643234923242945,8.20855682674535e-05
-0.03649035205971977,0.0006251371825965674,8.240266129391339e-05
-0.037068149660690816,0.0006067475571664648,8.271063247885415e-05
-0.03763373251296416,0.0005880720866230511,8.300933738980153e-05
-0.03818683397346221,0.0005691169450014445,8.329863464770765e-05
-0.03872718959952817,0.000549888439108197,8.357838599373507e-05
-0.03925453544998362,0.000530393007845819,8.384845635547357e-05
-0.03976860669995005,0.0005106372223083356,8.410871391301211e-05
-0.040269136606317535,0.0004906277864817687,8.435903016520964e-05
-0.04075585585438237,0.00047037153836659374,8.459927999642173e-05
-0.04122849230577412,0.0004498754513265546,8.482934174384501e-05
-0.041686771149300667,0.0004291466354627859,8.504909726554235e-05
-0.04213041543014425,0.00040819233881792466,8.525843200911253e-05
-0.04255914690644706,0.0003870199482337768,8.545723508087545e-05
-0.04297268716428829,0.00036563698971609296,8.564539931536292e-05
-0.043370758913931155,0.0003440511281965381,8.582282134484108e-05
-0.04375308738958009,0.00032227016662066024,8.598940166854538e-05
-0.044119401780509764,0.0003003020443281378,8.614504472128258e-05
-0.044469436632975465,0.0002781548347247665,8.628965894104581e-05
-0.04480293317675781,0.0002558367422723332,8.642315683529509e-05
-0.04511964054470116,0.00023335609884196843,8.654545504557366e-05
-0.045419316867593026,0.00021072135948889487,8.665647441015637e-05
-0.045701730239421104,0.00018794109771214134,8.675614002445664e-05
-0.04596665955676193,0.0001650240002630956,8.684438129895045e-05
-0.046213895238765464,0.00014197886156421373,8.692113201440728e-05
-0.04644323983169697,0.00011881457779659813,8.698633037424747e-05
-0.04665450849774597,9.554014071423739e-05,8.703991905387518e-05
-0.04684752938753447,7.216463124291728e-05,8.708184524686446e-05
-0.04702214390161485,4.869721292062995e-05,8.711206070790535e-05
-0.04717820685288686,2.5147125232004527e-05,8.713052179244351e-05
-0.04731558654238545,1.5236768831864493e-06,8.71371894929723e-05
-0.047434164757063,-2.2163760941675665e-05,8.713202947195768e-05
-0.047533836697327414,-4.590576130527327e-05,8.711501209139594e-05
-0.04761451084683646,-6.969284819131425e-05,8.70861124390218e-05
-0.047676108803418354,-9.351550310387795e-05,8.7045310351198e-05
-0.04771856509243472,-0.00011736417157784122,8.699259043252757e-05
-0.047741826980739005,-0.00014122926959613465,8.692794207223408e-05
-0.047745854303859935,-0.0001651011899172844,8.685135945735573e-05
-0.04773061931338692,-0.0001889703083215961,8.6762841582796e-05
-0.047696106542319795,-0.00021282698978552277,8.666239225826922e-05
-0.04764231267319338,-0.00023666159458940106,8.655002011217549e-05
-0.047569246387608524,-0.00026046448435460153,8.642573859243949e-05
-0.04747692818562661,-0.0002842260279979103,8.628956596435135e-05
-0.04736539018281502,-0.0003079366075900207,8.614152530545437e-05
-0.04723467590815659,-0.0003315866241127636,8.598164449752867e-05
-0.04708484013179634,-0.00035516650312275187,8.58099562157198e-05
-0.046915948747629575,-0.00037866670034260834,8.562649791485346e-05
-0.046728078721311996,-0.0004020777072098437,8.543131181296534e-05
-0.046521318093151236,-0.0004253900564134595,8.522444487205952e-05
-0.04629576600785193,-0.0004485943274387103,8.500594877609647e-05
-0.04605153273633073,-0.00047168115212475593,8.47758799062056e-05
-0.045788739658434975,-0.0004946412202234473,8.453429931311855e-05
-0.04550751918822463,-0.0005174652849351122,8.42812726868289e-05
-0.04520801464491158,-0.0005401441683933962,8.401687032349677e-05
-0.04489038009623939,-0.000562668767078684,8.374116708962875e-05
-0.044554780217367085,-0.0005850300571570857,8.34542423835698e-05
-0.04420139021157596,-0.0006072190997643214,8.315618009433945e-05
-0.04383039582953083,-0.0006292270462745981,8.284706855782973e-05
-0.04344199350651478,-0.0006510451436086095,8.252700051035893e-05
-0.0430363906212381,-0.0006726647396405477,8.219607303954664e-05
-0.04261380587211287,-0.0006940772887638855,8.185438753244554e-05
-0.04217446976321643,-0.0007152743576727178,8.150204962083639e-05
-0.04171862518329645,-0.000736247631409346,8.113916912356587e-05
-0.04124652804657139,-0.000756988919716813,8.076585998578433e-05
-0.04075844795332925,-0.0007774901637167882,8.038224021492593e-05
-0.04025466882888327,-0.0007977434429123413,7.998843181326865e-05
-0.039735489507486614,-0.0008177409824964338,7.958456070691646e-05
-0.03920122423418835,-0.0008374751609318525,7.917075667105939e-05
-0.038652203058842045,-0.0008569385177551102,7.874715325138765e-05
-0.038088772095783395,-0.0008761237615437666,7.831388768156293e-05
-0.03751129362278668,-0.0008950237779734091,7.787110079668364e-05
-0.03692014599348851,-0.0009136316378774779,7.741893694272091e-05
-0.036315723339327526,-0.0009319406052106818,7.695754388194888e-05
-0.03569843504273641,-0.0009499441448061978,7.648707269444466e-05
