frame_number,force
0,544.6883800046697
1,544.6921018446228
2,544.695693685057
3,544.699026911046
4,544.7019756539058
5,544.7044181076071
6,544.7062377792321
7,544.7073246554268
8,544.7075762703336
9,544.7068986640868
10,544.7052072239177
11,544.7024274022939
12,544.6984953086213
13,544.6933581728399
14,544.6869746804981
15,544.6793151795368
16,544.6703617593739
17,544.6601082034663
18,544.648559817739
19,544.6357331391198
20,544.6216555305332
21,544.6063646706743
22,544.5899079485723
23,544.5723417744199
24,544.5537308192545
25,544.5341471965517
26,544.513669598548
27,544.4923823994918
28,544.4703747375954
29,544.4477395874626
30,544.4245728347572
31,544.4009723640648
32,544.3770371689538
33,544.3528664906153
34,544.328558989122
35,544.3042119501355
36,544.2799205299834
37,544.2557770428872
38,544.2318702949215
39,544.2082849695887
40,544.1851010698252
41,544.1623934212092
42,544.1402312410078
43,544.1186777769082
44,544.0977900174511
45,544.0776184736418
46,544.05820702866
47,544.0395928505415
48,544.0218063613737
49,544.0048712561249
50,543.9888045648601
51,543.9736167534948
52,543.9593118596857
53,543.9458876613053
54,543.9333358749178
55,543.9216423808349
56,543.9107874699852
57,543.9007461065302
58,543.891488199699
59,543.8829788794413
60,543.8751787730746
61,543.8680442829506
62,543.8615278670942
63,543.8555783254683
64,543.850141094405
65,543.8451585513143
66,543.8405703314429
67,543.8363136582207
68,543.832323688082
69,543.8285338692092
70,543.8248763117036
71,543.8212821651123
72,543.8176819989575
73,543.8140061832397
74,543.810185267899
75,543.8061503615717
76,543.8018335100252
77,543.7971680736107
78,543.7920891014465
79,543.7865336984123
80,543.7804413800009
81,543.7737544101246
82,543.7664181180188
83,543.7583811916958
84,543.7495959461417
85,543.7400185643228
86,543.7296093084028
87,543.7183326977439
88,543.706157649634
89,543.6930575788717
90,543.6790104539549
91,543.6639988104448
92,543.6480097250227
93,543.6310347556528
94,543.6130698535773
95,543.5941152518459
96,543.5741753337267
97,543.5532584836415
98,543.5313769232712
99,543.5085465354384
100,543.4847866777671
101,543.4601199872578
102,543.4345721764896
103,543.4081718223377
104,543.3809501482236
105,543.3529408003266
106,543.3241796171375
107,543.2947043912077
108,543.2645546227837
109,543.2337712672833
110,543.2023964814379
111,543.1704733753251
112,543.1380457789636
113,543.1051580329016
114,543.0718548123186
115,543.0381809930044
116,543.0041815649541
117,542.9699015961173
118,542.9353862463155
119,542.9006808297725
120,542.8658309232401
121,542.830882514608
122,542.7958821843475
123,542.7608773099014
124,542.7259162817268
125,542.6910487193184
126,542.6563256761731
127,542.6217998240478
128,542.5875256084505
129,542.5535593686823
130,542.5199594169234
131,542.4867860719596
132,542.4541016442076
133,542.4219703697919
134,542.3904582927158
135,542.359633095499
136,542.3295638795137
137,542.300320896502
138,542.2719752329795
139,542.244598450084
140,542.2182621828018
141,542.1930377038092
142,542.1689954581241
143,542.1462045755804
144,542.1247323689918
145,542.1046438265355
146,542.0860011068264
147,542.0688630440269
148,542.053284668631
149,542.039316748359
150,542.0270053535273
151,542.0163914517686
152,542.0075105370407
153,542.0003922971644
154,541.9950603233348
155,541.991531864668
156,541.9898176304322
157,541.9899216413719
158,541.9918411296628
159,541.995566485751
160,542.0010812505019
161,542.0083621524176
162,542.0173791911204
163,542.0280957687044
164,542.0404688693825
165,542.0544492855669
166,542.0699818862859
167,542.0870059227494
168,542.105455366368
169,542.1252592764142
170,542.1463421971436
171,542.1686245864801
172,542.1920232792321
173,542.2164519867529
174,542.2418218324865
175,542.2680419201527
176,542.2950199296107
177,542.3226627351069
178,542.3508770410062
179,542.3795700301171
180,542.4086500186454
181,542.4380271099923
182,542.4676138381582
183,542.4973257915498
184,542.5270822096091
185,542.5568065470079
186,542.5864270021585
187,542.6158770080301
188,542.6450956835672
189,542.6740282433145
190,542.7026263614242
191,542.7308484848284
192,542.7586600897286
193,542.7860338760319
194,542.8129498959357
195,542.8393956151283
196,542.8653659071338
197,542.8908629823648
198,542.9158962533537
199,542.9404821370771
200,542.9646437949709
201,542.9884108114986
202,543.0118188129951
203,543.034909029881
204,543.0577278068539
205,543.0803260668748
206,543.1027587355543
207,543.1250841332492
208,543.1473633431186
209,543.1696595642462
210,543.1920374589616
211,543.2145625023957
212,543.237300340629
213,543.2603161623213
214,543.2836740876644
215,543.3074365774997
216,543.3316638640168
217,543.3564134027336
218,543.3817393444243
219,543.4076920263178
220,543.4343174842852
221,543.4616569907195
222,543.4897466248765
223,543.5186168829251
224,543.5482923343034
225,543.5787913300222
226,543.6101257676286
227,543.6423009165306
228,543.6753153062168
229,543.7091606786113
230,543.7438220046148
231,543.7792775641852
232,543.8154990893529
233,543.8524519698815
234,543.8900955210838
235,543.9283833121904
236,543.967263551993
237,544.006679526864
238,544.0465700849865
239,544.0868701597209
240,544.1275113244744
241,544.1684223714032
242,544.2095299067614
243,544.250758956492
244,544.2920335763048
245,544.3332774606414
246,544.3744145445997
247,544.4153695925396
248,544.4560687669145
249,544.4964401707207
250,544.536414356676
251,544.575924795948
252,544.6149082990354
253,544.653305381387
254,544.6910605667983
255,544.7281226229059
256,544.7644447252561
257,544.7999845490064
258,544.8347042896429
259,544.8685706160672
260,544.9015545613912
261,544.933631358772
262,544.9647802307021
263,544.9949841397183
264,545.0242295072347
265,545.0525059067032
266,545.0798057383157
267,545.1061238941783
268,545.1314574239586
269,545.1558052107823
270,545.1791676658884
271,545.201546448709
272,545.222944216932
273,545.2433644089459
274,545.2628110590335
275,545.2812886439583
276,545.2988019583602
277,545.3153560158225
278,545.3309559727434
279,545.345607073064
280,545.359314612869
281,545.3720839242053
282,545.3839203770661
283,545.3948293977655
284,545.4048165012371
285,545.4138873341486
286,545.4220477253441
287,545.4293037405725
288,545.4356617401019
289,545.4411284401452
290,545.4457109808458
291,545.4494170039268
292,545.4522547421049
293,545.4542331208237
294,545.4553618717647
295,545.4556516574352
296,545.4551142064751
297,545.4537624591804
298,545.4516107217031
299,545.448674825901
300,545.4449722903471
301,545.4405224767052
302,545.4353467349019
303,545.4294685307186
304,545.4229135504638
305,545.4157097785192
306,545.4078875441166
307,545.399479533764
308,545.3905207658537
309,545.3810485246811
310,545.3711022522796
311,545.3607233978153
312,545.3499552256118
313,545.3388425841179
314,545.3274316388698
315,545.3157695722834
316,545.3039042521794
317,545.2918838702285
318,545.2797565517575
319,545.2675699395828
320,545.255370756206
321,545.2432043503022
322,545.2311142345372
323,545.219141622042
324,545.2073249682694
325,545.1956995237882
326,545.1842969025071
327,545.1731446695662
328,545.1622659538796
329,545.1516790916153
330,545.1413973080822
331,545.131428446066
332,545.1217747485069
333,545.112432702392
334,545.1033929487378
335,545.0946402610447
336,545.0861535926826
337,545.0779061928024
338,545.0698657899167
339,545.0619948414835
340,545.0542508465928
341,545.0465867176009
342,545.0389512055744
343,545.0312893738541
344,545.0235431139527
345,545.0156516981051
346,545.0075523626244
347,544.9991809155307
348,544.99047236119
349,544.9813615347229
350,544.9717837398207
351,544.9616753847074
352,544.9509746119043
353,544.9396219183292
354,544.9275607632947
355,544.9147381629574
356,544.901105270247
357,544.8866179389041
358,544.8712372689138
359,544.8549301286514
360,544.8376696471719
361,544.8194356688915
362,544.8002151625952
363,544.7800025769975
364,544.7588001355614
365,544.736618063507
366,544.713474739964
367,544.6893967686152
368,544.6644189612738
369,544.6385842303827
370,544.6119433879613
371,544.5845548499294
372,544.5564842462696
373,544.5278039394893
374,544.4985924562129
375,544.4689338390255
376,544.4389169274823
377,544.4086345784953
378,544.3781828373614
379,544.3476600716496
380,544.3171660807477
381,544.2868011937564
382,544.2566653675037
383,544.2268572949877
384,544.1974735330373
385,544.1686076568596
386,544.1403494484913
387,544.1127841256563
388,544.0859916168822
389,544.0600458881115
390,544.035014325931
391,544.0109571829428
392,543.987927091
393,543.9659686473537
394,543.9451180774557
395,543.9254029772055
396,543.9068421376022
397,543.8894454558357
398,543.8732139375809
399,543.8581397945243
400,543.8442066391159
401,543.8313897761674
402,543.8196565887179
403,543.8089670134106
404,543.7992740985158
405,543.7905246361502
406,543.7826598593125
407,543.7756161936095
408,543.7693260526913
409,543.7637186656823
410,543.7587209244512
411,543.7542582382164
412,543.7502553827638
413,543.7466373317841
414,543.7433300585475
415,543.7402612971946
416,543.7373612544081
417,543.734563264171
418,543.7318043805905
419,543.7290259063774
420,543.7261738573419
421,543.7231993656229
422,543.7200590258046
423,543.7167151884431
424,543.7131362047567
425,543.709296624471
426,543.7051773467755
427,543.7007657226817
428,543.6960556058428
429,543.6910473480638
430,543.6857477355795
431,543.6801698627646
432,543.6743329408497
433,543.6682620401903
434,543.6619877657931
435,543.6555458672317
436,543.6489767854324
437,543.6423251399254
438,543.6356391612557
439,543.6289700746198
440,543.6223714422954
441,543.6158984735928
442,543.6096073116663
443,543.603554307013
444,543.5977952885943
445,543.5923848451266
446,543.5873756300915
447,543.5828177035547
448,543.5787579222821
449,543.5752393878417
450,543.5723009608283
451,543.5699768476695
452,543.5682962642074
453,543.5672831777913
454,543.5669561279968
455,543.567328125596
456,543.5684066292835
457,543.5701935990602
458,543.5726856239047
459,543.5758741197905
460,543.5797455925166
461,543.5842819582085
462,543.5894609127489
463,543.595256340163
464,543.6016387494674
465,543.6085757296162
466,543.6160324126133
467,543.6239719354692
468,543.6323558926663
469,543.6411447722884
470,543.6502983708071
471,543.65977618355
472,543.6695377701384
473,543.6795430966076
474,543.6897528578965
475,543.700128785136
476,543.7106339412287
477,543.7212330058052
478,543.731892547671
479,543.7425812803762
480,543.7532702952061
481,543.7639332658225
482,543.774546619646
483,543.7850896721261
484,543.7955447205588
485,543.8058970940622
486,543.8161351563032
487,543.8262502580144
488,543.8362366371831
489,543.8460912659808
490,543.8558136452617
491,543.8654055498173
492,543.8748707298503
493,543.8842145754471
494,543.8934437511459
495,543.9025658077088
496,543.9115887783145
497,543.9205207664136
498,543.9293695324218
499,543.9381420864888
500,543.946844294676
501,543.9554805055574
502,543.964053203445
503,543.9725626935956
504,543.9810068243324
505,543.9893807509798
506,543.9976767464813
507,544.0058840631868
508,544.0139888494131
509,544.0219741232789
510,544.0298198052931
511,544.0375028101807
512,544.0449971972264
513,544.0522743768588
514,544.0593033695551
515,544.0660511118457
516,544.072482803499
517,544.0785622894815
518,544.0842524693464
519,544.0895157251899
520,544.0943143580398
521,544.0986110224902
522,544.1023691506099
523,544.1055533577887
524,544.1081298246053
525,544.1100666501324
526,544.1113341737451
527,544.1119052644038
528,544.1117555780271
529,544.1108637846095
530,544.1092117672853
531,544.1067847958809
532,544.103571677677
533,544.0995648880537
534,544.0947606832749
535,544.089159196823
536,544.0827645197733
537,544.0755847652864
538,544.0676321176492
539,544.0589228670162
540,544.0494774314352
541,544.0393203676142
542,544.0284803715339
543,544.016990269854
544,544.0048870030045
545,543.99221160009
546,543.9790091437883
547,543.965328720836
548,543.9512233515786
549,543.9367498910669
550,543.9219688943035
551,543.90694443918
552,543.8917439020281
553,543.8764376823103
554,543.8610988749562
555,543.8458028912127
556,543.830627030989
557,543.8156500107192
558,543.8009514508097
559,543.7866113268433
560,543.7727093899205
561,543.7593245637662
562,543.7465343282776
563,543.7344140997192
564,543.7230366164869
565,543.7124713372008
566,543.7027838562263
567,543.6940353412667
568,543.6862819983015
569,543.6795745705072
570,543.6739578795082
571,543.6694704188264
572,543.6661440100131
573,543.6640035312321
574,543.6630667261821
575,543.6633440989012
576,543.6648388977272
577,543.6675471893832
578,543.6714580214727
579,543.6765536688226
580,543.6828099567767
581,543.6901966533073
582,543.6986779218595
583,543.708212827776
584,543.7187558919272
585,543.7302576848352
586,543.742665453211
587,543.7559237693334
588,543.7699751927827
589,543.7847609336997
590,543.8002215068727
591,543.8162973665903
592,543.8329295133393
593,543.850060064877
594,543.867632785662
595,543.8855935697069
596,543.9038908722966
597,543.9224760858554
598,543.9413038552841
599,543.960332329186
600,543.9795233455088
601,543.9988425522298
602,544.0182594649733
603,544.0377474641681
604,544.0572837350095
605,544.0768491540665
606,544.096428126735
607,544.116008380133
608,544.1355807167495
609,544.155138735195
610,544.1746785255887
611,544.1941983483002
612,544.213698305779
613,544.2331800174272
614,544.2526463063336
615,544.2721009044134
616,544.2915481801701
617,544.3109928916035
618,544.3304399656228
619,544.3498943042373
620,544.3693606166044
621,544.3888432750468
622,544.4083461929338
623,544.4278727229687
624,544.4474255754564
625,544.4670067566618
626,544.4866175269658
627,544.5062583775275
628,544.5259290232734
629,544.545628409282
630,544.5653547266795
631,544.5851054329681
632,544.6048772704805
633,544.6246662755768
634,544.644467770618
635,544.6642763310713
636,544.6840857214115
637,544.7038887955908
638,544.7236773607283
639,544.7434420061097
640,544.7631719028413
641,544.7828545818247
642,544.8024756991352
643,544.8220187990303
644,544.8414650861254
645,544.8607932194153
646,544.8799791407678
647,544.8989959486918
648,544.9178138251948
649,544.9364000205006
650,544.9547188977529
651,544.9727320375896
652,544.9903984010463
653,545.0076745488341
654,545.0245149147719
655,545.0408721300577
656,545.0566973934609
657,545.0719408814282
658,545.0865521918133
659,545.1004808149642
660,545.1136766257637
661,545.1260903900155
662,545.1376742785332
663,545.148382382593
664,545.1581712248598
665,545.1670002602322
666,545.1748323613432
667,545.1816342838845
668,545.1873771074283
669,545.1920366476298
670,545.1955938356896
671,545.1980350614331
672,545.1993524776572
673,545.199544264803
674,545.198614855398
675,545.1965751168159
676,545.1934424897264
677,545.1892410794669
678,545.1840016989339
679,545.1777618634969
680,545.1705657394855
681,545.1624640477266
682,545.1535139234957
683,545.1437787349782
684,545.1333278636561
685,545.1222364510356
686,545.1105851161761
687,545.0984596474967
688,545.0859506709238
689,545.0731532952386
690,545.0601667345851
691,545.0470939071406
692,545.034041007925
693,545.0211170532189
694,545.0084333946455
695,544.9961032025116
696,544.9842409199174
697,544.9729616909405
698,544.9623807678
699,544.9526129036769
700,544.9437717400859
701,544.9359691999064
702,544.9293148982447
703,544.923915582681
704,544.9198746127141
705,544.9172914863406
706,544.9162614202597
707,544.9168749891619
708,544.9192178285746
709,544.9233704045527
710,544.9294078522206
711,544.9373998839978
712,544.9474107671707
713,544.9594993691742
714,544.9737192677062
715,544.9901189218887
716,545.0087418999651
717,545.0296271579911
718,545.0528093624386
719,545.0783192479167
720,545.106183999786
721,545.1364276506788
722,545.16907147996
723,545.2041344057964
724,545.2416333605164
725,545.2815836414572
726,545.3239992318393
727,545.368893089343
728,545.4162774034112
729,545.4661638250393
730,545.5185636741763
731,545.573488129602
732,545.6309484051357
733,545.6909559153033
734,545.7535224330289
735,545.8186602405559
736,545.8863822725938
737,545.9567022490055
738,546.0296347944898
739,546.105195544383
740,546.1834012376856
741,546.2642697997588
742,546.347820417619
743,546.4340736107044
744,546.5230512998695
745,546.6147768771616
746,546.7092752781068
747,546.8065730565748
748,546.9066984604515
749,547.0096815051272
750,547.1155540412778
751,547.224349812852
752,547.3361044999743
753,547.4508557398318
754,547.5686431172899
755,547.6895081164859
756,547.8134940250227
757,547.9406457835576
758,548.0710097754475
759,548.204633553605
760,548.3415655046599
761,548.4818544534777
762,548.6255492134624
763,548.7726980895031
764,548.9233483411916
765,549.0775456148355
766,549.2353333542517
767,549.3967522017062
768,549.5618394007972
769,549.7306282127904
770,549.9031473577969
771,550.0794204924345
772,550.2594657356116
773,550.4432952532413
774,550.6309149109184
775,550.8223240009798
776,551.0175150471002
777,551.2164736861178
778,551.4191786239651
779,551.6256016611965
780,551.8357077838631
781,552.0494553165424
782,552.2667961348537
783,552.4876759341419
784,552.7120345496885
785,552.9398063227092
786,553.1709205057717
787,553.4053017007917
788,553.6428703223306
789,553.8835430786625
790,554.1272334627148
791,554.3738522441735
792,554.6233079529286
793,554.8755073433337
794,555.1303558289873
795,555.387757878902
796,555.6476173675771
797,555.9098378733875
798,556.1743229218032
799,556.440976172129
800,556.7097015484095
801,556.9804033167932
802,557.2529861130897
803,557.5273549253451
804,557.8034150366303
805,558.0810719330805
806,558.36023118212
807,558.6407982859561
808,558.9226785155419
809,559.2057767301327
810,559.4899971871804
811,559.775243346423
812,560.0614176707306
813,560.3484214251586
814,560.6361544753734
815,560.9245150871493
816,561.2133997295318
817,561.5027028852727
818,561.7923168731344
819,562.082131687276
820,562.3720348588233
821,562.6619113438536
822,562.9516434406036
823,563.2411107372274
824,563.5301900905908
825,563.8187556365798
826,564.1066788327398
827,564.3938285341216
828,564.6800711027782
829,564.9652705506443
830,565.2492887147786
831,565.5319854633749
832,565.8132189306947
833,566.0928457793543
834,566.3707214892169
835,566.6467006732953
836,566.9206374220629
837,567.1923856777624
838,567.46179963955
839,567.7287341991365
840,567.9930454055971
841,568.2545909572583
842,568.5132307179315
843,568.7688272544976
844,569.0212463933498
845,569.2703577941805
846,569.5160355401234
847,569.7581587425981
848,569.9966121575069
849,570.2312868075813
850,570.4620806046381
851,570.6888989653897
852,570.9116554144748
853,571.1302721680328
854,571.3446806908157
855,571.5548222197873
856,571.7606482471431
857,571.9621209557175
858,572.1592136003065
859,572.3519108294331
860,572.54020894273
861,572.7241160790196
862,572.9036523296917
863,573.0788497717218
864,573.2497524151523
865,573.4164160613975
866,573.5789080710763
867,573.7373070424424
868,573.8917024032321
869,574.0421939197774
870,574.1888911276251
871,574.3319126877946
872,574.4713856726144
873,574.6074447853833
874,574.7402315191575
875,574.8698932615713
876,574.9965823545011
877,575.1204551192284
878,575.2416708590969
879,575.3603908522743
880,575.4767773471524
881,575.590992572231
882,575.7031977711173
883,575.8135522718659
884,575.9222125987176
885,576.0293316333023
886,576.135057831108
887,576.2395344972697
888,576.3428991240105
889,576.4452827912118
890,576.5468096318947
891,576.6475963653928
892,576.7477519015231
893,576.8473770181319
894,576.9465641119833
895,577.0453970201334
896,577.143950906671
897,577.2422922082086
898,577.3404786305546
899,577.4385591885282
900,577.5365742807829
901,577.6345557915749
902,577.7325272118178
903,577.8305037729467
904,577.9284925891608
905,578.0264928059655
906,578.1244957549178
907,578.2224851158549
908,578.3204370889634
909,578.4183205801913
910,578.5160974048864
911,578.6137225157582
912,578.7111442614395
913,578.8083046805086
914,578.9051398333739
915,579.001580172247
916,579.0975509485012
917,579.1929726569105
