frame_number,force
0,722.6069400071716
1,722.5017209862133
2,722.3965919665366
3,722.2916422994919
4,722.1869600499147
5,722.0826313861554
6,721.9787400093176
7,721.8753666329653
8,721.7725885227622
9,721.6704791032647
10,721.569107636446
11,721.468538973845
12,721.3688333818878
13,721.2700464379233
14,721.1722289929385
15,721.0754271961243
16,720.9796825764616
17,720.88503217657
18,720.791508733481
19,720.6991408999394
20,720.6079534990607
21,720.5179678051677
22,720.4292018443931
23,720.3416707098605
24,720.255386887442
25,720.1703605888166
26,720.0866000888403
27,720.0041120642492
28,719.9229019303948
29,719.8429741719671
30,719.7643326628421
31,719.686980969798
32,719.6109226350255
33,719.5361614329912
34,719.4627015980685
35,719.3905480202679
36,719.3197064073588
37,719.2501834126979
38,719.1819867289164
39,719.1151251479621
40,719.0496085879009
41,718.9854480865234
42,718.9226557611897
43,718.8612447337332
44,718.801229019344
45,718.7426233795974
46,718.6854431416137
47,718.6297039867884
48,718.5754217133891
49,718.522611978311
50,718.4712900249795
51,718.4214704063294
52,718.3731667128279
53,718.3263913149342
54,718.2811551273738
55,718.2374673998548
56,718.1953355360354
57,718.1547649400529
58,718.1157588878547
59,718.0783184190733
60,718.042442244625
61,718.008126665794
62,717.9753655019592
63,717.9441500257002
64,717.9144689054518
65,717.886308157125
66,717.8596511070523
67,717.8344783690767
68,717.8107678385253
69,717.788494705631
70,717.767631491165
71,717.7481481073957
72,717.7300119470432
73,717.7131880009431
74,717.6976390019721
75,717.6833255894985
76,717.6702064863326
77,717.6582386795535
78,717.6473775977562
79,717.6375772797232
80,717.6287905323107
81,717.6209690774489
82,717.614063689221
83,717.6080243223763
84,717.6028002336448
85,717.5983400967042
86,717.5945921106589
87,717.5915041011262
88,717.5890236131423
89,717.5870979958534
90,717.5856744794607
91,717.5847002445825
92,717.5841224831621
93,717.5838884487405
94,717.5839454928998
95,717.5842410845911
96,717.5847228099439
97,717.5853383515023
98,717.5860354468668
99,717.5867618271152
100,717.5874651355693
101,717.588092828207
102,717.5885920583185
103,717.5889095490336
104,717.5889914575756
105,717.5887832349625
106,717.5882294849443
107,717.5872738261378
108,717.5858587610729
109,717.5839255550208
110,717.5814141264151
111,717.5782629499832
112,717.57440897374
113,717.5697875518478
114,717.5643323966565
115,717.5579755541927
116,717.5506474073045
117,717.5422767097377
118,717.5327906535009
119,717.522114971692
120,717.5101740794942
121,717.4968912566882
122,717.4821888751932
123,717.4659886747746
124,717.4482120898267
125,717.4287806306662
126,717.407616323467
127,717.3846422122971
128,717.3597829237093
129,717.3329652895434
130,717.3041190185709
131,717.2731774035416
132,717.2400780474621
133,717.204763591549
134,717.167182427182
135,717.127289375323
136,717.0850463192595
137,717.0404227798103
138,716.9933964254068
139,716.9439535121985
140,716.8920892517689
141,716.8378081062991
142,716.7811240126113
143,716.722060537104
144,716.660650963593
145,716.5969383162409
146,716.5309753202766
147,716.4628243035868
148,716.3925570421089
149,716.3202545512848
150,716.2460068249201
151,716.1699125220711
152,716.0920786025766
153,716.012619912736
154,715.931658723806
155,715.8493242266496
156,715.7657519858586
157,715.6810833564773
158,715.595464866516
159,715.5090475687638
160,715.4219863658766
161,715.3344393133052
162,715.2465669052889
163,715.1585313494966
164,715.0704958356393
165,714.9826238025836
166,714.8950782076271
167,714.8080208010555
168,714.7216114090361
169,714.6360072285935
170,714.5513621398969
171,714.4678260425763
172,714.3855442230171
173,714.30465675834
174,714.2252979611307
175,714.1475958680736
176,714.071671775693
177,713.9976398269539
178,713.92560665301
179,713.8556710744377
180,713.78792386563
181,713.722447584965
182,713.6593164726022
183,713.5985964177381
184,713.540344997684
185,713.4846115914313
186,713.4314375696226
187,713.3808565607462
188,713.3328947906496
189,713.2875714901757
190,713.24489936433
191,713.2048851153204
192,713.1675300103551
193,713.132830483162
194,713.1007787563975
195,713.0713634709538
196,713.0445703078581
197,713.0203825891394
198,712.9987818456162
199,712.9797483413354
200,712.9632615457464
201,712.9493005459764
202,712.9378443936388
203,712.9288723836042
204,712.9223642654129
205,712.9183003906973
206,712.9166618018689
207,712.9174302686828
208,712.9205882805729
209,712.9261190037956
210,712.9340062128201
211,712.9442342044956
212,712.9567877014395
213,712.9716517485834
214,712.9888116045942
215,713.0082526282623
216,713.029960158912
217,713.0539193893655
218,713.0801152301508
219,713.1085321646824
220,713.1391540967335
221,713.1719641925263
222,713.2069447194142
223,713.2440768817968
224,713.2833406537117
225,713.3247146073608
226,713.3681757379145
227,713.4136992866431
228,713.4612585654347
229,713.5108247854814
230,713.5623668921737
231,713.6158514081042
232,713.6712422864731
233,713.7285007774622
234,713.7875853100415
235,713.8484513912888
236,713.9110515246404
237,713.9753351475988
238,714.0412485884511
239,714.10873504066
240,714.1777345529586
241,714.2481840331471
242,714.3200172644034
243,714.3931649344056
244,714.4675546790721
245,714.5431111436293
246,714.6197560640958
247,714.6974083727031
248,714.7759843314772
249,714.855397698701
250,714.9355599328032
251,715.0163804373177
252,715.097766848924
253,715.1796253681898
254,715.2618611298453
255,715.344378606905
256,715.4270820412456
257,715.5098758924647
258,715.5926652967728
259,715.6753565283179
260,715.7578574569862
261,715.8400779991989
262,715.9219305604788
263,716.0033304694957
264,716.0841964027876
265,716.1644507980578
266,716.244020252711
267,716.3228359036405
268,716.4008337843937
269,716.4779551567793
270,716.5541468156902
271,716.629361367788
272,716.703557485433
273,716.7767001360208
274,716.8487607842168
275,716.9197175617084
276,716.9895553969079
277,717.0582660959134
278,717.1258483663856
279,717.1923077780518
280,717.2576566567486
281,717.3219139121666
282,717.3851048017278
283,717.4472606339341
284,717.5084184144177
285,717.5686204376912
286,717.6279138280485
287,717.6863500344721
288,717.7439842861796
289,717.8008750166633
290,717.857083264162
291,717.9126720557585
292,717.9677057813616
293,718.0222495628409
294,718.0763686222779
295,718.1301276519155
296,718.1835901877022
297,718.2368179888445
298,718.2898704273515
299,718.3428038936396
300,718.3956712262318
301,718.4485211748103
302,718.501397906024
303,718.5543405605947
304,718.6073828687906
305,718.6605528294282
306,718.7138724552888
307,718.7673575855208
308,718.821017763834
309,718.8748561806322
310,718.9288696778947
311,718.9830488170472
312,719.0373780107842
313,719.0918357186995
314,719.1463947041261
315,719.2010223471108
316,719.255681006809
317,719.310328425927
318,719.3649181698673
319,719.4194000933132
320,719.4737208267622
321,719.527824275354
322,719.5816521226111
323,719.6351443323023
324,719.6882396424049
325,719.7408760460863
326,719.7929912555096
327,719.8445231448756
328,719.8954101695476
329,719.9455917586098
330,719.995008678743
331,720.0436033677877
332,720.0913202368037
333,720.1381059399407
334,720.1839096119261
335,720.2286830734395
336,720.272381005127
337,720.3149610916865
338,720.3563841382809
339,720.3966141621711
340,720.4356184625597
341,720.4733676712782
342,720.5098357864601
343,720.545000190989
344,720.5788416573386
345,720.6113443402484
346,720.6424957582904
347,720.6722867647502
348,720.7007115074359
349,720.7277673762218
350,720.7534549368065
351,720.7777778498287
352,720.8007427759719
353,720.8223592691573
354,720.8426396607551
355,720.8615989380077
356,720.8792546194716
357,720.8956266289266
358,720.9107371671066
359,720.9246105788184
360,720.9372732121618
361,720.948753266445
362,720.9590806259935
363,720.9682866787956
364,720.9764041215554
365,720.9834667549153
366,720.9895092733082
367,720.9945670532148
368,720.9986759421481
369,721.0018720489171
370,721.0041915341856
371,721.0056703997865
372,721.006344275929
373,721.0062482066307
374,721.0054164344892
375,721.0038821859853
376,721.0016774582256
377,720.9988328079296
378,720.9953771440338
379,720.9913375265254
380,720.9867389752354
381,720.98160429253
382,720.9759539032093
383,720.9698057139456
384,720.9631749934662
385,720.9560742736122
386,720.9485132710098
387,720.9404988297663
388,720.9320348867932
389,720.923122462039
390,720.9137596758878
391,720.9039417958535
392,720.8936613148232
393,720.8829080632715
394,720.8716693579719
395,720.8599301898995
396,720.8476734540131
397,720.8348802228139
398,720.8215300634859
399,720.8076013952552
400,720.7930718802857
401,720.7779188388631
402,720.762119678051
403,720.745652322209
404,720.7284956337894
405,720.7106298139439
406,720.6920367746915
407,720.6727004768198
408,720.6526072289922
409,720.631745943377
410,720.6101083426827
411,720.5876891139828
412,720.5644860061122
413,720.5404998690257
414,720.5157346351434
415,720.4901972445398
416,720.4638975177178
417,720.4368479812788
418,720.4090636527571
419,720.3805617912699
420,720.3513616206099
421,720.3214840311837
422,720.2909512670452
423,720.2597866044399
424,720.228014028628
425,720.1956579159958
426,720.1627427283639
427,720.1292927259102
428,720.0953317041676
429,720.0608827590797
430,720.0259680820625
431,719.9906087846598
432,719.9548247504033
433,719.9186345108433
434,719.8820551435218
435,719.8451021909264
436,719.8077896002077
437,719.770129683594
438,719.7321330995029
439,719.6938088546764
440,719.6551643282371
441,719.6162053191296
442,719.5769361186689
443,719.537359609652
444,719.4974773927598
445,719.4572899402001
446,719.4167967759071
447,719.3759966809029
448,719.3348879214188
449,719.2934684963527
450,719.2517364000155
451,719.2096898960023
452,719.1673277979904
453,719.1246497528474
454,719.0816565205766
455,719.0383502447002
456,718.9947347059002
457,718.9508155513445
458,718.9066004925236
459,718.8620994657784
460,718.8173247514782
461,718.7722910495958
462,718.7270155112666
463,718.6815177277695
464,718.6358196798548
465,718.5899456512602
466,718.543922110772
467,718.4977775673696
468,718.4515424025766
469,718.405248683059
470,718.358929955357
471,718.3126210242156
472,718.2663577165848
473,718.2201766346445
474,718.1741149025519
475,718.1282099126178
476,718.0824990770756
477,718.0370195915265
478,717.991808215553
479,717.9469010749415
480,717.9023334888361
481,717.858139824637
482,717.8143533838534
483,717.7710063228583
484,717.7281296127222
485,717.685753041464
486,717.643905259954
487,717.6026138696317
488,717.5619055469633
489,717.521806196975
490,717.4823411266701
491,717.4435352288779
492,717.4054131680653
493,717.3679995614004
494,717.3313191500927
495,717.2953969571429
496,717.2602584281346
497,717.2259295520972
498,717.1924369602282
499,717.1598080012106
500,717.1280707926379
501,717.0972542486618
502,717.0673880847302
503,717.0385028011515
504,717.0106296476711
505,716.9838005708191
506,716.9580481447529
507,716.933405485215
508,716.9099061452289
509,716.8875839902267
510,716.8664730499415
511,716.8466073451697
512,716.8280206890853
513,716.8107464641206
514,716.7948173759632
515,716.7802651864858
516,716.7671204282076
517,716.7554121041361
518,716.7451673776833
519,716.7364112570802
520,716.7291662775217
521,716.7234521831552
522,716.7192856108965
523,716.7166797788079
524,716.7156441826078
525,716.7161843042811
526,716.7183013369093
527,716.7219919297647
528,716.7272479573528
529,716.7340563153595
530,716.7423987452352
531,716.7522516873894
532,716.7635861612421
533,716.7763676695803
534,716.7905561250982
535,716.8061057983773
536,716.8229652884651
537,716.8410775190962
538,716.8603797648348
539,716.8808037117753
540,716.9022755571463
541,716.9247161515225
542,716.9480411865839
543,716.972161430461
544,716.9969830114263
545,717.0224077488465
546,717.0483335284529
547,717.0746547181068
548,717.1012626207095
549,717.1280459618223
550,717.1548914097594
551,717.1816841250507
552,717.2083083346729
553,717.2346479249145
554,717.2605870457882
555,717.286010720069
556,717.3108054511883
557,717.3348598254767
558,717.3580651048511
559,717.3803158062101
560,717.4015102644418
561,717.421551177375
562,717.4403461325624
563,717.4578081167742
564,717.4738560095456
565,717.4884150624113
566,717.5014173655438
567,717.5128023030209
568,717.522516996789
569,717.530516737623
570,717.5367653992062
571,717.5412358293617
572,717.5439102109507
573,717.5447803841572
574,717.5438481216884
575,717.5411253486178
576,717.5366342989673
577,717.530407601765
578,717.5224882904565
579,717.5129297310383
580,717.5017954658655
581,717.4891589719737
582,717.475103335141
583,717.4597208432415
584,717.4431125037565
585,717.4253874905095
586,717.4066625245212
587,717.3870611939207
588,717.3667132179572
589,717.3457536599852
590,717.3243220937561
591,717.3025617266286
592,717.280618482471
593,717.2586400462726
594,717.2367748724816
595,717.2151711606289
596,717.1939758047857
597,717.1733333267804
598,717.1533848058316
599,717.134266819106
600,717.1161104086918
601,717.099040090417
602,717.0831729186918
603,717.0686176193891
604,717.0554738001083
605,717.0438312446078
606,717.0337692965213
607,717.025356337057
608,717.0186493614888
609,717.0136936588931
610,717.0105225985304
611,717.0091575249904
612,717.0096077631495
613,717.0118707331692
614,717.0159321749255
615,717.021766480083
616,717.0293371282246
617,717.0385972209626
618,717.049490105236
619,717.0619500749746
620,717.0759031395975
621,717.0912678481768
622,717.1079561587325
623,717.1258743426226
624,717.1449239144744
625,717.165002578659
626,717.1860051835691
627,717.2078246745377
628,717.2303530353557
629,717.2534822076929
630,717.2771049779002
631,717.3011158216251
632,717.3254116978349
633,717.3498927847525
634,717.3744631508796
635,717.399031355044
636,717.4235109704741
637,717.4478210294086
638,717.4718863868678
639,717.4956380049064
640,717.5190131613576
641,717.5419555891332
642,717.5644155533552
643,717.5863498741691
644,717.6077219032874
645,717.6285014624556
646,717.6486647521748
647,717.6681942389592
648,717.6870785288801
649,717.7053122339535
650,717.7228958358762
651,717.7398355488331
652,717.7561431802862
653,717.7718359866476
654,717.7869365199074
655,717.8014724616705
656,717.8154764423765
657,717.8289858450775
658,717.8420425943186
659,717.8546929311618
660,717.8669871751191
661,717.878979472623
662,717.8907275301427
663,717.902292329151
664,717.9137378201702
665,717.9251305932919
666,717.9365395222218
667,717.948035378595
668,717.9596904139651
669,717.9715779085305
670,717.9837716876526
671,717.9963456092107
672,718.0093730268222
673,718.0229262353383
674,718.0370759049281
675,718.0518905084446
676,718.0674357449225
677,718.0837739613662
678,718.100963575769
679,718.1190585057653
680,718.1381076084315
681,718.1581541369371
682,718.1792352193513
683,718.2013813647789
684,718.2246160026373
685,718.2489550621145
686,718.2744066001106
687,718.3009704864742
688,718.3286381546105
689,718.3573924238804
690,718.3872073984443
691,718.4180484458041
692,718.4498722570704
693,718.4826269896704
694,718.5162524917498
695,718.5506806060007
696,718.5858355490112
697,718.6216343604798
698,718.6579874151188
699,718.6947989892815
700,718.7319678742844
701,718.7693880285726
702,718.8069492608561
703,718.8445379360884
704,718.8820376959325
705,718.9193301854896
706,718.9562957789624
707,718.9928142988081
708,719.028765725667
709,719.0640308992274
710,719.0984922121398
711,719.1320342994837
712,719.1645447252462
713,719.1959146652796
714,719.2260395837153
715,719.2548198974057
716,719.28216162126
717,719.3079769866036
718,719.3321850248061
719,719.3547121090166
720,719.3754924475915
721,719.3944685235988
722,719.4115914757
723,719.4268214166678
724,719.4401276866998
725,719.4514890396501
726,719.460893761458
727,719.4683397210531
728,719.4738343544802
729,719.4773945830234
730,719.4790466661397
731,719.4788259901349
732,719.4767767935413
733,719.4729518301212
734,719.467411970581
735,719.4602257445233
736,719.4514688248482
737,719.4412234577993
738,719.4295778432795
739,719.4166254717491
740,719.4024644255327
741,719.3871966534145
742,719.3709272279169
743,719.3537635947995
744,719.3358148242953
745,719.3171908734603
746,719.298001868672
747,719.2783574168815
748,719.2583659540816
749,719.2381341394847
750,719.2177663034212
751,719.197363955429
752,719.1770253565635
753,719.156845157104
754,719.1369140980377
755,719.1173187721903
756,719.0981414388783
757,719.0794598848953
758,719.0613473248109
759,719.0438723345885
760,719.0270988134093
761,719.0110859684963
762,718.9958883167452
763,718.9815556958706
764,718.9681332772714
765,718.9556615732021
766,718.9441764323576
767,718.933709020637
768,718.9242857869951
769,718.9159284169139
770,718.908653777464
771,718.9024738581444
772,718.8973957112806
773,718.8934213957386
774,718.890547928646
775,718.8887672513156
776,718.8880662167387
777,718.8884266061879
778,718.889825181404
779,718.8922337767767
780,718.8956194335672
781,718.8999445762723
782,718.9051672298597
783,718.911241275619
784,718.9181167424852
785,718.9257401296809
786,718.9340547554198
787,718.9430011256136
788,718.9525173165978
789,718.9625393668663
790,718.9730016741274
791,718.983837395109
792,718.9949788462933
793,719.0063579041264
794,719.017906403214
795,719.0295565307467
796,719.0412412151825
797,719.0528945073494
798,719.064451952833
799,719.0758509556367
800,719.0870311339728
801,719.0979346689098
802,719.1085066453887
803,719.1186953834259
804,719.128452755749
805,719.1377344868749
806,719.1465004278879
807,719.1547148011933
808,719.162346410484
809,719.1693688127863
810,719.1757604510458
811,719.1815047464954
812,719.1865901498703
813,719.1910101499577
814,719.1947632377578
815,719.1978528250745
816,719.2002871176314
817,719.2020789444172
818,719.2032455463531
819,719.203808328229
820,719.2037925783386
821,719.2032271604467
822,719.2021441822502
823,719.2005786431371
824,719.1985680623886
825,719.1961520881003
826,719.1933720876709
827,719.1902707226111
828,719.1868915128858
829,719.1832783980628
830,719.1794753035056
831,719.1755257194346
832,719.1714722990497
833,719.1673564794985
834,719.1632181270984
835,719.1590952068466
836,719.1550234765103
837,719.1510362071296
838,719.1471639335604
839,719.1434342398742
840,719.1398715845958
841,719.1364971698302
842,719.1333288566362
843,719.13038112709
844,719.1276650916856
845,719.1251885391631
846,719.1229560247963
847,719.1209689927242
848,719.1192259277454
849,719.1177225316252
850,719.1164519184381
851,719.1154048233442
852,719.114569819869
853,719.1139335418756
854,719.1134809071347
855,719.1131953393369
856,719.1130589850043
857,719.1130529216455
858,719.1131573538468
859,719.1133517946884
860,719.1136152308306
861,719.1139262707065
862,719.114263276394
863,719.1146044808519
864,719.1149280931395
865,719.1152123948549
866,719.1154358312648
867,719.1155771004637
868,719.115615243375
869,719.1155297365395
870,719.1153005884744
871,719.1149084388861
872,719.1143346582805
873,719.1135614439115
874,719.112571906903
875,719.1113501448201
876,719.1098812937453
877,719.1081515537717
878,719.1061481817304
879,719.1038594453582
880,719.1012745345154
881,719.098383427372
882,719.0951767118459
883,719.0916453641514
884,719.0877804870678
885,719.0835730111037
886,719.0790133627643
887,719.0740911056373
888,719.0687945617756
889,719.06311042265
890,719.0570233604877
891,719.0505156517103
892,719.0435668243475
893,719.0361533409647
894,719.0282483277432
895,719.0198213584607
896,719.0108382992015
897,719.0012612166295
898,718.9910483506907
899,718.9801541519122
900,718.9685293834159
901,718.9561212875644
902,718.9428738162659
903,718.9287279223624
904,718.9136219076354
905,718.8974918212026
906,718.8802719006345
907,718.8618950473306
908,718.8422933281042
909,718.8213984965113
910,718.7991425293151
911,718.7754581747866
912,718.7502795102719
913,718.7235425070019
914,718.6951856005604
915,718.6651502655578
916,718.6333815927977
917,718.59982886669
918,718.564446140193
