frame_number,force
0,731.4190600000505
1,731.7539218504477
2,732.0716574607284
3,732.3569792284005
4,732.5980214630496
5,732.7874625691986
6,732.9230640162077
7,733.0075964950831
8,733.0482060007781
9,733.0553381788188
10,733.0413838737934
11,733.0192278803521
12,733.0008805355466
13,732.9963539210415
14,733.0129046939843
15,733.054697110905
16,733.122859558663
17,733.2158522543533
18,733.3300538539661
19,733.4604906931677
20,733.6016333211322
21,733.7481587458432
22,733.8955563620775
23,734.0404775855006
24,734.1807932236193
25,734.315397618722
26,734.4438534169774
27,734.5659914369604
28,734.6815687809128
29,734.7900551597812
30,734.8905759298399
31,734.9820040762087
32,735.063168943905
33,735.1331375824714
34,735.1915247433042
35,735.2387908443817
36,735.2764766904418
37,735.307303487194
38,735.3350700354844
39,735.3643247805741
40,735.3998551722286
41,735.4460857064286
42,735.5064951761591
43,735.5831554315678
44,735.6764643805352
45,735.7851043888755
46,735.9062145076247
47,736.0357274007949
48,736.168796959439
49,736.3002438798162
50,736.424973654399
51,736.5383471219047
52,736.63648413552
53,736.716469633607
54,736.7764417997612
55,736.8155821755712
56,736.83406860105
57,736.8330582984653
58,736.8147311467545
59,736.7823641713603
60,736.7403615457698
61,736.6941547262311
62,736.6499209024511
63,736.6141313438642
64,736.5930039644855
65,736.5919635248525
66,736.61519735595
67,736.6653542554022
68,736.7433982141108
69,736.8486058149612
70,736.9786777494705
71,737.1299218223736
72,737.2974707006075
73,737.4755217423183
74,737.6576058223449
75,737.8368898059003
76,738.0065018787475
77,738.1598614657864
78,738.2910037652581
79,738.3949016263474
80,738.4677865789605
81,738.5074467538542
82,738.513445191869
83,738.4871900563506
84,738.431818230812
85,738.351906905092
86,738.2530646442032
87,738.1414553453552
88,738.0232934423999
89,737.9043444558148
90,737.7894741418368
91,737.6822933160366
92,737.5849329839086
93,737.4979630387189
94,737.4204516908546
95,737.3501572380102
96,737.2838375431127
97,737.2176440990988
98,737.147547041253
99,737.0697362159801
100,736.9809639196307
101,736.8788179041356
102,736.7619231886861
103,736.6300718089026
104,736.4842803712188
105,736.3267735153148
106,736.1608803639979
107,735.9908196128052
108,735.8213549060631
109,735.6573293672042
110,735.5031256903555
111,735.3621332005453
112,735.2363213135798
113,735.1260062663534
114,735.0298562581523
115,734.9451278036397
116,734.8680831993946
117,734.79451635734
118,734.7203129077129
119,734.6419812063966
120,734.5571011176879
121,734.4646465934385
122,734.3651551431037
123,734.2607404757382
124,734.154960168501
125,734.0525538467307
126,733.959068962221
127,733.8803951067474
128,733.8222257986566
129,733.7894620818869
130,733.7855903954453
131,733.812119003788
132,733.8682072485036
133,733.9506180606344
134,734.054051899462
135,734.1718119256083
136,734.29665614317
137,734.4216508127967
138,734.5408610649458
139,734.6497828351553
140,734.745503525248
141,734.8266441606901
142,734.8931629948966
143,734.9460914576433
144,734.9872488161128
145,735.0189655238659
146,735.043842027931
147,735.0645628427555
148,735.0837625148073
149,735.1039132282643
150,735.1271952322239
151,735.1553265914978
152,735.1893553073726
153,735.2294409600732
154,735.2746720023935
155,735.3229816891766
156,735.3712323873214
157,735.415512412651
158,735.4516245767101
159,735.4756755258913
160,735.4846462439392
161,735.47684420639
162,735.4521744298204
163,735.4121933230914
164,735.3599305670879
165,735.2994982758127
166,735.2355528944422
167,735.1727083102235
168,735.1149966065065
169,735.065444162481
170,735.0258017384259
171,734.9964480055505
172,734.9764626215106
173,734.9638291389772
174,734.9557023190517
175,734.948687193552
176,734.9391175961205
177,734.9233467797183
178,734.898051900517
179,734.8605321893373
180,734.8089764675026
181,734.7426853071079
182,734.6622372626014
183,734.5695829571295
184,734.468042036803
185,734.3621712625909
186,734.2574756010978
187,734.1599579206578
188,734.0755429576078
189,734.0094480434847
190,733.9655914184476
191,733.9461294513952
192,733.951197503265
193,733.9788889759271
194,734.0254499002332
195,734.0856186998654
196,734.1530274302563
197,734.2206072353853
198,734.2809882989877
199,734.3269185083202
200,734.3517206374796
201,734.3497727156292
202,734.316962143957
203,734.2510564434248
204,734.1519502025135
205,734.021767986629
206,733.86481124725
207,733.6873349563687
208,733.4971402495439
209,733.3029868745583
210,733.1138631482486
211,732.9381857185081
212,732.7830262835154
213,732.6534777604372
214,732.552267913366
215,732.4796840878589
216,732.4337983313841
217,732.410926975438
218,732.4062529368696
219,732.4145531443132
220,732.4309640005828
221,732.4516871068519
222,732.4745240925943
223,732.4991571938745
224,732.5271491601543
225,732.5616925339376
226,732.6071712544959
227,732.6686013217526
228,732.7510072078669
229,732.8587904198182
230,732.9951576259673
231,733.1616747826134
232,733.3579908124816
233,733.5817479057537
234,733.8286801083099
235,734.0928890182707
236,734.3672655323611
237,734.6440080413705
238,734.9151811411602
239,735.1732626704452
240,735.4116367122251
241,735.6250073890952
242,735.809726967725
243,735.9640383168468
244,736.0882222187691
245,736.1846229114528
246,736.2575096114768
247,736.3127301219378
248,736.3571429762736
249,736.3978771058678
250,736.4415323346282
251,736.4934643760084
252,736.557280310074
253,736.6346149871772
254,736.7251896722156
255,736.8270949118491
256,736.9372041005785
257,737.0516190286573
258,737.1660723014176
259,737.2762525711712
260,737.3780604398753
261,737.467829085067
262,737.5425425869566
263,737.6000590614655
264,737.6393140854844
265,737.6604646157847
266,737.6649436359805
267,737.6554241862925
268,737.6357197072832
269,737.6106525924293
270,737.5858941886031
271,737.5677354727693
272,737.5627241289271
273,737.577124463654
274,737.6162154729144
275,737.683510577867
276,737.780030332025
277,737.9037724680516
278,738.0495020379037
279,738.2089363833127
280,738.3713393269234
281,738.5244783713825
282,738.6558407770357
283,738.7539512738243
284,738.80960102992
285,738.8168079112384
286,738.7733894451711
287,738.6811182035593
288,738.5455019482711
289,738.375255800317
290,738.1815150540527
291,737.9768170357539
292,737.7739030584371
293,737.5844576930699
294,737.4179627384575
295,737.2808449753583
296,737.17603448183
297,737.1029612802162
298,737.0579405768425
299,737.0348469623874
300,737.025956367088
301,737.0228377910112
302,737.0172009324191
303,737.0016397419166
304,736.9702354899716
305,736.9189884901805
306,736.8460508039801
307,736.7517462732845
308,736.6383852696955
309,736.5099042187536
310,736.3713807939804
311,736.2284855087818
312,736.0869239714041
313,735.9519109575059
314,735.8277127183189
315,735.7172993339914
316,735.6221508480214
317,735.5422497048498
318,735.4762705551336
319,735.4219473665272
320,735.3765556740361
321,735.3374125665018
322,735.3022957606747
323,735.269714937367
324,735.2390061645027
325,735.210250839467
326,735.1840532714764
327,735.1612436616872
328,735.1425859852849
329,735.1285567756576
330,735.119236503984
331,735.1143313647249
332,735.1133161044703
333,735.115656569615
334,735.1210448038448
335,735.129573736945
336,735.1417985080353
337,735.1586698524878
338,735.1813635829575
339,735.211052741984
340,735.2486719311229
341,735.2947124287562
342,735.3490687178331
343,735.4109382116446
344,735.4787661375457
345,735.550235907658
346,735.6223245089624
347,735.6914484448869
348,735.7537049319124
349,735.8051769388113
350,735.842239825828
351,735.8617988872488
352,735.8614133123608
353,735.8393147915349
354,735.7943709344213
355,735.726043051931
356,735.6343563999179
357,735.519875323562
358,735.3836713898568
359,735.2272793703899
360,735.0526466216015
361,734.8620951411218
362,734.658318846892
363,734.4444157807607
364,734.2239197138222
365,734.0007817149847
366,733.7792683928162
367,733.5637682431008
368,733.3585195262988
369,733.1673007870172
370,732.993151381962
371,732.8381840910923
372,732.7035052453235
373,732.5892066403859
374,732.4943859597304
375,732.4171961277001
376,732.3549782795116
377,732.3045447281353
378,732.2626244936342
379,732.2263928850958
380,732.1939411059064
381,732.1645483333226
382,732.1386851489802
383,732.1177523499069
384,732.1036113129223
385,732.0979957908646
386,732.1019181953461
387,732.1151920028113
388,732.1361831814829
389,732.1618764082309
390,732.1882886661166
391,732.2111804625315
392,732.2269229784256
393,732.2333168847798
394,732.2301577323943
395,732.2194062956927
396,732.2049221760342
397,732.1918167437004
398,732.18555192789
399,732.1909510991185
400,732.2113030400725
401,732.2477298539391
402,732.2989464154962
403,732.3614580457396
404,732.4301446658868
405,732.499104981367
406,732.5626052588921
407,732.6159798590165
408,732.6563499924116
409,732.6830671601166
410,732.697841774929
411,732.7045593455866
412,732.7088085901249
413,732.7171697114708
414,732.7363485770545
415,732.7722762312474
416,732.8293039836396
417,732.9096095871223
418,733.012891140824
419,733.1363681910085
420,733.2750573327942
421,733.4222644418242
422,733.5702301385797
423,733.7108594453563
424,733.8364602369821
425,733.9404172443657
426,734.0177363477333
427,734.0654029011046
428,734.0825160343178
429,734.0701965444119
430,734.0313091592033
431,733.97006839008
432,733.8915967395487
433,733.801479851873
434,733.7053362887392
435,733.6084130647729
436,733.5152358160877
437,733.4293596620003
438,733.3532562198434
439,733.2883384344809
440,733.2350943482454
441,733.1932873692137
442,733.16217936583
443,733.1407377272949
444,733.1277979220969
445,733.1221715170146
446,733.1227158343609
447,733.1284062684124
448,733.1384551530005
449,733.1524846086274
450,733.170700271767
451,733.1939741883199
452,733.2237573826989
453,733.2617918241126
454,733.3096517390665
455,733.3682052859233
456,733.4371395758735
457,733.5147070644258
458,733.5978058102658
459,733.6824155420437
460,733.7643220498973
461,733.8400045033103
462,733.907527962948
463,733.9672644242501
464,734.0222727639505
465,734.0782221812428
466,734.1428387657675
467,734.2249577257662
468,734.3333450723952
469,734.475494330657
470,734.656590785534
471,734.8787701242354
472,735.1407201438653
473,735.4376324621312
474,735.7615108087988
475,736.1018420835132
476,736.4465978424626
477,736.7834621829234
478,737.1011190107959
479,737.390415695152
480,737.6452550596175
481,737.8631291713526
482,738.0452655368322
483,738.1963918558133
484,738.3241499046724
485,738.4382237257637
486,738.5492871935871
487,738.6678927753675
488,738.803408553169
489,738.9630879783087
490,739.151345432583
491,739.3693051528818
492,739.6146798408595
493,739.8820125100949
494,740.1632773218288
495,740.4487836762436
496,740.7282735622828
497,740.9920633562785
498,741.2320742138361
499,741.4426194083338
500,741.6208551014953
501,741.7668446156545
502,741.8832450566275
503,741.9746956947129
504,742.047036682018
505,742.1064873583239
506,742.1588790424425
507,742.2090039698379
508,742.2601271958464
509,742.3137004281592
510,742.3693015823366
511,742.4248000145387
512,742.476715618138
513,742.5207009701641
514,742.5520461263839
515,742.5661138428168
516,742.5586650418643
517,742.5260964992439
518,742.4656421781084
519,742.3755755970899
520,742.2554124003381
521,742.1060716439276
522,741.9299294417451
523,741.7307077714895
524,741.5131856091322
525,741.2827715439572
526,741.0450058338821
527,740.8050642351054
528,740.5673358239154
529,740.3351468105319
530,740.1106836925665
531,739.89512252213
532,739.6889124698772
533,739.4921154368883
534,739.304688391404
535,739.1266239343465
536,738.9579291240709
537,738.7984859513148
538,738.6478646180262
539,738.5051558670467
540,738.3688752718773
541,738.2369783403215
542,738.1070032168659
543,737.9763280371423
544,737.8424989278905
545,737.7035562251225
546,737.5582704960487
547,737.406215600209
548,737.2476664305483
549,737.0833962651226
550,736.9145068226013
551,736.7424018010198
552,736.56892314877
553,736.3965738295393
554,736.2287049306929
555,736.0695548597623
556,735.9240725205929
557,735.7975152412569
558,735.6948753579867
559,735.6202434503693
560,735.5762402818335
561,735.5636286463701
562,735.5811573486897
563,735.6256221789399
564,735.6920870989311
565,735.7742054432977
566,735.864605555167
567,735.9553417439863
568,736.0384358612343
569,736.1065175608666
570,736.1535111725154
571,736.1752555930391
572,736.1699242188475
573,736.1381411210555
574,736.0827489409231
575,736.0082588380769
576,735.9200914411548
577,735.8237751901739
578,735.7242751642253
579,735.6255754473236
580,735.5305577122715
581,735.4411421951473
582,735.3586010861559
583,735.2839228867667
584,735.2181080110848
585,735.1623139885987
586,735.1178239050267
587,735.0858597712927
588,735.067300035609
589,735.0623916803097
590,735.0705567438823
591,735.0903610551784
592,735.1196514710093
593,735.1558132239594
594,735.1960729665651
595,735.2377724707513
596,735.2785538638904
597,735.3164267527986
598,735.3497272573732
599,735.3770169762116
600,735.3969889920144
601,735.4084398974029
602,735.4103382934076
603,735.401981299885
604,735.3831882369981
605,735.3544495570309
606,735.3169516992444
607,735.2724410301533
608,735.2229480246453
609,735.1704330467043
610,735.116429659161
611,735.0617659197828
612,735.0064405147052
613,734.94969839029
614,734.8902874970079
615,734.8268216613045
616,734.7581600982801
617,734.6837330908631
618,734.6037659033808
619,734.5193723997573
620,734.4325151366969
621,734.3458533373852
622,734.2625094713416
623,734.185779778292
624,734.1188047910919
625,734.0642118042745
626,734.0237541373336
627,733.9980077773434
628,733.986219218187
629,733.9863867084899
630,733.9955958239436
631,734.0105620957588
632,734.0282918210762
633,734.0467475746298
634,734.0653808313415
635,734.085385735106
636,734.109565550912
637,734.1417890261274
638,734.1861170100586
639,734.2457713138018
640,734.3221830828506
641,734.4143751602192
642,734.5188758487313
643,734.6302300778506
644,734.7420089928497
645,734.8480844785367
646,734.9438782638867
647,735.0273164976085
648,735.0992899531907
649,735.1635165983595
650,735.2258255137674
651,735.2930174700922
652,735.3715652267225
653,735.4664469785872
654,735.5803458078061
655,735.7133265295429
656,735.862973279454
657,736.0248897895527
658,736.193446685238
659,736.3626697236515
660,736.5271508425458
661,736.6828293124221
662,736.8274783830987
663,736.9607790891289
664,737.0839589773319
665,737.1990827327429
666,737.3081671534427
667,737.4123290714812
668,737.5111556574104
669,737.6024333099386
670,737.6823107109984
671,737.7459041196022
672,737.7882644779561
673,737.8055244033725
674,737.7959655368115
675,737.7607336626787
676,737.703995636918
677,737.6324568175038
678,737.5542994963442
679,737.4777281838714
680,737.4093974914223
681,737.3530413973256
682,737.3086107768878
683,737.2721510793555
684,737.2365074187469
685,737.1927461729742
686,737.1319886584417
687,737.0472418318666
688,736.9348284684804
689,736.7951472157727
690,736.6326710995868
691,736.4552621841118
692,736.2730049336818
693,736.0968229670007
694,735.9371348926302
695,735.8027371075176
696,735.7000108118685
697,735.6324756475173
698,735.6006718804874
699,735.6023391565554
700,735.6328477515858
701,735.6858094515981
702,735.7537599876656
703,735.8287969036005
704,735.9030976935236
705,735.969312761898
706,736.0208777612341
707,736.0522912890972
708,736.0593698945142
709,736.0394555345163
710,735.9915363236651
711,735.9162566732801
712,735.8158253562472
713,735.6938577849925
714,735.5551938342393
715,735.405708229425
716,735.2520896418768
717,735.1015379090717
718,734.9613385070465
719,734.8383120879947
720,734.7381828629807
721,734.6649488440438
722,734.6203607299699
723,734.603617565226
724,734.6113655754043
725,734.6380404798981
726,734.6765208868893
727,734.7189799739566
728,734.7577750943699
729,734.7862238766833
730,734.7991658380967
731,734.793269152839
732,734.7670899783799
733,734.7209193529707
734,734.6564727156109
735,734.5765071174278
736,734.4844766812981
737,734.3843119647282
738,734.2803218004822
739,734.1771310464997
740,734.0795587963663
741,733.9924018876557
742,733.9201480212366
743,733.8666600407726
744,733.8348663594256
745,733.8264956533997
746,733.8419099509939
747,733.880092980093
748,733.9388208611728
749,734.0149911305998
750,734.1050418893259
751,734.2053778250762
752,734.3127383032494
753,734.42447792088
754,734.5387548098569
755,734.654620452948
756,734.7719848922617
757,734.8914225523681
758,735.0138148623238
759,735.1398891908821
760,735.2697634074716
761,735.4026030917732
762,735.5364516247869
763,735.6682396949997
764,735.7939470394764
765,735.9088770488876
766,736.0080051612599
767,736.0863695291509
768,736.139484561136
769,736.1637693581897
770,736.1569853665624
771,736.118661081361
772,736.0504461764986
773,735.9563032854423
774,735.842440646231
775,735.7169228557731
776,735.588959216332
777,735.4679460954288
778,735.3624177800419
779,735.2791084850135
780,735.2223087536886
781,735.1936145190642
782,735.1920669064508
783,735.2146112357198
784,735.2567711225864
785,735.3134252932009
786,735.3795803798116
787,735.4510453894912
788,735.5249320877815
789,735.5999341460756
790,735.6763694710514
791,735.755989693242
792,735.8415700105869
793,735.9363124941423
794,736.0431388643266
795,736.1639961976529
796,736.2993134634521
797,736.447708484545
798,736.6059761938342
799,736.7693329444364
800,736.9318672109645
801,737.0871391722175
802,737.2288606916942
803,737.3515690491693
804,737.4511895705787
805,737.5253793046562
806,737.5735758891881
807,737.5967458636323
808,737.5969081261829
809,737.5765655981306
810,737.5381923568535
811,737.483893998688
812,737.4153015838508
813,737.3336989824016
814,737.2403327068613
815,737.1368110456257
816,737.025472004284
817,736.9096026737225
818,736.7934279667224
819,736.6818393511265
820,736.5798914676157
821,736.492152766275
822,736.4220480663968
823,736.3713548641736
824,736.3399903678319
825,736.3261546765318
826,736.3268001986316
827,736.3383047632763
828,736.357162959994
829,736.3805055038995
830,736.4063223078856
831,736.4333794632962
832,736.4609322393055
833,736.4883938471913
834,736.5151070386863
835,736.5403113390092
836,736.5633384025432
837,736.5840054595346
838,736.6031033153184
839,736.6228120117629
840,736.646866730786
841,736.6803566684891
842,736.7291470174588
843,736.7990264207468
844,736.8947605422577
845,737.019253164055
846,737.1729789620738
847,737.3537778514401
848,737.5570185022575
849,737.776071934526
850,738.002998254674
851,738.2293407191751
852,738.4469262942919
853,738.6485724011744
854,738.8285976351463
855,738.9830552263286
856,739.1096699633127
857,739.2075432750237
858,739.2767509316216
859,739.3179625463562
860,739.3321720406299
861,739.3205756868379
862,739.2845895162828
863,739.2259616852822
864,739.1469081461296
865,739.0501934425276
866,738.9391035322907
867,738.8173057854234
868,738.6886347796473
869,738.5568548926652
870,738.4254305869491
871,738.2973072179572
872,738.1746978170913
873,738.0588961291888
874,737.9501779657702
875,737.8478727615346
876,737.7506501364517
877,737.6569813162893
878,737.565657222178
879,737.4762234942798
880,737.3892300611935
881,737.3062575204501
882,737.2297409837513
883,737.1626415759758
884,737.1080155715279
885,737.0685263892781
886,737.0459582430235
887,737.0408143386514
888,737.0520906454648
889,737.0772902863869
890,737.1126863294202
891,737.1537761133476
892,737.1958272692319
893,737.2344075471268
894,737.2658140119892
895,737.2873610522701
896,737.2975320689353
897,737.2960257020856
898,737.2837254952123
899,737.2626000959007
900,737.2355211561721
901,737.2059923091784
902,737.1778132566495
903,737.1547248969163
904,737.1400726856573
905,737.136502269858
906,737.145690439715
907,737.168123208891
908,737.2029534901084
909,737.2479921276673
910,737.2998944973729
911,737.3545826157948
912,737.4078805238362
913,737.4562617104469
914,737.4975591612335
915,737.5314973749919
916,737.5599532257577
917,737.5869060151936
918,737.6180834639158
