frame_number,force
0,657.7959000000321
1,657.9423050165855
2,658.080296782319
3,658.2019645634323
4,658.3004141433502
5,658.3702804779516
6,658.4081920830721
7,658.4131184878694
8,658.3865355899961
9,658.3323631545034
10,658.2566494133996
11,658.1670067245864
12,658.0718534037342
13,657.9795738421201
14,657.8977313972663
15,657.8324374223231
16,657.7879208080132
17,657.7662967454347
18,657.7675154242013
19,657.7894668213328
20,657.8282168164498
21,657.8783579405945
22,657.9334694836185
23,657.986671826759
24,658.0312231490605
25,658.0610773946244
26,658.0713310320783
27,658.0585203388889
28,658.0207630600141
29,657.9577587604052
30,657.8706715125766
31,657.7619194027055
32,657.6348934934421
33,657.4936243159523
34,657.3424079464877
35,657.1854109420203
36,657.0262977599677
37,656.8679416062449
38,656.7122705936184
39,656.5602739570123
40,656.4121602012616
41,656.2676231902226
42,656.1261439671005
43,655.9872549315562
44,655.8507214448946
45,655.7166308107919
46,655.5853967824778
47,655.4576920464693
48,655.3343286785718
49,655.2161188686943
50,655.1037495748016
51,654.9976867273002
52,654.8980982244356
53,654.8047723819172
54,654.7170264481839
55,654.6336418367251
56,654.5528954970572
57,654.4727458418745
58,654.3911774228671
59,654.3066490031848
60,654.2185601071275
61,654.1276525712582
62,654.0362763555148
63,653.9484602837323
64,653.869738906897
65,653.8067045859284
66,653.7662917136038
67,653.7548624739765
68,653.7772330692537
69,653.8358229144447
70,653.9301032484577
71,654.0564654266243
72,654.2085408668131
73,654.3779128848676
74,654.5550950204288
75,654.7306240739763
76,654.8961184354807
77,655.0451671994924
78,655.1739408284407
79,655.2814558366055
80,655.3694804725579
81,655.442120608236
82,655.5051638564219
83,655.5652838855465
84,655.6292144304535
85,655.7029919109699
86,655.7913433221297
87,655.8972709292763
88,656.0218611615039
89,656.1643242703424
90,656.3222510323014
91,656.4920425532248
92,656.6694295339602
93,656.8499736143173
94,657.0294628399546
95,657.2041688397728
96,657.3709852903037
97,657.5274849505802
98,657.671923660702
99,657.8032123272528
100,657.9208826804738
101,658.0250733611374
102,658.11654215414
103,658.1966740420966
104,658.2674309267239
105,658.3312013899431
106,658.3905533179934
107,658.4479372045689
108,658.5054044562355
109,658.5643918261281
110,658.6255997000428
111,658.6889724668595
112,658.7537729948906
113,658.8187263324455
114,658.8821927441338
115,658.9423285251454
116,658.9972160690515
117,659.0449830719826
118,659.0839549451332
119,659.1128744300515
120,659.131182321961
121,659.1393026036502
122,659.138841765849
123,659.1326175245115
124,659.1244724974431
125,659.1188793739391
126,659.1203871175727
127,659.1329882313927
128,659.1595040371916
129,659.2010864521444
130,659.2569199587105
131,659.3241740070104
132,659.3982057678326
133,659.4729636821188
134,659.5415184089785
135,659.5966560470057
136,659.6314890721222
137,659.6400460730633
138,659.6177848927997
139,659.5619581935229
140,659.4717758560234
141,659.3483575330439
142,659.1945202367533
143,659.0144660041232
144,658.8134216738487
145,658.5972670902083
146,658.372188879355
147,658.1443930384128
148,657.9198746824945
149,657.7041962344406
150,657.5022140457614
151,657.3177342339096
152,657.1531383328033
153,657.0090584576097
154,656.8841908010384
155,656.7753257065083
156,656.677644428177
157,656.585280421765
158,656.492074613822
159,656.3924007084
160,656.2819267497333
161,656.1582078644273
162,656.0210419863802
163,655.8725483176513
164,655.7169559472603
165,655.5601264380477
166,655.4088738551218
167,655.2701793887451
168,655.1504175791479
169,655.0547091434976
170,654.9864903274605
171,654.9473486700243
172,654.9371288761267
173,654.9542671200488
174,654.9962773928542
175,655.0602981931479
176,655.1436112381475
177,655.2440602283915
178,655.360324650084
179,655.4920364868764
180,655.6397537402718
181,655.8048131282295
182,655.9890785585427
183,656.1945958173958
184,656.4231678324222
185,656.6758794432188
186,656.9526232009672
187,657.2517032950487
188,657.5696067655238
189,657.9010105900753
190,658.2390439689549
191,658.5757741718432
192,658.9028518594872
193,659.2122378859065
194,659.4969311253149
195,659.7516166550786
196,659.9731456976028
197,660.1607522448406
198,660.3159371134354
199,660.4420202976801
200,660.5434454542449
201,660.6249735856511
202,660.6909102758788
203,660.7444809456958
204,660.7874211100581
205,660.8198088519156
206,660.8401498047315
207,660.8457135889522
208,660.8330830185827
209,660.7988171364129
210,660.740089686358
211,660.6551757831879
212,660.543709820479
213,660.406701147434
214,660.2463522577372
215,660.0657615928761
216,659.8685990906581
217,659.6588215617862
218,659.4404600870789
219,659.2174743965984
220,658.9936416025249
221,658.7724414019115
222,658.55691579525
223,658.3495006556041
224,658.1518396044829
225,657.9646074323055
226,657.787391996172
227,657.6186881368291
228,657.456030601925
229,657.2962533653465
230,657.1358379636524
231,656.9713091979365
232,656.7996376462938
233,656.61860358619
234,656.4270721573092
235,656.2251379544275
236,656.0141224820087
237,655.7964424190887
238,655.5753972156599
239,655.3549344202332
240,655.1394301538928
241,654.9334828865376
242,654.7416902881386
243,654.5683804902036
244,654.4172955022208
245,654.2912568983306
246,654.1918685689252
247,654.1193250624907
248,654.0723911947484
249,654.0485868484394
250,654.0445507048952
251,654.0564949933453
252,654.0806343206596
253,654.1134887414328
254,654.1520141990144
255,654.193580512101
256,654.2358727858885
257,654.2768142749885
258,654.3145888105805
259,654.3477889798639
260,654.3756531228954
261,654.3983041019632
262,654.4168914981245
263,654.433576454277
264,654.4513584089271
265,654.473783136889
266,654.5045787838532
267,654.5472638514345
268,654.6047799096774
269,654.6792140438541
270,654.7716664975345
271,654.8822782823752
272,655.0103808003632
273,655.1546929646938
274,655.3134847766905
275,655.484649614641
276,655.6656770356336
277,655.8535787610969
278,656.0448566491098
279,656.2355832086207
280,656.4216071124342
281,656.5988442875081
282,656.7635992433334
283,656.9128737923924
284,657.0446355087223
285,657.1580199768034
286,657.2534331943946
287,657.3325182928291
288,657.3979637514389
289,657.4531572683952
290,657.5017244438188
291,657.5470271100181
292,657.5917172973477
293,657.6374302745097
294,657.6846542959985
295,657.7327630812995
296,657.7801662002856
297,657.8245262513728
298,657.8630016061088
299,657.892491153251
300,657.9098714352915
301,657.9122169953404
302,657.8969876058172
303,657.8621714979595
304,657.8064031529532
305,657.7291064731561
306,657.6307043460972
307,657.5128664930795
308,657.3786853469635
309,657.2326462906886
310,657.0803203689229
311,656.9278141359815
312,656.7810943885149
313,656.6453248458254
314,656.5243206702071
315,656.4201853606434
316,656.3331665743963
317,656.2617495953738
318,656.202985618789
319,656.153016493239
320,656.1077136044873
321,656.0633203193696
322,656.0169952779643
323,655.9671888074987
324,655.9138166127947
325,655.8582095288439
326,655.8028352936054
327,655.7508309400114
328,655.7054403883172
329,655.669486620075
330,655.6450016670669
331,655.6330893439733
332,655.6340170849636
333,655.647459903172
334,655.6727912879828
335,655.7093349533953
336,655.7565267612291
337,655.8139658587758
338,655.8813589939117
339,655.9583872017799
340,656.0445458663717
341,656.1390189691847
342,656.2406406029021
343,656.3479720361327
344,656.4594870689907
345,656.5738231704188
346,656.6900323118093
347,656.8077598871407
348,656.9272945796789
349,657.0494641090048
350,657.175389426908
351,657.3061374852078
352,657.442327907302
353,657.5837611392143
354,657.729147045677
355,657.8760123247821
356,658.0208385613095
357,658.1594262893361
358,658.2874090413362
359,658.4007873427907
360,658.4963494276816
361,658.5719013659208
362,658.6263121053838
363,658.6594389863261
364,658.6720131298373
365,658.6655428590215
366,658.6422544134241
367,658.6050448620362
368,658.5573906356989
369,658.5031571227535
370,658.4462940488985
371,658.3904574583199
372,658.3386379603825
373,658.2928716896959
374,658.2540713577818
375,658.2219695476862
376,658.1951377379542
377,658.1710399870792
378,658.1461029155482
379,658.115823758714
380,658.0749663714788
381,658.017889420572
382,657.9390200297568
383,657.8334496044629
384,657.6975920463974
385,657.5298068473684
386,657.33086443603
387,657.1041431385227
388,656.8555008281284
389,656.5928314789851
390,656.3253659131104
391,656.0628055991766
392,655.8144032160799
393,655.588119334135
394,655.3899722109303
395,655.2236567985931
396,655.0904580953844
397,654.9894354793594
398,654.9178116836846
399,654.8714724580096
400,654.8454860879267
401,654.8345838463244
402,654.8335771392356
403,654.8377027393886
404,654.8428921914854
405,654.8459767585655
406,654.8448633227513
407,654.8387219529811
408,654.8281934150201
409,654.8155672840815
410,654.804834594256
411,654.8015163998883
412,654.8122153167518
413,654.8439069906618
414,654.9030559115911
415,654.9946860097983
416,655.1215463375993
417,655.2834875143268
418,655.4771288564245
419,655.6958707066917
420,655.9302894159187
421,656.1689242435322
422,656.3994115479483
423,656.6098491274987
424,656.7902055388018
425,656.9335479112285
426,657.0368662052426
427,657.1013360318219
428,657.1319752810689
429,657.1367706735336
430,657.1254375823711
431,657.1080180948259
432,657.093528846987
433,657.0888483981898
434,657.0979831013711
435,657.1217824761095
436,657.1581125189047
437,657.2024442134973
438,657.2487634059531
439,657.2906562171585
440,657.3223886260688
441,657.3397983199253
442,657.3408578710649
443,657.3258412506019
444,657.29710815393
445,657.2585906024367
446,657.215112308214
447,657.1716859652909
448,657.1329083335428
449,657.1025123348654
450,657.0830716406397
451,657.0758263692705
452,657.0806169987887
453,657.0959467968943
454,657.1192007682757
455,657.1470133099182
456,657.1757178540761
457,657.2017756123951
458,657.2220954186547
459,657.2342080043463
460,657.2363122256306
461,657.2272480849668
462,657.2064664179145
463,657.1740518411912
464,657.1308117102967
465,657.0783865378369
466,657.0192971256547
467,656.9568422147822
468,656.8948013618894
469,656.8369670226231
470,656.7865966156255
471,656.7459070770889
472,656.7157214642406
473,656.695337677161
474,656.6826470802945
475,656.6744937277755
476,656.6672290673902
477,656.657380745818
478,656.6423199916687
479,656.6207886232822
480,656.5931580988012
481,656.561361604786
482,656.5285431324082
483,656.4985385049686
484,656.4753013882408
485,656.4623416047442
486,656.4622117131257
487,656.4760841780972
488,656.5034843578547
489,656.5422491639271
490,656.5887468672522
491,656.6383273785068
492,656.6859085011758
493,656.7265796934159
494,656.7561299954285
495,656.7714532740251
496,656.7708138262718
497,656.7539585770351
498,656.7220642068693
499,656.677532883239
500,656.6236856982459
501,656.5644141266969
502,656.5038280867474
503,656.4459126586006
504,656.3942016474617
505,656.351491254963
506,656.319632171223
507,656.2994428580263
508,656.2907712099368
509,656.2926880890321
510,656.3037441901523
511,656.322201087575
512,656.3461708837209
513,656.3736426735978
514,656.4024132533987
515,656.4299663869161
516,656.4533585821631
517,656.469169502028
518,656.4735625003133
519,656.4624775176484
520,656.4319520187796
521,656.378543979087
522,656.2998120722892
523,656.1947840324356
524,656.0643181066973
525,655.911255683218
526,655.7402985193061
527,655.5576207395836
528,655.370309623965
529,655.1857744178475
530,655.0112457360195
531,654.8534233158908
532,654.7182557325673
533,654.6107885956751
534,654.5350109050922
535,654.4936563741348
536,654.4879625097291
537,654.5174325280677
538,654.5796642569252
539,654.670307077396
540,654.7831963793689
541,654.9106966103833
542,655.0442502083879
543,655.1750850115551
544,655.2949960755261
545,655.397102489711
546,655.476486132548
547,655.5306398352906
548,655.5596745300063
549,655.5662513751146
550,655.5552251629271
551,655.5330234131902
552,655.5068363169075
553,655.4837319342353
554,655.4698197516198
555,655.4695692924482
556,655.4853664850938
557,655.5173596931267
558,655.5635988703929
559,655.620417952338
560,655.6829837146487
561,655.7459368451157
562,655.8040523332675
563,655.852831292896
564,655.8889276801622
565,655.9103410354027
566,655.9163716066373
567,655.9074041324559
568,655.8846205718884
569,655.8497263385013
570,655.8047308742845
571,655.7517836854903
572,655.693045320144
573,655.6305671702236
574,655.566163628736
575,655.5012834074257
576,655.4369096376664
577,655.373522014184
578,655.3111343076735
579,655.2493929657566
580,655.1877100751867
581,655.1254120330616
582,655.0618927026952
583,654.9967483573697
584,654.9298584945192
585,654.8613914538748
586,654.7917505448601
587,654.7214982980478
588,654.6512843785811
589,654.5817739061238
590,654.513557867259
591,654.4470391556262
592,654.3823118597879
593,654.3190657256761
594,654.256548937122
595,654.1936191283933
596,654.1289023558027
597,654.0610525710779
598,653.9890643880085
599,653.9125616560066
600,653.8319837994034
601,653.748620369861
602,653.6644816085185
603,653.582022456908
604,653.5037616925301
605,653.4318617799765
606,653.3677484264243
607,653.3118421152126
608,653.2634572545467
609,653.2209079248603
610,653.1818301229767
611,653.1436785843724
612,653.1043025465264
613,653.062481913921
614,653.0183229463254
615,652.9734537287778
616,652.9309994771054
617,652.8953437465487
618,652.8717002866024
619,652.8655424672937
620,652.8819620883673
621,652.9250466379452
622,652.9973641369656
623,653.0996246195375
624,653.2305529597757
625,653.3869727704998
626,653.5640771331199
627,653.7558471842167
628,653.9555654424998
629,654.1563583797624
630,654.3517002238491
631,654.5358215924742
632,654.7039949853959
633,654.8527102822296
634,654.979784948773
635,655.0844523276894
636,655.1674410187308
637,655.2310222250092
638,655.2789743369141
639,655.3163987290923
640,655.349327528051
641,655.3841042131171
642,655.4265852289701
643,655.4812790015188
644,655.5505789849855
645,655.6342488228731
646,655.7292876736776
647,655.8302481995828
648,655.9299989701514
649,656.0208288847352
650,656.0957111422773
651,656.1495049183661
652,656.1798845806807
653,656.1878387074038
654,656.1776538734381
655,656.1563792975611
656,656.1328557046405
657,656.1164716591932
658,656.1158542550365
659,656.1376936241162
660,656.185861387437
661,656.2609382328925
662,656.360215384966
663,656.4781644591569
664,656.607285655641
665,656.7391755180474
666,656.8656289525017
667,656.9796092880042
668,657.075972337306
669,657.151894410093
670,657.2070039370905
671,657.243239850458
672,657.2644682716469
673,657.2758966116447
674,657.2833368558693
675,657.2923937441575
676,657.3076888280978
677,657.3322564081834
678,657.3672310008906
679,657.411880070887
680,657.4639476106253
681,657.5202049267504
682,657.5770791899765
683,657.6312477928473
684,657.6801316637373
685,657.7222658876238
686,657.7575428125641
687,657.7873093005034
688,657.814286182964
689,657.8422926025386
690,657.8757971734369
691,657.9193577960275
692,657.9770375276481
693,658.0518938753555
694,658.145629788235
695,658.2584600127193
696,658.3891914193787
697,658.5354610996195
698,658.6940460927437
699,658.8611634208816
700,659.0327053789719
701,659.2043848791468
702,659.3717972259556
703,659.5304386923337
704,659.675740216521
705,659.8031573872178
706,659.9083209276777
707,659.987230480193
708,660.0364757471626
709,660.0534697642978
710,660.0366686745875
711,659.9857432875049
712,659.9016659652243
713,659.7866743493634
714,659.6440739613887
715,659.4778658695283
716,659.2922458448456
717,659.0910916816155
718,658.8775821791736
719,658.6540464828531
720,658.4220550503876
721,658.1826885665199
722,657.936890355524
723,657.6858154033695
724,657.4311084989192
725,657.1750548383294
726,656.9205560357492
727,656.6709179374373
728,656.4294956578241
729,656.1992890441807
730,655.9825841907906
731,655.7807009279106
732,655.5938661952381
733,655.421212592774
734,655.26089917128
735,655.1103504855433
736,654.9665955614752
737,654.8266649383256
738,654.6879906732003
739,654.5487614950717
740,654.4081987005998
741,654.2667168066135
742,654.1259210514673
743,653.9884021899074
744,653.8573387308118
745,653.7359924214359
746,653.6272383810539
747,653.5332616118304
748,653.4554752787662
749,653.3946264134405
750,653.3510075489247
751,653.3246927819647
752,653.3157291718898
753,653.3242181700147
754,653.3502363660031
755,653.3935998945409
756,653.4535590365999
757,653.528562610571
758,653.6162174272763
759,653.713500410054
760,653.8171958971393
761,653.924454899578
762,654.0333286147901
763,654.1431319459608
764,654.2545373598276
765,654.3693608045265
766,654.4900656490704
767,654.619075496699
768,654.7580407231272
769,654.9072239632461
770,655.0651419404669
771,655.2285340726439
772,655.3926501805242
773,655.5517857083971
774,655.6999541862743
775,655.8315783067984
776,655.9421027552886
777,656.0284676943124
778,656.0894086273796
779,656.1255587543367
780,656.1393354444182
781,656.1346098209724
782,656.1161935718743
783,656.0892174474014
784,656.0585005360824
785,656.0280079939439
786,656.0004743177273
787,655.9772412521072
788,655.9583269175578
789,655.9427033982456
790,655.9287200802044
791,655.9145851900258
792,655.8988180110573
793,655.8806037471423
794,655.8600095886007
795,655.8380461998249
796,655.8165818871365
797,655.798135757583
798,655.7855875742338
799,655.7818457343825
800,655.7895155066965
801,655.8106096136444
802,655.8463408401421
803,655.8970275834241
804,655.9621218752233
805,656.0403351108648
806,656.1298040445573
807,656.2282314635752
808,656.3329653353146
809,656.4410339858549
810,656.5491968249605
811,656.6540712930026
812,656.7523610640498
813,656.8411626602231
814,656.9182888667782
815,656.9825347623239
816,657.0338359320132
817,657.0733126297076
818,657.1032212835676
819,657.1268269326625
820,657.1481862816673
821,657.1718227264205
822,657.2022943631222
823,657.24369351899
824,657.2991513253493
825,657.3704349955457
826,657.4577135139535
827,657.5595379763313
828,657.6730470282654
829,657.7943720154267
830,657.9191834717158
831,658.0432921647612
832,658.1631989830606
833,658.2764897084709
834,658.3819998390129
835,658.4797214707453
836,658.5704713398395
837,658.6553748591336
838,658.7352423982394
839,658.8099264396257
840,658.8777606002498
841,658.9351946233937
842,658.9767392936935
843,658.9953012961179
844,658.9829126539776
845,658.9317620770821
846,658.835355361738
847,658.6896032444246
848,658.4936656628436
849,658.2504457834209
850,657.9666858471886
851,657.6526514633899
852,657.3214165390185
853,656.98780022191
854,656.6670610359425
855,656.3735037089315
856,656.119183744591
857,655.9128906315868
858,655.759541949766
859,655.6600337048765
860,655.6114987172575
861,655.6078638368139
862,655.6405883378786
863,655.6994977127553
864,655.7736652392451
865,655.8523114335087
866,655.9256819036017
867,655.9858343288163
868,656.0272397262114
869,656.0471150557336
870,656.0454586351931
871,656.0248214533349
872,655.9898793916227
873,655.9468696053182
874,655.9029381920957
875,655.8654340864467
876,655.8411873388894
877,655.8358333121557
878,655.8532746959913
879,655.8953797837736
880,655.9619772981838
881,656.0511365668258
882,656.1596507418634
883,656.2836002539774
884,656.4188735933102
885,656.5615552448088
886,656.7081434347823
887,656.8556161721796
888,657.0014003660248
889,657.1433019512414
890,657.2794320172176
891,657.4081358241103
892,657.5279186251
893,657.6373706394738
894,657.7351107502692
895,657.8197764318357
896,657.8900800652908
897,657.9449357030974
898,657.9836427491643
899,658.006095494986
900,658.0129710016064
901,658.0058421368354
902,657.9871795967384
903,657.9602381822253
904,657.9288421835621
905,657.8970841691302
906,657.8689514506955
907,657.8479080757452
908,657.8364714526497
909,657.8358184535907
910,657.8454561119316
911,657.86302171379
912,657.8843157586972
913,657.9036628567937
914,657.9146139311382
915,657.9108852531673
916,657.8873409714543
917,657.8408087048949
