frame_number,force
0,597.6264700000263
1,597.6941614491383
2,597.7557756566943
3,597.8059406183002
4,597.8406270641003
5,597.8576289773644
6,597.8567865538145
7,597.8398854088854
8,597.8102452088596
9,597.772094420129
10,597.7298763232579
11,597.6876345928189
12,597.6485919739079
13,597.6149751528644
14,597.5880681724715
15,597.5684113620904
16,597.5560236428462
17,597.5505403813623
18,597.5512310872035
19,597.5569487109316
20,597.5661064788962
21,597.5767567582665
22,597.5867856830223
23,597.5941842675696
24,597.5973426712336
25,597.5953300425517
26,597.5881295311021
27,597.5767756038905
28,597.5633160744678
29,597.5505415524729
30,597.5415014765035
31,597.5389167880979
32,597.5446501138968
33,597.5593831148911
34,597.5825901576733
35,597.6128117976024
36,597.6481474047011
37,597.6868325800195
38,597.7277633972499
39,597.7708709258626
40,597.8173061410159
41,597.8694345644047
42,597.93065271014
43,598.0050412725116
44,598.0968849369962
45,598.2101219968348
46,598.3478181262939
47,598.5117542536349
48,598.7021700498692
49,598.9176423134435
50,599.1550418292558
51,599.4095265752902
52,599.6745866840945
53,599.9422124284404
54,600.2032577903311
55,600.4480154013219
56,600.6669525092886
57,600.8515236504014
58,600.9949736725483
59,601.0930543312306
60,601.1445863678127
61,601.1518059531206
62,601.1204424784685
63,601.059485163786
64,600.9806099139789
65,600.8972624453589
66,600.8234417349325
67,600.772300694578
68,600.7547534423375
69,600.778311949071
70,600.8463465010622
71,600.9578822233525
72,601.1079368782824
73,601.2883052095334
74,601.4886276033662
75,601.6975596362155
76,601.9038780762091
77,602.097397989466
78,602.2696235887919
79,602.4141138811609
80,602.526602924666
81,602.6049443748072
82,602.6489352026133
83,602.660038808765
84,602.6410138796192
85,602.5954724031676
86,602.5274145720864
87,602.4407986218833
88,602.3391987721915
89,602.2255878397965
90,602.1022520894248
91,601.9708135355429
92,601.8323225266558
93,601.68740040346
94,601.5364316694832
95,601.3797936726965
96,601.218072811927
97,601.052187769996
98,600.8833537838022
99,600.7128765813353
100,600.5418326210334
101,600.3707378318421
102,600.1993079477502
103,600.0263782555828
104,599.8500071247984
105,599.6677493647577
106,599.477045097754
107,599.2756316876793
108,599.0618773045402
109,598.8349724347793
110,598.5949794956775
111,598.3427878693336
112,598.080028778222
113,597.8089834528897
114,597.532494588933
115,597.2538820432992
116,596.976869159971
117,596.7055280298516
118,596.4442318924504
119,596.197570157548
120,595.9701697132134
121,595.7663949875715
122,595.5899533714531
123,595.4434803900772
124,595.3281966416047
125,595.2437053243489
126,595.1879424414102
127,595.1572371740115
128,595.1464321550116
129,595.1490571632045
130,595.1575968647144
131,595.1638935944701
132,595.1596792694359
133,595.1371765082469
134,595.0896836434706
135,595.012066689626
136,594.9011046959673
137,594.7556554590413
138,594.5766276103022
139,594.3667705305559
140,594.1303189224718
141,593.8725436904314
142,593.5992680115684
143,593.3164105245686
144,593.0296073087678
145,592.7439358355308
146,592.4637300302677
147,592.192455786713
148,591.9326230534732
149,591.6857405806364
150,591.4523515574851
151,591.2321935812994
152,591.0244886906731
153,590.8283052085376
154,590.6428846956171
155,590.4678252447039
156,590.3030535346967
157,590.1485802395315
158,590.0040957165086
159,589.8685087170727
160,589.7395482225762
161,589.6135347560205
162,589.4853897108499
163,589.3489038279707
164,589.1972453095503
165,589.0236609436813
166,588.822300821875
167,588.5890657043069
168,588.3223407286616
169,588.023467808804
170,587.6968485554405
171,587.3496550854752
172,586.991218137216
173,586.6322159162211
174,586.2837871707562
175,585.9566598599896
176,585.6603602721989
177,585.4025633686321
178,585.1886425558291
179,585.0214486538833
180,584.9013015653095
181,584.8261477345345
182,584.7918355516068
183,584.7924721130024
184,584.8208330092831
185,584.8688072410713
186,584.9278759038398
187,584.9896291722795
188,585.0463047928226
189,585.0912986288529
190,585.11958854628
191,585.1280328629068
192,585.1155231666233
193,585.0829702147579
194,585.0331029607046
195,584.9700903238855
196,584.8990410905018
197,584.8254655827749
198,584.7547770377596
199,584.6918783503086
200,584.6408398773833
201,584.6046491003044
202,584.5850156881369
203,584.5822355555996
204,584.5951337062887
205,584.6211092783954
206,584.6563018986485
207,584.6958892581985
208,584.7345109951248
209,584.7667954064733
210,584.7879453170459
211,584.7943161843705
212,584.7838967207299
213,584.75659547812
214,584.7142605421084
215,584.6604123299844
216,584.5997377244965
217,584.5374547227989
218,584.4786801253862
219,584.4279037091867
220,584.388611858699
221,584.3630501112614
222,584.3520932054836
223,584.355206767044
224,584.3705185999106
225,584.3950363352928
226,584.4250285013143
227,584.4565375430311
228,584.4859465419605
229,584.5104963697025
230,584.5286513038955
231,584.5402429351503
232,584.546380558657
233,584.5491740274972
234,584.5513426994831
235,584.5557802576949
236,584.5651292578281
237,584.5814070262518
238,584.6057233347069
239,584.6381378377081
240,584.6777023058331
241,584.7226981355473
242,584.7710199086017
243,584.8206036117695
244,584.8697824620747
245,584.9174805538394
246,584.963213593375
247,585.0069364989916
248,585.0488320465619
249,585.0891484644533
250,585.1281644939013
251,585.1663087663346
252,585.2044081162657
253,585.2439942333735
254,585.2875648133178
255,585.338690248008
256,585.4018934740895
257,585.4822964599858
258,585.5850900120494
259,585.7149235814753
260,585.8753308158321
261,586.068305901589
262,586.2941115823827
263,586.5513323310245
264,586.8371184836662
265,587.147531546874
266,587.4778995542301
267,587.8231134054015
268,588.177834532722
269,588.5366293576334
270,588.8940737996642
271,589.2448646430908
272,589.5839435960719
273,589.9066194378393
274,590.2086911417838
275,590.4866123090155
276,590.7377406170478
277,590.9606579345565
278,591.1554684839645
279,591.3239519774819
280,591.4694877117147
281,591.5967384167094
282,591.7111432092349
283,591.8182987899651
284,591.9233182310644
285,592.0302650800018
286,592.1417629328662
287,592.2588541740187
288,592.3811219013871
289,592.5070258475238
290,592.6343671167617
291,592.7607877867644
292,592.8842122723056
293,593.0031451320798
294,593.1167709585804
295,593.2248619041745
296,593.3275591363081
297,593.4251166098306
298,593.5176755141295
299,593.605108557283
300,593.686955674193
301,593.7624591241553
302,593.8306900755045
303,593.890745440398
304,593.9419839869615
305,593.9842636696181
306,594.0181397211484
307,594.044985770747
308,594.0670108173878
309,594.087168954068
310,594.1089889978116
311,594.1363651433346
312,594.1733362776745
313,594.2238573726646
314,594.2915553076008
315,594.3794694818848
316,594.4897952997077
317,594.6236656712184
318,594.7810149468152
319,594.9605652861472
320,595.159953382682
321,595.3759780628704
322,595.6049089983358
323,595.8427754435338
324,596.0855716396228
325,596.329367734529
326,596.5703660476303
327,596.8049586043269
328,597.0298224580517
329,597.242054159919
330,597.439312613655
331,597.6199274954405
332,597.7829465496699
333,597.9281255452595
334,598.0558860508884
335,598.1672681965166
336,598.2638923893281
337,598.3479255101829
338,598.4220352223181
339,598.4893134998642
340,598.5531452259766
341,598.6169861272632
342,598.6840217347836
343,598.7567302731574
344,598.8364486827858
345,598.9230879589232
346,599.0151168657518
347,599.1098327727539
348,599.2038205558546
349,599.293443419787
350,599.3752468337249
351,599.4462435268243
352,599.5041088736126
353,599.5473228348568
354,599.5752732915632
355,599.5883175574376
356,599.5877912522438
357,599.5759542483831
358,599.5558710347443
359,599.531232502414
360,599.5061344453088
361,599.4848409497196
362,599.4715789044442
363,599.4704140092449
364,599.4852299663221
365,599.5197801302013
366,599.5777336659042
367,599.6626184769801
368,599.777582853525
369,599.9249639192528
370,600.105747528531
371,600.3190794083982
372,600.5619899629617
373,600.8294267454795
374,601.1145986451115
375,601.4095699378906
376,601.7060116858158
377,601.9960100454041
378,602.2728314564166
379,602.5315491829544
380,602.7694498174151
381,602.9861692205858
382,603.1835542271203
383,603.3652952658502
384,603.5364059700472
385,603.7026316137076
386,603.8698593446552
387,604.0435909147737
388,604.2285222405385
389,604.4282520212149
390,604.6451233096179
391,604.8801960712378
392,605.1333458052885
393,605.4034663565956
394,605.6887274190371
395,605.9868219897055
396,606.2951496649379
397,606.6109105204824
398,606.9311189078805
399,607.2525763197139
400,607.5718541977217
401,607.885324010363
402,608.1892426309182
403,608.4798770027904
404,608.7536503689053
405,609.0073065452708
406,609.2380906080582
407,609.4439225814629
408,609.6235214189264
409,609.7764445797616
410,609.903031857419
411,610.0042584726094
412,610.0815143048598
413,610.1363446902247
414,610.1702053276664
415,610.1842835637412
416,610.179419156432
417,610.1561303322006
418,610.1147295672654
419,610.0555067204517
420,609.9789546056485
421,609.8859951398177
422,609.7781409959348
423,609.6575333096689
424,609.5268436673591
425,609.3890817252042
426,609.2473651783773
427,609.1046930811715
428,608.9637519650912
429,608.8267803762252
430,608.6955000276363
431,608.5710944594013
432,608.4542072638951
433,608.344952335261
434,608.2429580513649
435,608.1474806666803
436,608.0576085154778
437,607.9725379436355
438,607.8918491054374
439,607.8156802202446
440,607.7447222982521
441,607.6800221033953
442,607.6226456735704
443,607.5732853942976
444,607.5318969243641
445,607.4974510009306
446,607.4678764213547
447,607.4402317177722
448,607.4110757219611
449,607.376946813673
450,607.334843845141
451,607.2826348907525
452,607.2193701902393
453,607.1454964104171
454,607.0629488944926
455,606.9750729724998
456,606.8863363919435
457,606.801847400018
458,606.7267545840587
459,606.6656380771828
460,606.6219962858951
461,606.5979028054885
462,606.5938737820904
463,606.6089563320829
464,606.6410214490654
465,606.6872134208244
466,606.7444765728499
467,606.8100657979799
468,606.8819606501712
469,606.9591369069375
470,607.0416848989
471,607.1307827346935
472,607.2285345409945
473,607.3376874848668
474,607.4612618718694
475,607.6021559320568
476,607.7627920383402
477,607.9448380223791
478,608.1489875022634
479,608.3747607714395
480,608.6203144887313
481,608.8823000951767
482,609.1558429075625
483,609.4347020312044
484,609.7116253624522
485,609.9788606612176
486,610.2287459908438
487,610.454290918439
488,610.6496702340154
489,610.8105753327419
490,610.934397940812
491,611.0202478922971
492,611.0688224423066
493,611.0821540381045
494,611.0632780925366
495,611.0158798457917
496,610.9439861754485
497,610.8517528603273
498,610.743360095207
499,610.6229866241313
500,610.494811376681
501,610.3630002174257
502,610.2316578074256
503,610.1047358507919
504,609.9858847920228
505,609.8782385629692
506,609.7841492994404
507,609.7049269996004
508,609.6406575118657
509,609.5901587341488
510,609.5510998025196
511,609.5202668567694
512,609.4939270850922
513,609.468233673306
514,609.4396265985677
515,609.4051987281035
516,609.3629958020975
517,609.3122064117549
518,609.2531949125201
519,609.187347316345
520,609.1167278856343
521,609.0435772911483
522,608.9697306263039
523,608.896083507905
524,608.8222443542779
525,608.746457637799
526,608.6657987389583
527,608.5765790286259
528,608.4748803998522
529,608.357143327924
530,608.2207364258867
531,608.0644310234287
532,607.8887034498168
533,607.6958086728462
534,607.489617182103
535,607.2752634529952
536,607.0586896221384
537,606.846169950655
538,606.6438787879647
539,606.4575292278666
540,606.2920743548569
541,606.1514451414689
542,606.0383052488328
543,605.9538205437182
544,605.8974576049728
545,605.866841303945
546,605.8577175234053
547,605.8640752423506
548,605.8784714373959
549,605.8925671176424
550,605.8978329697294
551,605.8863424574635
552,605.8515566918835
553,605.7890143469781
554,605.6968530450504
555,605.5760953060062
556,605.4306399995488
557,605.2669258307768
558,605.0932835465861
559,604.9190558026215
560,604.7536121931789
561,604.6054009897133
562,604.4811593484883
563,604.3853672753988
564,604.3199915662584
565,604.2845300038155
566,604.2763377355722
567,604.2911952806109
568,604.3240485517155
569,604.3698115790547
570,604.4240924281986
571,604.4837095744155
572,604.5469187872969
573,604.613350835152
574,604.6837298083883
575,604.7594689956226
576,604.8422251650546
577,604.9334558367657
578,605.0339960118654
579,605.1436734685527
580,605.2610130468747
581,605.3831061871631
582,605.505708559454
583,605.6235770119786
584,605.7309979150189
585,605.8224208140876
586,605.8930998700773
587,605.9396515649374
588,605.9604532224738
589,605.9558311156494
590,605.9280177501339
591,605.8808902622626
592,605.8195284114531
593,605.7496483793174
594,605.6769804885328
595,605.6066669948084
596,605.5427572816565
597,605.487868737436
598,605.4430622154725
599,605.4079496517272
600,605.3810069227646
601,605.3600230616553
602,605.3426036596352
603,605.3266594456602
604,605.3108188124806
605,605.2946963041915
606,605.2789567177913
607,605.2651549002237
608,605.2553840013135
609,605.2518006482868
610,605.256108687043
611,605.2690828651663
612,605.2902027777586
613,605.3174451828854
614,605.3472558166477
615,605.3746980143819
616,605.3937589668972
617,605.3977852048943
618,605.3800099713534
619,605.3341210798213
620,605.2548060381179
621,605.1382105176205
622,604.9822544805256
623,604.7867675919866
624,604.5534421969176
625,604.2856547707706
626,603.9882422340345
627,603.6673038595411
628,603.3300379056058
629,602.9845566718488
630,602.6395983039996
631,602.304087236205
632,601.9865715092425
633,601.6946393400794
634,601.4344439590867
635,601.2104313754187
636,601.0252938125486
637,600.8801001734537
638,600.7745124082871
639,600.7069947163199
640,600.674958946933
641,600.6748452693504
642,600.7021803624626
643,600.7516655789367
644,600.8173304879901
645,600.8927623868436
646,600.9714060358228
647,601.0469246048567
648,601.1136138236349
649,601.166853243157
650,601.2035561939848
651,601.2225514030999
652,601.2248109520168
653,601.2134457856479
654,601.193425102806
655,601.1710316989145
656,601.1531220202212
657,601.1462949854244
658,601.1560829204019
659,601.1862736002632
660,601.2384566750115
661,601.311849937524
662,601.4034096206764
663,601.5081973874456
664,601.6199763404995
665,601.7320028451502
666,601.8379340372829
667,601.932705423554
668,602.0132094386861
669,602.0786491737251
670,602.1305245894546
671,602.1722962862281
672,602.2088381248444
673,602.245808654982
674,602.2890373688601
675,602.3439682346788
676,602.4151699210721
677,602.5059194559481
678,602.6178782433249
679,602.7508937703334
680,602.902971586019
681,603.0704558157947
682,603.2484164005203
683,603.4311779958706
684,603.6128782480056
685,603.7879442274063
686,603.9514196734681
687,604.0991297036486
688,604.2277096938088
689,604.3345493033864
690,604.4177140751642
691,604.4759024740944
692,604.508475056356
693,604.5155607556002
694,604.4982097382318
695,604.4585300884937
696,604.3997282693795
697,604.3259839626119
698,604.242133968581
699,604.1532056005043
700,604.0638983096158
701,603.978133306252
702,603.8987674285011
703,603.8275179559679
704,603.7650906018812
705,603.7114528496144
706,603.6661603715196
707,603.6286449363893
708,603.5984123599719
709,603.5751507934634
710,603.5587738342296
711,603.5494088282301
712,603.547317718653
713,603.5527415707467
714,603.5656926834891
715,603.5857514564846
716,603.6119339312193
717,603.6426773332231
718,603.6759571389567
719,603.7095169547157
720,603.7411735111799
721,603.7691494978899
722,603.792374483588
723,603.8106815751463
724,603.8248359495814
725,603.8363698779334
726,603.847244780471
727,603.8593883093679
728,603.8741677204628
729,603.8918806461079
730,603.9113714836176
731,603.929890143104
732,603.943274853024
733,603.9464656667108
734,603.9342732110689
735,603.9022725514961
736,603.8476745230749
737,603.7700350537415
738,603.671684646019
739,603.5577925292718
740,603.4360263451799
741,603.3158283670307
742,603.2073923174898
743,603.120475331336
744,603.0632102098211
745,603.0410933618006
746,603.0563063332013
747,603.1074709810052
748,603.1898467233225
749,603.2958897384663
750,603.4160469637187
751,603.5396596306344
752,603.6558822467819
753,603.754559062223
754,603.8270228305703
755,603.8667819451215
756,603.8700492819664
757,603.8360586803725
758,603.767127247136
759,603.668452072631
760,603.547666986939
761,603.4142126598376
762,603.2785765186449
763,603.1514428772382
764,603.0427877634597
765,602.960974215309
766,602.9119330485744
767,602.8985242200173
768,602.9201617079048
769,602.9727636565277
770,603.0490668492192
771,603.1393147752701
772,603.2322825734717
773,603.3165422202877
774,603.3818174458623
775,603.4202537993017
776,603.4274395119722
777,603.4030433376402
778,603.3509765129319
779,603.2790380830565
780,603.1980673062706
781,603.1207006876222
782,603.0599024788248
783,603.0274824082381
784,603.0328113272942
785,603.0818939857788
786,603.1768791467591
787,603.3160067025722
788,603.4939290680768
789,603.7023102617818
790,603.9305989671091
791,604.1668823467479
792,604.3987507249215
793,604.6141364430279
794,604.8021173882576
795,604.9536739571224
796,605.0623559679261
797,605.1247828730814
798,605.1408978442329
799,605.113925198734
800,605.0500185713413
801,604.9576197290655
802,604.8465838849233
803,604.72717540596
804,604.6090777540107
805,604.5005628970281
806,604.4079278305948
807,604.3352526439671
808,604.2844793439099
809,604.255757896279
810,604.2479671234523
811,604.259304246551
812,604.2878492238301
813,604.3320409308558
814,604.3910331163838
815,604.4649096210259
816,604.5547325858563
817,604.6623974351547
818,604.7902931755589
819,604.9408117719167
820,605.1157923980074
821,605.3160006147776
822,605.5407226011083
823,605.7875184763999
824,606.0521530372829
825,606.3287158970313
826,606.6099394995998
827,606.8877035445923
828,607.1536854994523
829,607.4001030127995
830,607.6204935797442
831,607.8104610314839
832,607.9682801720003
833,608.0952247678676
834,608.1955083356643
835,608.2758048488986
836,608.3444164944408
837,608.4102364876906
838,608.481689451349
839,608.5658179854539
840,608.6676341844785
841,608.7897844390068
842,608.9325081978712
843,609.0938327735973
844,609.2699432495356
845,609.4556797609536
846,609.6451217595918
847,609.8322154762067
848,610.011393507976
849,610.1781304251622
850,610.3293807360228
851,610.4638585020067
852,610.582135267248
853,610.6865460790501
854,610.7809061122354
855,610.8700634617339
856,610.9593412927536
857,611.0539331809533
858,611.1583039952575
859,611.275638785569
860,611.4073926839328
861,611.5530103388567
862,611.7098742901137
863,611.8735022902629
864,612.0379658165008
865,612.1964682020086
866,612.3420053384082
867,612.4680280240392
868,612.5690295757697
869,612.64099868771
870,612.6817061012949
871,612.6908251490179
872,612.669908839691
873,612.622254418679
874,612.5526788264021
875,612.4672075897926
876,612.3726607331297
877,612.2761248038827
878,612.1843353856619
879,612.1030397480159
880,612.0364377255647
881,611.9867936744257
882,611.9542749053202
883,611.9370224500731
884,611.931419281433
885,611.9324965183808
886,611.9344145996574
887,611.9309769081913
888,611.9161586293643
889,611.8846352585763
890,611.8322745281849
891,611.7565385080653
892,611.6567415963044
893,611.5341192254693
894,611.391678920948
895,611.2338346796494
896,611.0658685484235
897,610.8933098005298
898,610.7213505473741
899,610.5544051667105
900,610.3958685571222
901,610.2480623531136
902,610.1123168240076
903,609.9891357440528
904,609.878410276924
905,609.779651741715
906,609.6921986041369
907,609.6153478496641
908,609.54838410891
909,609.4905209765363
910,609.4408041371446
911,609.3980368811874
912,609.3607663205593
913,609.3273224825067
914,609.2958671790241
915,609.2644158595015
916,609.2308316782731
917,609.192814936838
