frame_number,force
0,606.4855900000549
1,606.5687751690713
2,606.653118913113
3,606.7391365432813
4,606.8261934823399
5,606.9122352693397
6,606.9938029786441
7,607.0663365195619
8,607.1247284651784
9,607.1640517312843
10,607.1803482768564
11,607.1713469165426
12,607.1369890380906
13,607.0796771543388
14,607.0042035838025
15,606.9173542354168
16,606.8272211265813
17,606.7423020209474
18,606.6705110222356
19,606.6182556563881
20,606.5897342291341
21,606.5865635658312
22,606.6077764907072
23,606.6501558771122
24,606.708817110703
25,606.7779202745166
26,606.8513830845778
27,606.9234755238471
28,606.9892171027268
29,607.0445626784522
30,607.0864219244208
31,607.1125879524823
32,607.1216589837137
33,607.1130283873164
34,607.0869783916016
35,607.0448475073003
36,606.9891934564534
37,606.9238679920388
38,606.8539400854578
39,606.7854298137537
40,606.7248514983104
41,606.6786142039937
42,606.6523694758177
43,606.650405997584
44,606.6751726006942
45,606.7269871584781
46,606.8039652850779
47,606.9021698002892
48,607.0159465370127
49,607.1383950207486
50,607.2619257091402
51,607.3788620157071
52,607.4820461017006
53,607.5654044675091
54,607.6244248297833
55,607.6564933031664
56,607.6610475029179
57,607.639518262881
58,607.595055710751
59,607.5320640904114
60,607.4556039931432
61,607.3707502925779
62,607.2820064866063
63,607.1928700044014
64,607.1056234878486
65,607.0213930332375
66,606.9404610599788
67,606.8627561249401
68,606.7883899317833
69,606.7181016823203
70,606.6535102937994
71,606.5971430174437
72,606.5522674544106
73,606.5225822219984
74,606.5118259141569
75,606.5233605299486
76,606.559781152767
77,606.622596015505
78,606.712007112025
79,606.8268017411484
80,606.9643466531704
81,607.1206697396642
82,607.2906233127441
83,607.468138324399
84,607.6465826419782
85,607.8192153075836
86,607.9796887683407
87,608.1225184161797
88,608.2434358488858
89,608.3395698858029
90,608.4094444679365
91,608.4528305293842
92,608.4705227390998
93,608.4641150805506
94,608.4358212673362
95,608.3883462898906
96,608.3247863997701
97,608.2485291138278
98,608.1631385199045
99,608.0722256378481
100,607.979307167722
101,607.8876593918534
102,607.8001891044868
103,607.7193579272152
104,607.6471859925867
105,607.585320379463
106,607.5351070437315
107,607.4975875573915
108,607.4733710925788
109,607.4623956652837
110,607.4636598814087
111,607.4750422348986
112,607.4933077994425
113,607.5143435343266
114,607.5335988127399
115,607.5466598085897
116,607.5498535934266
117,607.5407608324297
118,607.5185304774934
119,607.4839413734537
120,607.4392186686441
121,607.3876532347509
122,607.3330838507276
123,607.2793057581973
124,607.2294816669285
125,607.1856442016398
126,607.1483703433464
127,607.1166717184157
128,607.0880998265956
129,607.0590343938511
130,607.0251039268958
131,606.9816712139445
132,606.9243130908555
133,606.8492460519232
134,606.7536829151469
135,606.6361225614318
136,606.4965657081251
137,606.3366276395238
138,606.1595045465648
139,605.9697612783466
140,605.7729441629831
141,605.5750637470135
142,605.3820229679508
143,605.1990812821252
144,605.0304391284975
145,604.8789966706365
146,604.7462964455851
147,604.6326209552049
148,604.5371979262009
149,604.4584698016166
150,604.3943994375728
151,604.3427951461273
152,604.3016371408345
153,604.2693798201741
154,604.2451986473992
155,604.2291457293248
156,604.2221714743038
157,604.2259709970135
158,604.2426413006435
159,604.2741903893
160,604.3219963687217
161,604.3863386958095
162,604.4661009422362
163,604.5586925611358
164,604.6601904169501
165,604.7656780564795
166,604.8697513192418
167,604.967145498859
168,605.0534190543348
169,605.1256083590839
170,605.1827568864611
171,605.2262313902603
172,605.2597667762412
173,605.2892169587864
174,605.3220207324064
175,605.366419607248
176,605.4304918431715
177,605.5210955615787
178,605.6428432208475
179,605.7972536467755
180,605.9822334940378
181,606.1920132914097
182,606.4175978675197
183,606.6476955102645
184,606.8699906038684
185,607.0725585247092
186,607.245212955266
187,607.3806125712606
188,607.4750083413896
189,607.5285681223563
190,607.5452651632557
191,607.5323598749734
192,607.4995459596776
193,607.4578757060931
194,607.4186124777087
195,607.3921620141803
196,607.3872017919794
197,607.4100743467948
198,607.464461245096
199,607.5513238838855
200,607.6690813730761
201,607.8139843563245
202,607.9806348515963
203,608.1625971783141
204,608.3530386140574
205,608.5453293530346
206,608.7335334368238
207,608.9127475429673
208,609.0792823379451
209,609.2307108057219
210,609.3658206271149
211,609.4845048945652
212,609.5876139038926
213,609.6767840467517
214,609.754265138101
215,609.822773131328
216,609.885386886394
217,609.9454855584602
218,610.0066950265705
219,610.0727889209182
220,610.147490972067
221,610.2341623948839
222,610.3354134447188
223,610.4527157644113
224,610.5860941093605
225,610.7339561158574
226,610.8930961700877
227,611.0588897568208
228,611.2256751398412
229,611.3872961538059
230,611.5377495473895
231,611.6718439603284
232,611.7857524379529
233,611.8773529368814
234,611.9463042984974
235,611.9938655519317
236,612.0225030760184
237,612.0353453348223
238,612.0355545461579
239,612.0256923387034
240,612.0071612182481
241,611.9798099370653
242,611.9417941625237
243,611.8897634010557
244,611.8193879187934
245,611.7261616379074
246,611.6063481568729
247,611.4578945651822
248,611.28113121744
249,611.0791163105313
250,610.8575672701523
251,610.6244134291223
252,610.3890698070996
253,610.1615600841677
254,609.9516194002039
255,609.7678952014077
256,609.6173411592079
257,609.5048635511823
258,609.4332266317699
259,609.4031626265522
260,609.4135928531242
261,609.4618725979682
262,609.5440164621349
263,609.6549112689628
264,609.788546256647
265,609.938273609628
266,610.0970803826498
267,610.2578416243314
268,610.4135427450161
269,610.5574846480667
270,610.6834939271738
271,610.7861458361615
272,610.8609811667061
273,610.9046824024018
274,610.9151850154933
275,610.8917267443069
276,610.8348563407932
277,610.7464223074247
278,610.6295502196339
279,610.4886034687273
280,610.3291071469961
281,610.1576002749243
282,609.98137486426
283,609.808069432538
284,609.6451171598485
285,609.4991027442377
286,609.3751327148044
287,609.2763397623954
288,609.2036134036456
289,609.1555940532287
290,609.1289103776243
291,609.118600578028
292,609.1186461550643
293,609.1225587001575
294,609.1239827854747
295,609.1172904122818
296,609.0981322134194
297,609.0638911847981
298,609.0139833029929
299,608.9499726241214
300,608.8754935445935
301,608.7959779185073
302,608.7181801550389
303,608.6495106700579
304,608.5972349652282
305,608.5676415331337
306,608.5652960671864
307,608.5924843012791
308,608.6489199843675
309,608.7317643479292
310,608.8359629497558
311,608.9548561971142
312,609.0809774018229
313,609.2069290642842
314,609.3262156925088
315,609.4339028736931
316,609.5269857438083
317,609.6044023500781
318,609.6667039016679
319,609.715467872905
320,609.7525965987777
321,609.7796700415046
322,609.7975009469696
323,609.8059755064214
324,609.804180664537
325,609.7907553543444
326,609.7643755129222
327,609.7242837076241
328,609.67077769425
329,609.6055617265072
330,609.531859419307
331,609.4542260252356
332,609.3780860853736
333,609.3091139023867
334,609.252614562028
335,609.2130320841029
336,609.1936298790125
337,609.1963047655846
338,609.2214575241916
339,609.2678675445061
340,609.3325847490296
341,609.4109178919779
342,609.4966233484898
343,609.5823577952452
344,609.6603680673811
345,609.7233045245152
346,609.7650044972083
347,609.7811087119081
348,609.7694308334867
349,609.7300702680052
350,609.6653084863719
351,609.5793435113908
352,609.4779066936919
353,609.3677907385858
354,609.2563100171695
355,609.1507167773937
356,609.0576100827261
357,608.9823935200964
358,608.9288488995936
359,608.8988793728435
360,608.8924343819939
361,608.9075813995499
362,608.9406649630192
363,608.9865048117952
364,609.0386192570712
365,609.089494773969
366,609.1309410746218
367,609.1545619281238
368,609.1523357905894
369,609.1172565641161
370,609.0439624474221
371,608.9292889738414
372,608.7726996342809
373,608.5765491141811
374,608.3461228382572
375,608.089399059715
376,607.816516179201
377,607.5389886265162
378,607.2687690310777
379,607.0172787741661
380,606.7945182748076
381,606.6083319187823
382,606.4638613531191
383,606.363197008148
384,606.3052377609604
385,606.2857812603895
386,606.2978727863368
387,606.3324241828914
388,606.3790785199703
389,606.4272506743868
390,606.4672241235863
391,606.4911428583995
392,606.493733586181
393,606.4726450234099
394,606.4283815995676
395,606.3639027305072
396,606.2840221453529
397,606.1947518464448
398,606.102692120076
399,606.0144993697256
400,605.9364066163481
401,605.8737567208943
402,605.830537597926
403,605.808957005205
404,605.8091302926695
405,605.8289578419859
406,605.8642406271423
407,605.9090427710731
408,605.9562771771828
409,605.9984602290222
410,606.0285471889516
411,606.0407366910748
412,606.0311396016806
413,605.9982368363136
414,605.9430802771112
415,605.8692146389592
416,605.782325248395
417,605.6896510917234
418,605.5992377854925
419,605.5191296182734
420,605.4565990221575
421,605.4174826709594
422,605.4056573061306
423,605.4226718586189
424,605.4675575048166
425,605.5368461215496
426,605.6248267979141
427,605.724053952406
428,605.8260825146247
429,605.9223499540526
430,606.0050807192783
431,606.0680875533708
432,606.107386042811
433,606.121590441248
434,606.1120854517126
435,606.0829635856063
436,606.0407037941742
437,605.993574524515
438,605.9507888957245
439,605.9215107638262
440,605.9138710974659
441,605.9341620599162
442,605.9863207691902
443,606.0717311920289
444,606.1893093854676
445,606.3358133920779
446,606.506323089361
447,606.6948473500246
448,606.8950144408542
449,607.10077326844
450,607.3069969744644
451,607.5098792236416
452,607.7070628183315
453,607.8975062533639
454,608.0811359523523
455,608.258350655226
456,608.4294686609433
457,608.5942433612641
458,608.7515833455456
459,608.8995707049879
460,609.0357882042572
461,609.1578784399218
462,609.2641889289148
463,609.3543218915885
464,609.4294278247703
465,609.4921613873198
466,609.5463218792465
467,609.596281760821
468,609.6463430951468
469,609.7001596747481
470,609.7603346539008
471,609.8282539623297
472,609.904150422257
473,609.9873352933749
474,610.0765077380269
475,610.1700573836599
476,610.2662935050985
477,610.3635615994184
478,610.4602481489136
479,610.5547175277804
480,610.6452501715818
481,610.7300449675619
482,610.8073131321312
483,610.8754398385398
484,610.9331500761181
485,610.979612268048
486,611.0144445971141
487,611.0376265989297
488,611.0493440038875
489,611.0498108681697
490,611.0391203609586
491,611.0171666092527
492,610.9836591937167
493,610.9382345054361
494,610.8806541819588
495,610.8110563958061
496,610.7301943185154
497,610.6395832557376
498,610.541501870644
499,610.4388419539182
500,610.3348427497822
501,610.2327581010063
502,610.1354976202784
503,610.0452825362547
504,609.9633729115017
505,609.8899383860982
506,609.8241314204721
507,609.7643703834028
508,609.7087707596605
509,609.6556101703084
510,609.6036978420868
511,609.5525425150188
512,609.5022652147421
513,609.4532743640664
514,609.4057965185315
515,609.3594135122256
516,609.3127686053422
517,609.263557014107
518,609.2088282742302
519,609.1455419550092
520,609.071266112096
521,608.9848877983233
522,608.8872024600399
523,608.7812644916289
524,608.6724212132885
525,608.5680072881237
526,608.4767236131918
527,608.407753508154
528,608.3696921914395
529,608.3694000784021
530,608.4109326171732
531,608.4947256916969
532,608.6172025084072
533,608.7709050912431
534,608.9451530444604
535,609.1271296573751
536,609.3032271324842
537,609.4604604683517
538,609.5877714322655
539,609.6770721117771
540,609.7239140966977
541,609.7277190931896
542,609.6915688003055
543,609.6216118619116
544,609.526192099063
545,609.414831590178
546,609.2972087031607
547,609.1822517627155
548,609.0774335433708
549,608.9883128779517
550,608.9183308243241
551,608.8688329802154
552,608.8392674715229
553,608.8275042263508
554,608.8302224247816
555,608.8433101818049
556,608.8622250026534
557,608.8822842936019
558,608.8988793482266
559,608.9076215984624
560,608.9044420205985
561,608.8856774627908
562,608.8481822210701
563,608.7894900550606
564,608.708021098865
565,608.6032923832453
566,608.4760717307943
567,608.3284257262236
568,608.1636463623593
569,607.9860816152056
570,607.800925563453
571,607.6140218667649
572,607.4316870739054
573,607.2604938978736
574,607.1069299002481
575,606.9768976518328
576,606.8751130829129
577,606.8045233230057
578,606.7658736752096
579,606.7575210247464
580,606.7755403055272
581,606.814109831872
582,606.8660992358439
583,606.9237446429564
584,606.9793028885172
585,607.0256230903399
586,607.0566249698466
587,607.0676991741574
588,607.0560397236264
589,607.0208936341729
590,606.9636857737079
591,606.8879684377667
592,606.7991644168151
593,606.7041051134141
594,606.6103905192308
595,606.5256180620803
596,606.4565598626519
597,606.4084081948372
598,606.3842254993649
599,606.3847035796359
600,606.4082630650591
601,606.4514396093175
602,606.5094418121229
603,606.5767464860531
604,606.6476167323342
605,606.7164730071764
606,606.7781052246729
607,606.827773817614
608,606.8612882353874
609,606.8751487200133
610,606.8667904233934
611,606.8349065093636
612,606.7797790437915
613,606.703523744958
614,606.6101615212661
615,606.505472609058
616,606.3966536239984
617,606.2918454774623
618,606.1996066201303
619,606.1283841062171
620,606.0860104088574
621,606.0792375185521
622,606.1133090848492
623,606.1915654900776
624,606.3150814293018
625,606.4823574876325
626,606.6891231433766
627,606.9283370386073
628,607.1904645201238
629,607.4640672641073
630,607.7366753674662
631,607.9958519822815
632,608.2303174831201
633,608.4309808247442
634,608.5917338309702
635,608.7098999076233
636,608.786287600052
637,608.824868017739
638,608.8321513724354
639,608.816367055713
640,608.7865602791138
641,608.7517175435868
642,608.7200164073436
643,608.6982546945325
644,608.6914690055559
645,608.702727750138
646,608.7330818003212
647,608.7816623397395
648,608.8459195034267
649,608.9219900860617
650,609.0051673313077
651,609.0904301529564
652,609.1729827781056
653,609.2487563045456
654,609.3148210685999
655,609.3696519425022
656,609.4131939391089
657,609.4467110855056
658,609.4724599171326
659,609.4932754637491
660,609.5121638534929
661,609.5319623141053
662,609.5550744987362
663,609.583244097194
664,609.6173211776172
665,609.6570132972802
666,609.7006702959375
667,609.7451836443881
668,609.786067621309
669,609.8177479328006
670,609.8340437384837
671,609.828803987356
672,609.7966416537356
673,609.7336913462399
674,609.6382986775152
675,609.5115433734793
676,609.3575105130582
677,609.1832547734751
678,608.9984407467779
679,608.814677456194
680,608.6445945505712
681,608.5007334788972
682,608.3943511862203
683,608.3342583235662
684,608.3258340122176
685,608.3703563508745
686,608.4647435029283
687,608.6017258796741
688,608.7704082501049
689,608.9571580621663
690,609.146750668556
691,609.3236788192487
692,609.473498574425
693,609.5840726706637
694,609.6465957978372
695,609.6563183385092
696,609.6129095769074
697,609.5204295013198
698,609.386918839894
699,609.2236609951071
700,609.0442014666904
701,608.8632188243024
702,608.6953317810566
703,608.5539196950887
704,608.450037461643
705,608.391508546067
706,608.3822736266935
707,608.4220629191686
708,608.5064493401707
709,608.6273141922742
710,608.7737056329431
711,608.9330008627225
712,609.0922226353399
713,609.2393386161777
714,609.3643954497996
715,609.4603849502483
716,609.5237794897025
717,609.5547016090593
718,609.556720791974
719,609.5363066322577
720,609.5020081935006
721,609.4634638572983
722,609.4303651945708
723,609.4114938413885
724,609.4139185901029
725,609.4423952401801
726,609.4989816739001
727,609.5828771710097
728,609.6904990871844
729,609.8157961670652
730,609.9507674920993
731,610.0861333454397
732,610.212101181395
733,610.3191715002426
734,610.3989164969485
735,610.4446461996379
736,610.4518789682264
737,610.4185681932336
738,610.3450882859145
739,610.2340245694071
740,610.0898310365138
741,609.9184187724311
742,609.7267241920256
743,609.522292191142
744,609.3129018949596
745,609.1062562082687
746,608.909743509301
747,608.7302616619468
748,608.5740756352694
749,608.4466673888292
750,608.3525403794653
751,608.2949623848202
752,608.2756593023845
753,608.2945043042982
754,608.3492791403319
755,608.4355989154296
756,608.5470674941774
757,608.6756778981407
758,608.8124243084353
759,608.9480675994612
760,609.0739823074817
761,609.1829929121237
762,609.2700885941522
763,609.3329098539
764,609.3719349734088
765,609.3903460993183
766,609.3936016682271
767,609.3887684395082
768,609.3836784269693
769,609.3859929963036
770,609.4022820012372
771,609.4372408890924
772,609.4931556748957
773,609.5696861810142
774,609.6639858631926
775,609.7711245469218
776,609.8847355091161
777,609.9977779789874
778,610.1033017683669
779,610.1951242065011
780,610.2683619013261
781,610.3197810572682
782,610.347940582231
783,610.3531140889799
784,610.3370006708284
785,610.3022749240155
786,610.2520726481636
787,610.1895314870455
788,610.1174837222305
789,610.0383374776104
790,609.9541146419599
791,609.866576056703
792,609.7773700251578
793,609.6881659853597
794,609.600748288638
795,609.517040031344
796,609.4390285144984
797,609.368591702752
798,609.3072670704722
799,609.256032848374
800,609.2151716480688
801,609.1842574716401
802,609.162259157751
803,609.1477098346629
804,609.1388784401621
805,609.1339010620592
806,609.1308690622861
807,609.1279044326196
808,609.1232665751065
809,609.1155231495923
810,609.1037807484835
811,609.0879237217739
812,609.0687793898991
813,609.0481317059862
814,609.0285379254724
815,609.0129526505971
816,609.0042206826878
817,609.004547541907
818,609.0150747519713
819,609.0356685635908
820,609.0649794856207
821,609.1007550000652
822,609.1403121662806
823,609.1810356218397
824,609.220779592748
825,609.2581055833307
826,609.2923477865876
827,609.3235422335076
828,609.3522761054064
829,609.3795124966608
830,609.4064304300463
831,609.4342992984749
832,609.46438544813
833,609.4978682122444
834,609.5357328683563
835,609.5786197799537
836,609.6266390424737
837,609.6791920921303
838,609.734859322516
839,609.7914060483021
840,609.8459320723782
841,609.8951593638931
842,609.9358291647505
843,609.9651575336666
844,609.9812703448263
845,609.9835212886242
846,609.9726132020966
847,609.9504923681083
848,609.9200427649085
849,609.884652149924
850,609.8477452326811
851,609.8123787404764
852,609.7809724235916
853,609.7552117736221
854,609.7361065340484
855,609.7241441142314
856,609.7194638822953
857,609.7219961989294
858,609.7315358064841
859,609.7477390248451
860,609.7700535516932
861,609.7976162490869
862,609.8291807749332
863,609.8631411297824
864,609.8976862760542
865,609.9310730990815
866,609.9619687998378
867,609.9897914158619
868,610.0149564292323
869,610.038932209265
870,610.0640455316599
871,610.0930550938368
872,610.1285817416885
873,610.1725108868775
874,610.2254687383971
875,610.2864526183005
876,610.352685844855
877,610.4197526504787
878,610.4820232198651
879,610.5333072817606
880,610.567608958149
881,610.5798260208232
882,610.5662541092051
883,610.5248152673166
884,610.455012389873
885,610.357688528245
886,610.234714504159
887,610.0887258290467
888,609.9229849981101
889,609.7413767512454
890,609.5484782596275
891,609.3496083717132
892,609.1507621316514
893,608.9583734888135
894,608.7789062519405
895,608.6183329646411
896,608.4815998641504
897,608.3721752910818
898,608.2917447162159
899,608.2400751713246
900,608.2150482095958
901,608.2128523096558
902,608.2283170025148
903,608.2553549253862
904,608.2874613979321
905,608.3182137662825
906,608.3417214807569
907,608.3530044606656
908,608.3483110244928
909,608.3254018328051
910,608.283802428873
911,608.2249787789057
912,608.1523616270621
913,608.071160048197
914,607.9879415452257
915,607.9099902002579
916,607.8444901363619
917,607.7976281101409
