frame_number,force
0,508.7759100000236
1,508.6458842185004
2,508.5199291540525
3,508.4017153587617
4,508.294158294756
5,508.19914952746217
6,508.11739697964043
7,508.04836951897965
8,507.9903244922049
9,507.9404027582641
10,507.8947937534057
11,507.8489896474199
12,507.7981563721335
13,507.73763804494706
14,507.6635681232572
15,507.57350097921255
16,507.46694026488916
17,507.3456471523583
18,507.21365056785504
19,507.07693564006354
20,506.9428482878538
21,506.8193071142602
22,506.71393670127594
23,506.63323054076034
24,506.5818376117457
25,506.56205241290735
26,506.57356782494907
27,506.61351923684936
28,506.6768081211501
29,506.75664854324907
30,506.84524121296425
31,506.9344607550688
32,507.01645393796395
33,507.08408873808946
34,507.1312500681701
35,507.15302314556305
36,507.1458217965635
37,507.1075085242708
38,507.03753147449146
39,506.9370778291
40,506.80921212511225
41,506.65894071961503
42,506.49313874267557
43,506.3203000654019
44,506.1501097672148
45,505.9928683415101
46,505.85880505195604
47,505.7573154115665
48,505.69616449552564
49,505.68071987790745
50,505.7133040285414
51,505.79276867973533
52,505.9143822290874
53,506.07008348559566
54,506.2490930359008
55,506.4388024811638
56,506.62581676608795
57,506.79703202898327
58,506.9406749350268
59,507.0472654336048
60,507.1104656786381
61,507.1277502608796
62,507.1008037543351
63,507.0355507671542
64,506.9417663031748
65,506.83228328354767
66,506.7218743780189
67,506.6259191539124
68,506.55898211567256
69,506.5334339371558
70,506.55825104886384
71,506.638123742325
72,506.77297898666984
73,506.9579722680183
74,507.18393121257196
75,507.43817063393993
76,507.70557210414916
77,507.96983075100906
78,508.21478569367775
79,508.42574035451895
80,508.59065319012626
81,508.7010688723206
82,508.7526812527414
83,508.74546739171524
84,508.68339674782607
85,508.57378819636614
86,508.42643274631985
87,508.2525990507412
88,508.0640087254737
89,507.8718525792344
90,507.68593127878
91,507.51401203319807
92,507.3614636618691
93,507.2311736003577
94,507.1236961518315
95,507.0375562122524
96,506.96963979322305
97,506.9156298020919
98,506.8704696063097
99,506.82883718558975
100,506.7855940908939
101,506.7361636237206
102,506.6768086619444
103,506.604809580087
104,506.51856384927714
105,506.41762946859484
106,506.30271560532276
107,506.1755982109465
108,506.03893025577526
109,505.89594156980496
110,505.7500659218287
111,505.6045588744999
112,505.46216470556817
113,505.32486977371946
114,505.1937636964048
115,505.0690226605496
116,504.9500233177257
117,504.8355840279127
118,504.7243090921902
119,504.6149816879532
120,504.50692379083415
121,504.4002377799711
122,504.2958778017867
123,504.1955544441427
124,504.1015195986192
125,504.01628993018284
126,503.942358386082
127,503.8819343513047
128,503.8367492639573
129,503.8079565541399
130,503.7961336364492
131,503.80135737221747
132,503.823285027369
133,503.86115976394944
134,503.9136967428982
135,503.97887876498737
136,504.05375315685717
137,504.1343384711316
138,504.2157216276402
139,504.2923768771826
140,504.35868425475286
141,504.4095742869776
142,504.44119137887014
143,504.4514649586574
144,504.4404979585403
145,504.41070476409584
146,504.3666513920142
147,504.31458772691275
148,504.2617219748691
149,504.2153456077396
150,504.18194108589296
151,504.16639216077044
152,504.17138967393026
153,504.1970999974448
154,504.2411390748882
155,504.2988689926262
156,504.36399947449087
157,504.42942516799326
158,504.4881691902456
159,504.53426620383686
160,504.5634341649523
161,504.573448813193
162,504.56421147721215
163,504.5375511578854
164,504.49682106394215
165,504.44636030730845
166,504.3909043664557
167,504.3350281090356
168,504.2826846114681
169,504.2368769153138
170,504.1994781038733
171,504.17119492861355
172,504.1516571002611
173,504.1396116279895
174,504.1331943429891
175,504.1302316324571
176,504.12851403125853
177,504.1259989689006
178,504.1209361470621
179,504.11194358997085
180,504.0980747731042
181,504.0788971665756
182,504.0545611728133
183,504.0258071501606
184,503.9938621121866
185,503.96021328175476
186,503.9262880002353
187,503.8930963015628
188,503.86090286407017
189,503.82900124610205
190,503.7956620699246
191,503.7582998417049
192,503.71385095376166
193,503.65930551074536
194,503.5923109715487
195,503.51176258080386
196,503.4182968717341
197,503.3146060962842
198,503.2055052957495
199,503.09771509505634
200,502.99936340132103
201,502.91925038700714
202,502.8659586432448
203,502.8469136527572
204,502.86750123663643
205,502.9303356637708
206,503.0347581147598
207,503.17663345192
208,503.34849445326535
209,503.5400460627846
210,503.73898834771506
211,503.9320627031951
212,504.10619486365715
213,504.2496114575146
214,504.3528342977363
215,504.40948505636874
216,504.4168432001935
217,504.37609665520944
218,504.2922346455501
219,504.1735737119203
220,504.0309662252931
221,503.8767829355275
222,503.72377035388774
223,503.5838727835315
224,503.46710338597137
225,503.3805621335783
226,503.32771971290197
227,503.3080864858918
228,503.3173411512549
229,503.34791459192
230,503.3899493376114
231,503.43251021372436
232,503.46489909910304
233,503.4779118202844
234,503.46487314468493
235,503.4223109495817
236,503.3501872609217
237,503.2516808558131
238,503.1325927721512
239,503.000502396285
240,502.8638243523667
241,502.7309019559867
242,502.6092337749832
243,502.50488656716385
244,502.4221141423174
245,502.36318025884293
246,502.328371501766
247,502.3161782894416
248,502.3236150113625
249,502.3466433728862
250,502.3806581195929
251,502.4209896332423
252,502.46336632804616
253,502.5042642322077
254,502.5410749127004
255,502.5720644841399
256,502.5961595614048
257,502.6126449242939
258,502.6208739020689
259,502.62007902486107
260,502.60933542992393
261,502.58768513120043
262,502.5543914110516
263,502.5092633060878
264,502.4529683901058
265,502.38724719114674
266,502.314967333736
267,502.24000318150087
268,502.16697267350213
269,502.1008855945225
270,502.04675125969277
271,502.00917047780615
272,501.9919202710823
273,501.9975488803393
274,502.0270277117752
275,502.0795281099923
276,502.1523817845802
277,502.24124989374036
278,502.34048867868455
279,502.44367355126644
280,502.5442299812624
281,502.6361102776235
282,502.7144414365888
283,502.77605396243257
284,502.81979939763306
285,502.84658408513303
286,502.8590876868675
287,502.86119567646574
288,502.8572458026767
289,502.85124106943965
290,502.84618792341075
291,502.8436751708692
292,502.84373688508026
293,502.8449711361584
294,502.8448438989904
295,502.8401031459035
296,502.82724462052005
297,502.80298152075545
298,502.76466438051324
299,502.71058929448526
300,502.64014690825724
301,502.55380752716036
302,502.452985720062
303,502.3398498284653
304,502.21713123922086
305,502.0879659121165
306,501.9557867600245
307,501.8242776098762
308,501.69738133780254
309,501.57932358690204
310,501.47458915069774
311,501.3877909850486
312,501.3234014729007
313,501.2853573839908
314,501.27659047669357
315,501.29856421124083
316,501.35090511950125
317,501.4312043239489
318,501.5350363141458
319,501.65620665629336
320,501.78720992016014
321,501.91986196654534
322,502.0460595556023
323,502.15860003118513
324,502.2519624590439
325,502.3229283037362
326,502.3709306966463
327,502.39807313956356
328,502.40882772492955
329,502.40947538490985
330,502.407370350816
331,502.4101100738174
332,502.4246913701811
333,502.45673900684443
334,502.5098927264005
335,502.5854213821963
336,502.68210087888457
337,502.79635912335175
338,502.92266680877714
339,503.0541387049638
340,503.18329668657583
341,503.3029190285229
342,503.40686518500644
343,503.4907531420128
344,503.55239903559607
345,503.59198548686095
346,503.61196992396515
347,503.6167640509826
348,503.6122177530837
349,503.6049382315732
350,503.60148772789273
351,503.60754152072474
352,503.6271296414411
353,503.6620928362375
354,503.71184295856455
355,503.77345055198174
356,503.8420180188523
357,503.9112559736982
358,503.9741674718874
359,504.0237520002814
360,504.05366148332376
361,504.05877282475547
362,504.0356745133425
363,503.98307066790767
364,503.90207034419524
365,503.79628120950355
366,503.6716119402298
367,503.53572622289636
368,503.39716608456445
369,503.26424719472783
370,503.1439038370554
371,503.04070470527955
372,502.9562468572389
373,502.88905508915764
374,502.8349931241979
375,502.7880769062549
376,502.7415044651332
377,502.68869562594887
378,502.62416739825613
379,502.5441431707708
380,502.44687736340205
381,502.3327364666894
382,502.2040910721179
383,502.0650547329344
384,501.92109281073925
385,501.7785415595556
386,501.64410626569037
387,501.5244093619175
388,501.4256222349048
389,501.353161745736
390,501.31139885543286
391,501.30333063131326
392,501.33020346517554
393,501.3911278460394
394,501.48277646176774
395,501.5992881404861
396,501.7324901839031
397,501.8724950629364
398,502.0086364348058
399,502.1306109253859
400,502.229625731212
401,502.2993464848937
402,502.33648595994873
403,502.3409449006804
404,502.3155004284395
405,502.2651304409388
406,502.1961409894759
407,502.1152967764854
408,502.02913083736564
409,501.94353710385
410,501.86364858754325
411,501.7939109714057
412,501.7382227201879
413,501.70004205567335
414,501.68241977279837
415,501.68795647122306
416,501.7186915218391
417,501.77592992160345
418,501.86002409144737
419,501.97015250242083
420,502.1041580453766
421,502.2585078394682
422,502.4284101213351
423,502.6080833065983
424,502.79113312231465
425,502.97097494343865
426,503.1412498690693
427,503.29621013351596
428,503.4310650414678
429,503.54227281156557
430,503.62775124892903
431,503.6869782007547
432,503.72096406021836
433,503.73209856706876
434,503.7238989570172
435,503.7007065644421
436,503.667379186009
437,503.62900467833055
438,503.5906360314385
439,503.5570400768331
440,503.5324627822349
441,503.52042787482276
442,503.52358643964953
443,503.5436215702935
444,503.5811977459027
445,503.63594757984436
446,503.7065122032795
447,503.79067165334624
448,503.88558670953097
449,503.98812421153866
450,504.0951940915399
451,504.2040280008997
452,504.31237347738926
453,504.4186201157308
454,504.52187627098624
455,504.6219849947204
456,504.71945123744666
457,504.8152728537668
458,504.9106987559314
459,505.00694494482525
460,505.1048905738152
461,505.2047790115655
462,505.30596738858236
463,505.40678423384026
464,505.5045517094751
465,505.59580192627544
466,505.6766735731711
467,505.74343318732895
468,505.79304108781736
469,505.8236756990874
470,505.8351311674523
471,505.82901231547345
472,505.80868259123173
473,505.7789777676459
474,505.7457551803932
475,505.7153700793945
476,505.6941474327434
477,505.6878770130167
478,505.70134132052294
479,505.7379010516031
480,505.7991865411946
481,505.88494865783906
482,505.99310262655416
483,506.11995929908863
484,506.2605951974615
485,506.4092887273966
486,506.55995800610026
487,506.70656367573844
488,506.8434642320305
489,506.96571448867627
490,507.0692808161195
491,507.15113555358755
492,507.2092158715975
493,507.2422808048847
494,507.2497337656587
495,507.23147181513883
496,507.18778803320464
497,507.11931500826665
498,507.0269752199564
499,506.91190546600365
500,506.77534752740627
501,506.61853941768896
502,506.4426780367889
503,506.249022231364
504,506.03915514251855
505,505.81535404530126
506,505.5809637680062
507,505.3406542216409
508,505.10045720560004
509,504.8675123387037
510,504.6495091294939
511,504.453894448083
512,504.2869966706235
513,504.15325263429895
514,504.05469021594087
515,503.99074524404165
516,503.95841702628985
517,503.95270961787134
518,503.9672687154389
519,503.9951099202068
520,504.0293417810466
521,504.06380714079944
522,504.0935882836511
523,504.1153413068026
524,504.12744712162305
525,504.1299905006644
526,504.1245932257908
527,504.1141272475034
528,504.1023318377584
529,504.09336597129777
530,504.0913345244038
531,504.09982399282853
532,504.12147836005715
533,504.157650510016
534,504.2081764083629
535,504.2713238996661
536,504.34395000612693
537,504.4218542045095
538,504.5002574039782
539,504.57430343872585
540,504.6394952514344
541,504.69202836480036
542,504.7290339460625
543,504.74876357162583
544,504.750730992094
545,504.7357909684424
546,504.70611362934164
547,504.6650244246924
548,504.6167125401565
549,504.56583597937856
550,504.51705731715225
551,504.47454198041373
552,504.44145576695087
553,504.41951351028814
554,504.4086490380853
555,504.40688563330616
556,504.4104732050101
557,504.41431459765454
558,504.4126343223319
559,504.3997766508415
560,504.3709936694334
561,504.3231070701625
562,504.25496940350814
563,504.16767894476857
564,504.06451979284753
565,503.9506278416123
566,503.83243148833515
567,503.71696530463066
568,503.6111765558633
569,503.52132307198235
570,503.45250928711056
571,503.40835664852244
572,503.3907815312609
573,503.39986480369805
574,503.4338273749742
575,503.48914877592927
576,503.56086188546254
577,503.6430260212672
578,503.7293354791285
579,503.8137810883454
580,503.8912702330785
581,503.9581306020464
582,504.0124541597643
583,504.0542617160273
584,504.0854875462603
585,504.109803078272
586,504.13231025760814
587,504.1591303797758
588,504.19690045407543
589,504.2521846798853
590,504.33082378561045
591,504.4372718064049
592,504.5739930721474
593,504.7410057900215
594,504.93566071501795
595,505.15272369469596
596,505.3847808965606
597,505.6229161343983
598,505.8575475187318
599,506.07928032888105
600,506.2796450828007
601,506.4516388933052
602,506.5900550098361
603,506.69164088671323
604,506.7551451975656
605,506.78129774918017
606,506.77273278740756
607,506.7338395290082
608,506.6705212268687
609,506.58986446423313
610,506.49973817740175
611,506.40833839444275
612,506.32368810617174
613,506.2531178931296
614,506.2027833539827
615,506.1772887304503
616,506.179465997589
617,506.2103197051771
618,506.2691188955212
619,506.35360790848375
620,506.4603026183458
621,506.58483075375256
622,506.72227969604063
623,506.8675405430568
624,507.01566119367726
625,507.1622137348442
626,507.30364373872766
627,507.4375363197961
628,507.5627360944208
629,507.67929283532925
630,507.78824877070707
631,507.8913175659623
632,507.99051994855097
633,508.08783716997027
634,508.1849298326093
635,508.2829550206836
636,508.3824969856441
637,508.4835968219098
638,508.5858304515216
639,508.688369759742
640,508.7899904930961
641,508.88904707835843
642,508.98347761162734
643,509.0709042857382
644,509.14886094920297
645,509.21513458665817
646,509.26817104583694
647,509.307471935952
648,509.3338947439174
649,509.34976542002545
650,509.3587382715966
651,509.3653954086629
652,509.3746416056476
653,509.39099390176733
654,509.4178849339742
655,509.4570967071485
656,509.50841549433954
657,509.5695584353127
658,509.63638295124946
659,509.703353358758
660,509.76420310179867
661,509.8127027878187
662,509.8434303533665
663,509.85243946307827
664,509.83773536419864
665,509.7994952958405
666,509.7400095713637
667,509.6633617577694
668,509.5749030657959
669,509.4805984433015
670,509.38632797497166
671,509.2972246557525
672,509.2171258370426
673,509.1482071842979
674,509.09084385046634
675,509.0437040074945
676,509.00404494517784
677,508.9681662599147
678,508.9319641267965
679,508.8915081418068
680,508.8435446206859
681,508.78584976245077
682,508.71740968981084
683,508.63845019666053
684,508.5503460986461
685,508.455421670013
686,508.35664634175384
687,508.257253084759
688,508.16034692075016
689,508.0685939253095
690,507.9840616520216
691,507.9082296265673
692,507.84214058571195
693,507.7866419150528
694,507.74265895472666
695,507.71142831182664
696,507.6946059507233
697,507.6941760045362
698,507.7121401324901
699,507.75005395108707
700,507.8085531770279
701,507.8870291843602
702,507.9835607578358
703,508.09511849059953
704,508.217972046377
705,508.34817433000785
706,508.4819861063997
707,508.61614658016015
708,508.7479736497895
709,508.87535089777464
710,508.9966847287686
711,509.11088380343557
712,509.2173576258561
713,509.3160003027289
714,509.4071347935195
715,509.4914169422728
716,509.56970934748756
717,509.6429342295361
718,509.7119214693896
719,509.77728573824817
720,509.83937087674036
721,509.89827210305344
722,509.9539048900098
723,510.00606868321154
724,510.0544688570698
725,510.09869642782144
726,510.13819467756014
727,510.1722460858564
728,510.199994633142
729,510.220496043916
730,510.23277284209377
731,510.23584243168347
732,510.2286949716881
733,510.2102360818072
734,510.1792583042093
735,510.13451998484015
736,510.07496732243004
737,510.0000575063215
738,509.9100769382112
739,509.80633510140694
740,509.6911537943651
741,509.5676391021349
742,509.4392909394008
743,509.309550645215
744,509.18139742123196
745,509.0570755937044
746,508.9379793854696
747,508.8246672871461
748,508.71694816436735
749,508.61398524418286
750,508.51439771445456
751,508.4163817786805
752,508.3178925237461
753,508.2169078706186
754,508.1117464638685
755,508.00136304249116
756,507.885529970296
757,507.76484307717806
758,507.64054700686165
759,507.51423326939664
760,507.3875025909967
761,507.2616924279957
762,507.1377507135941
763,507.01629063933854
764,506.89779723051385
765,506.78289817356955
766,506.6725840320533
767,506.5682774495082
768,506.4717068565396
769,506.3846222935318
770,506.3084594223334
771,506.2440711802381
772,506.19160074231996
773,506.1504997135699
774,506.1196415407121
775,506.097461740247
776,506.08207425259945
777,506.0713526038477
778,506.0630012529478
779,506.0546572228605
780,506.0440493770575
781,506.0292082890187
782,506.0086826018788
783,505.98170620633175
784,505.9482854869886
785,505.9092145101045
786,505.86604524613995
787,505.8210291096767
788,505.77701874145896
789,505.73729553110866
790,505.7052876585629
791,505.6841746464396
792,505.6764231388801
793,505.6833351973098
794,505.70470192047406
795,505.7386481787857
796,505.7817281272522
797,505.82928043201076
798,505.8759880813061
799,505.91653364765807
800,505.94621692330327
801,505.9614199650147
802,505.9598594812761
803,505.94062813453644
804,505.9040605909886
805,505.8514619285974
806,505.78473195177327
807,505.70593337160926
808,505.6168762070059
809,505.51879745187216
810,505.4121960027054
811,505.29685392748615
812,505.1720449221422
813,505.03689260706835
814,504.8907993043656
815,504.73384432908495
816,504.56706678284615
817,504.39259086399875
818,504.2135988046817
819,504.0341890128225
820,503.8591606563583
821,503.6937426676123
822,503.54326075128927
823,503.41273292772104
824,503.30640056496526
825,503.22723063807683
826,503.1764650521506
827,503.1533263406921
828,503.15497978077644
829,503.17678870833043
830,503.21281682702494
831,503.2564727032744
832,503.3011741402702
833,503.3409245793317
834,503.3707253909585
835,503.38679020643394
836,503.3865800633283
837,503.36873124666283
838,503.33297359971573
839,503.28011208044063
840,503.21207714669885
841,503.13197922013654
842,503.04407113629674
843,502.95354626009345
844,502.86615715915326
845,502.7876937096096
846,502.7233945610615
847,502.67738668354764
848,502.6522511262129
849,502.6487884280926
850,502.6660112872801
851,502.7013490204937
852,502.7510213609331
853,502.8105200704678
854,502.8751166957797
855,502.9403040150006
856,503.0020945267252
857,503.05714030571954
858,503.1026870254912
859,503.13641551669616
860,503.15624565173704
861,503.1601718506151
862,503.1461746445059
863,503.1122278903003
864,503.05640446955994
865,502.97706748305933
866,502.8731169027021
867,502.7442531663796
868,502.59122323193316
869,502.4160178155987
870,502.2219787279041
871,502.01376404169685
872,501.7971313951242
873,501.57854321149875
874,501.36465002064864
875,501.1617379572208
876,500.9752211593665
877,500.80923412568217
878,500.66635651696976
879,500.54749266341355
880,500.4519239508004
881,500.37754375175376
882,500.3212648779767
883,500.2795571759539
884,500.2490313213439
885,500.2269494033306
886,500.2115401599667
887,500.20204111153413
888,500.1984666320655
889,500.20118040545515
890,500.21040729597115
891,500.2258364068129
892,500.2464364005374
893,500.27053294628126
894,500.2961108684528
895,500.3212364699725
896,500.3444752712236
