frame_number,force
0,644.2650800000429
1,644.7544269936901
2,645.2204732204236
3,645.6422195485428
4,646.0028771990535
5,646.2911146917743
6,646.5015562282024
7,646.6346047044369
8,646.6957515632454
9,646.6945508769282
10,646.6434085962771
11,646.5563064102813
12,646.4475597267377
13,646.3306992482286
14,646.2175584921014
15,646.1176360141022
16,646.0377703045289
17,645.982117158188
18,645.9523703536269
19,645.9481376506637
20,645.9673860433106
21,646.0068974421276
22,646.0627087648554
23,646.1305273353904
24,646.2061074082354
25,646.2855589307381
26,646.3655523831918
27,646.4433909631687
28,646.516940897399
29,646.5844393011054
30,646.6442327388094
31,646.6945237012958
32,646.733199679647
33,646.7577944002136
34,646.7656041184763
35,646.7539602953457
36,646.7206275100308
37,646.6642466559705
38,646.5847105302774
39,646.4833815079667
40,646.3631292496909
41,646.2282232113834
42,646.084118809154
43,645.9371415193593
44,645.7940489022145
45,645.6614713364593
46,645.5452874737233
47,645.4500405469145
48,645.378516617111
49,645.3315758855111
50,645.3082587277754
51,645.3061079201398
52,645.3216039629262
53,645.3506244239173
54,645.388883305943
55,645.4323324664223
56,645.4774932952229
57,645.5216617912058
58,645.5629386892394
59,645.6000887132067
60,645.6322951956669
61,645.658906841449
62,645.6792593216192
63,645.6926125781156
64,645.6982028197904
65,645.69538417189
66,645.6838256898342
67,645.6637211870225
68,645.635959859723
69,645.602205495531
70,645.5648472514006
71,645.5268119723459
72,645.4912584189705
73,645.4611978608378
74,645.4390989082638
75,645.4265402395888
76,645.4239718761652
77,645.4306267999978
78,645.4445956764793
79,645.463058176118
80,645.4826593258201
81,645.5000053850886
82,645.5122133437854
83,645.5174004373819
84,645.5149858115925
85,645.5057171492784
86,645.4914146928036
87,645.4745081954394
88,645.4574975289546
89,645.4424742012828
90,645.4307968075999
91,645.4229458317511
92,645.4185312567639
93,645.4164075732268
94,645.4148567231755
95,645.4118140515343
96,645.405121099291
97,645.3927859279355
98,645.3732241167543
99,645.3454532883912
100,645.30922335996
101,645.265078082392
102,645.2143530099165
103,645.1591134529804
104,645.1020261698797
105,645.0461588050505
106,644.9947252530271
107,644.9508302629579
108,644.9172803625123
109,644.8964995055621
110,644.8905287589824
111,644.9010365125832
112,644.92925294692
113,644.9757810764205
114,645.0403091775712
115,645.1213158752782
116,645.215882604284
117,645.3197019509266
118,645.4273168466614
119,645.5325742059882
120,645.6292458531951
121,645.7117541885161
122,645.7759185670053
123,645.8196080549031
124,645.8431730181034
125,645.8495517479006
126,645.8440032376699
127,645.8334869567749
128,645.8257776498688
129,645.8284486504505
130,645.8478690603556
131,645.8883427603608
132,645.951485335139
133,646.0359028876528
134,646.1372118535054
135,646.2484160480161
136,646.3606203594662
137,646.4640062692043
138,646.5489480340441
139,646.6071349203336
140,646.6325721732024
141,646.6223348031683
142,646.5769513593315
143,646.5003317145167
144,646.3992311650361
145,646.282336381031
146,646.1591350256821
147,646.0387699873132
148,645.929071217004
149,645.8359053906037
150,645.7629051910988
151,645.7115629386705
152,645.6816152214464
153,645.6716100065061
154,645.6795322975167
155,645.7033639390527
156,645.7414677092993
157,645.7927234849229
158,645.8564079741717
159,645.9318825742149
160,646.0182083590906
161,646.1138230571232
162,646.2163859090173
163,646.3228309296095
164,646.4295955619438
165,646.5329456732406
166,646.6293127530075
167,646.7155793249433
168,646.7892736831703
169,646.8486601520144
170,646.8927391163191
171,646.9211951064518
172,646.934334931568
173,646.9330350237097
174,646.9186834811163
175,646.8930832967976
176,646.8582902035528
177,646.816381215596
178,646.7691751884009
179,646.7179529059791
180,646.6632490379106
181,646.6047955597797
182,646.5416690890656
183,646.4726391863192
184,646.3966587028676
185,646.3134007736331
186,646.2237269549734
187,646.1299648069012
188,646.0358966586463
189,645.9464224098659
190,645.8669375941098
191,645.8025366048381
192,645.7571965950875
193,645.7331112901885
194,645.7303176990005
195,645.7466980087211
196,645.7783614685902
197,645.8203303665263
198,645.8673810825608
199,645.9148470292272
200,645.9591988420381
201,645.9982822457042
202,646.0311955124953
203,646.0578938578819
204,646.0786797397117
205,646.0937481579505
206,646.1029115069784
207,646.1055633885262
208,646.1008780672822
209,646.0881823596975
210,646.0673849193863
211,646.039328023468
212,646.0059550550901
213,645.9702458006616
214,645.9359294154267
215,645.9070265938605
216,645.887299900556
217,645.8797053509342
218,645.8859377935753
219,645.9061488429336
220,645.938889854248
221,645.9812914270734
222,646.0294371993488
223,646.0788398308897
224,646.124908036019
225,646.1633187673343
226,646.1902616229753
227,646.202572564919
228,646.1978021430986
229,646.1742657044696
230,646.1311024024446
231,646.0683377155151
232,645.9869210169178
233,645.8887098125357
234,645.7763908933426
235,645.6533501162804
236,645.5235173912238
237,645.39122064998
238,645.2610772097232
239,645.1379240372618
240,645.026744648575
241,644.9325165886897
242,644.8599105520103
243,644.8128265048392
244,644.7938267008379
245,644.8035819182649
246,644.8404632965229
247,644.9003903490944
248,644.9770045518422
249,645.0621925166616
250,645.1469317287577
251,645.2223685886038
252,645.2809724018484
253,645.3175652748438
254,645.3300309448406
255,645.3195652482103
256,645.2904324255961
257,645.2492951905263
258,645.2042541947851
259,645.1637559831597
260,645.1355234541522
261,645.12564405484
262,645.1379219944433
263,645.1735583578395
264,645.2311692856003
265,645.3071030331373
266,645.3959852446393
267,645.4914031611097
268,645.5866268740564
269,645.6752677645378
270,645.7517991466138
271,645.8119037191142
272,645.8526507913999
273,645.8725323069025
274,645.871398719242
275,645.850338020388
276,645.8115337548167
277,645.7581169535641
278,645.6940009722484
279,645.6236784360187
280,645.5519743193261
281,645.4837715526536
282,645.4237345740024
283,645.3760495564369
284,645.3441895875118
285,645.3307091030526
286,645.337074198603
287,645.3635372851701
288,645.4090650685528
289,645.4713348331766
290,645.5468234210338
291,645.6310097243662
292,645.718686683714
293,645.8043486820732
294,645.8826073343101
295,645.9485982093631
296,645.9983607851198
297,646.0291845405584
298,646.0399016709559
299,646.0310811815491
300,646.0050688057227
301,645.9658359859918
302,645.9186346536504
303,645.8694865625481
304,645.8245649197916
305,645.7895493159247
306,645.7690408616656
307,645.7661094480156
308,645.7820189516535
309,645.8161477017226
310,645.8660967765228
311,645.9279654703561
312,645.9967669483957
313,646.0669417072565
314,646.132905355761
315,646.1895643353213
316,646.2327538512308
317,646.2595748109129
318,646.268617834325
319,646.2600734676284
320,646.2357460802186
321,646.1989962815065
322,646.1546130895073
323,646.1085775214171
324,646.067664399456
325,646.0388610067753
326,646.0286436365161
327,646.0422130401253
328,646.0828240315441
329,646.1513433919891
330,646.246129033259
331,646.3632479954723
332,646.4969719025621
333,646.6404450850009
334,646.786421600949
335,646.9279889664984
336,647.059215699288
337,647.1756704695517
338,647.2747647382346
339,647.35587453053
340,647.4202095970721
341,647.4704279512767
342,647.5100447276157
343,647.5427444645858
344,647.5717397516873
345,647.5992958252976
346,647.6264741191603
347,647.6530871219915
348,647.6778326137322
349,647.6985743421131
350,647.7127316458436
351,647.7177253662313
352,647.711413964938
353,647.692455423019
354,647.6605484753528
355,647.6165297617146
356,647.5623208595497
357,647.5007346111437
358,647.4351723311282
359,647.3692624975322
360,647.3064866284573
361,647.2498131839104
362,647.2013470256416
363,647.1620203082272
364,647.1313835627291
365,647.1075651870063
366,647.0874342981261
367,647.0669481536172
368,647.0416299742976
369,647.0071157403556
370,646.9597070283406
371,646.8968589356389
372,646.8175340897727
373,646.7223803586867
374,646.6137280278365
375,646.495425093823
376,646.3725268006341
377,646.2508469107526
378,646.1363925103802
379,646.0347449475959
380,645.9504865697669
381,645.8867738079529
382,645.8451197151164
383,645.8253989001785
384,645.826052173547
385,645.8444558963653
386,645.8774165107502
387,645.9217274508228
388,645.9746795295571
389,646.0343846384496
390,646.0998014196382
391,646.1704392886385
392,646.2458182600589
393,646.3248364496194
394,646.4052298937014
395,646.483294093984
396,646.5539732150752
397,646.6113261244775
398,646.6492776775132
399,646.6624912431358
400,646.64717329873
401,646.6016436683376
402,646.526569972191
403,646.4248578710803
404,646.3012745597819
405,646.1619228041568
406,646.0136685679616
407,645.8635837104821
408,645.7184316229644
409,645.5842169380869
410,645.4658303753312
411,645.3668168186784
412,645.2892690869542
413,645.2338285596932
414,645.1997770881727
415,645.1852133313158
416,645.1872986928349
417,645.2025442644191
418,645.2271119185103
419,645.2571182896666
420,645.2889386847762
421,645.3194957103747
422,645.3464953821142
423,645.3685612962015
424,645.3852220664529
425,645.39673063027
426,645.4037422595122
427,645.4069371169077
428,645.4067003279839
429,645.4029436513757
430,645.3950948766281
431,645.3822355968542
432,645.3633476200083
433,645.3376209461629
434,645.3047688805328
435,645.2652870620518
436,645.2205922063995
437,645.1729909376227
438,645.1254580130742
439,645.08124330765
440,645.0433750000174
441,645.0141684244498
442,644.994862013272
443,644.9854713167434
444,644.9848906468641
445,644.9912029005602
446,645.0021036660121
447,645.0153239408452
448,645.0289577755065
449,645.0416604904076
450,645.0527478405228
451,645.0622530145986
452,645.0709699947215
453,645.0804600771177
454,645.092969645551
455,645.1112159024756
456,645.1380279948878
457,645.1758720113523
458,645.2263354817411
459,645.2896847769739
460,645.3646134056675
461,645.4482619711666
462,645.5365247596899
463,645.6245847654462
464,645.7075587355454
465,645.7811070923914
466,645.8418837653888
467,645.8877586635809
468,645.9178101002967
469,645.9321287412047
470,645.9314928927146
471,645.9169779659388
472,645.889565584917
473,645.8498273601967
474,645.797764736429
475,645.7328676773632
476,645.6544006048847
477,645.5618511911093
478,645.455422411918
479,645.3364383312206
480,645.2075678935056
481,645.0728234811164
482,644.937338796456
483,644.8069673806144
484,644.6877697412378
485,644.5854687522437
486,644.5049433939067
487,644.4498060524967
488,644.4220889696298
489,644.4220668488472
490,644.4482542956962
491,644.4976093610717
492,644.5659354972236
493,644.6484236597555
494,644.740240484735
495,644.837056193523
496,644.9354179640724
497,645.032911845822
498,645.1281075591775
499,645.2203254412302
500,645.3092941170464
501,645.3947855564109
502,645.4763246988604
503,645.5530646240043
504,645.6238786897268
505,645.6876488075839
506,645.7436515015844
507,645.791894936907
508,645.8332657109072
509,645.8694102329017
510,645.9023761710698
511,645.9341268310455
512,645.9660794444721
513,645.9987984047067
514,646.0319102012138
515,646.0642321554568
516,646.0940603180916
517,646.1195529896232
518,646.1391536200226
519,646.1519988840671
520,646.1582504408113
521,646.1592803248776
522,646.1576467956917
523,646.1568339873593
524,646.1607861343967
525,646.1733172857904
526,646.1975026190627
527,646.2351618489897
528,646.2865322607106
529,646.3501923198281
530,646.4232417259504
531,646.5016909634834
532,646.5809769257135
533,646.6565036571961
534,646.7241145526478
535,646.7804395578714
536,646.8231132012193
537,646.8508943216971
538,646.8637147481284
539,646.8626531360463
540,646.8498062559011
541,646.828039783965
542,646.800638293688
543,646.7709086429396
544,646.7417987964272
545,646.7155821745405
546,646.6936501049
547,646.6764599559608
548,646.663682392194
549,646.6545519976398
550,646.6483553025201
551,646.6449255972356
552,646.6449969527062
553,646.6503147189685
554,646.6634751947412
555,646.6875239488442
556,646.7253662797347
557,646.7790623020122
558,646.8491160715188
559,646.9339084664336
560,647.0294302780724
561,647.1294233611462
562,647.2259477368485
563,647.3102979140986
564,647.3741233011019
565,647.4105730395169
566,647.4152785297142
567,647.3870090081813
568,647.32789320387
569,647.2431825669646
570,647.1406132081942
571,647.0294852886182
572,646.919612691474
573,646.820298635982
574,646.7394649107135
575,646.6830154801202
576,646.6544691491155
577,646.6548620935953
578,646.6828947561577
579,646.7352737246479
580,646.8071840821929
581,646.8928253688742
582,646.9859476334038
583,647.0803302426568
584,647.1701619174677
585,647.2503063083095
586,647.3164621616866
587,647.3652407278419
588,647.3941857784763
589,647.4017594825929
590,647.3873110542586
591,647.3510299285952
592,647.2938675488136
593,647.2174097502444
594,647.1237006915605
595,647.0150455492693
596,646.8938392383136
597,646.762473655168
598,646.6233574744692
599,646.4790441898647
600,646.3324275021455
601,646.1869438892055
602,646.0467157944596
603,645.9165687986355
604,645.8018680320597
605,645.7081495529668
606,645.6405669391955
607,645.603222699789
608,645.5985017675556
609,645.6265563827021
610,645.6850815326301
611,645.7694522277701
612,645.8731902798983
613,645.9886405493631
614,646.1077086601593
615,646.2225459085493
616,646.3261224479314
617,646.4126633059889
618,646.4779274374124
619,646.5193155049886
620,646.5358163229569
621,646.527832823585
622,646.4969444936696
623,646.4456586164902
624,646.377183873386
625,646.2952330797801
626,646.2038366647453
627,646.1071426401926
628,646.0091991943549
629,645.9137427290095
630,645.8240214758629
631,645.742670105585
632,645.6716291016088
633,645.61208902344
634,645.5644448215635
635,645.5282685459771
636,645.5023301141803
637,645.4846956503384
638,645.4729166477016
639,645.4643044429523
640,645.4562603488322
641,645.4466019155765
642,645.4338134148604
643,645.4171745991248
644,645.3967726243775
645,645.3734391367852
646,645.3486514627988
647,645.3244064905487
648,645.3030529547341
649,645.2870663469118
650,645.2787613074704
651,645.2799580513743
652,645.291656111215
653,645.3138011088636
654,645.3452259721836
655,645.3838008097597
656,645.4267621798341
657,645.4711428849664
658,645.5142021093262
659,645.5537638661556
660,645.5884043616535
661,645.6174777747508
662,645.6410184613022
663,645.6595803635489
664,645.6740593709638
665,645.6855121833395
666,645.694970404212
667,645.703263504314
668,645.7108895698308
669,645.7179764088949
670,645.7243416022111
671,645.729608078644
672,645.7333038707565
673,645.7348961097462
674,645.7337653691887
675,645.7291746228235
676,645.7202916216362
677,645.7062874912987
678,645.6864930829345
679,645.6605737517489
680,645.6286796556756
681,645.5915328824134
682,645.5504257773007
683,645.5071281448447
684,645.4637261368119
685,645.4224284998318
686,645.3853677593765
687,645.3544033630017
688,645.3309233953839
689,645.3156532621816
690,645.308500738275
691,645.3084769984436
692,645.3137259473644
693,645.3216742917664
694,645.329290792379
695,645.3334218022632
696,645.3311542966453
697,645.3201490560205
698,645.2988881443634
699,645.2667930536879
700,645.2241923543224
701,645.172148733362
702,645.1121897200754
703,645.0460162186009
704,644.9752760177847
705,644.9014702248234
706,644.8260085517272
707,644.750372456014
708,644.6763159079286
709,644.6060385342338
710,644.5422900480062
711,644.488389977883
712,644.4481575531482
713,644.4257404469771
714,644.4253254643803
715,644.4507310277273
716,644.504921652235
717,644.5895240581091
718,644.70443451429
719,644.8475830628113
720,645.0148841311312
721,645.2003758038501
722,645.3965351364785
723,645.5947484925421
724,645.7859086171877
725,645.9610995116582
726,646.1123154708947
727,646.2331469085966
728,646.3193563929951
729,646.369264618539
730,646.3838734349391
731,646.3666798333866
732,646.3231834837728
733,646.2601536011332
734,646.1847805124231
735,646.1038711309983
736,646.0232406809166
737,645.9474020171789
738,645.8795696100349
739,645.8219065294479
740,645.775883307897
741,645.7426035318757
742,645.722979993209
743,645.7177101908541
744,645.7270856268243
745,645.7507399796972
746,645.7874601558386
747,645.8351504761592
748,645.8909833529593
749,645.9517122202619
750,646.0140736709503
751,646.0751790601666
752,646.1328029811074
753,646.1855144209371
754,646.2326505214829
755,646.2741786170232
756,646.3105091695429
757,646.3423112264384
758,646.3703608441139
759,646.3954362605269
760,646.4182644976939
761,646.4395148086339
762,646.4598170513037
763,646.4797671757492
764,646.4998865711335
765,646.5205282527736
766,646.5417538386972
767,646.5632246231559
768,646.5841475913114
769,646.603292607232
770,646.6190667482783
771,646.6296186789176
772,646.6329579562489
773,646.6270968397815
774,646.6102309528989
775,646.5809587642617
776,646.5385132761763
777,646.4829651419184
778,646.4153596115444
779,646.3377618648483
780,646.2532009580586
781,646.165516418111
782,646.0791141579881
783,645.9986328544941
784,645.9285319976456
785,645.8726529949311
786,645.833848958329
787,645.8137838142067
788,645.8129545317099
789,645.8309153384519
790,645.8666140708281
791,645.9187182935303
792,645.9858267305074
793,646.0665148949262
794,646.1592226401877
795,646.2620391598156
796,646.3724712133353
797,646.4872810300645
798,646.602447520675
799,646.713257320176
800,646.8144988763404
801,646.900727635435
802,646.9665840782407
803,647.0071565057872
804,647.0183762270216
805,646.997420546229
806,646.9430863307128
807,646.8560889444723
808,646.7392405186927
809,646.5974613577162
810,646.4375779719579
811,646.2678797582795
812,646.0974527228884
813,645.9353592439012
814,645.7897632414623
815,645.6671136695597
816,645.5715072080015
817,645.5043465330542
818,645.4643779533585
819,645.448129585595
820,645.4506919141979
821,645.466704660137
822,645.4913584117985
823,645.5212068288645
824,645.5546218876356
825,645.5918004134586
826,645.6343296639337
827,645.6844229234027
828,645.7440121880763
829,645.8139074698089
830,645.8931979079522
831,645.9789953722067
832,646.0665347169098
833,646.1495813440729
834,646.2210746862356
835,646.2739350496042
836,646.3019438221927
837,646.3005686277727
838,646.2675827060091
839,646.2033561939701
840,646.1107726628942
841,645.9948171528806
842,645.8619584853158
843,645.7194809687998
844,645.5748973183505
845,645.4355133237445
846,645.3081504045891
847,645.1989854348045
848,645.1134402344757
849,645.0560512305025
850,645.0302786530121
851,645.0382611646198
852,645.0805633617659
853,645.1559872311634
854,645.2615179797588
855,645.3924442592698
856,645.5426406290879
857,645.7049539583726
858,645.8716208431343
859,646.0346593000249
860,646.1862088224126
861,646.3188280793747
862,646.4257886364323
863,646.5014075030459
864,646.5414348236061
865,646.5434748548352
866,646.5073895535686
867,646.43561581626
868,646.3333144635308
869,646.2082689574945
870,646.0704773200658
871,645.9314309024383
872,645.8031335371178
873,645.6969708604173
874,645.6225834226458
875,645.5869117489246
876,645.593549967243
877,645.6424797579125
878,645.7301959264904
879,645.8501950726759
880,645.993761124491
881,646.1509360424675
882,646.3115316124009
883,646.4660395492591
884,646.6063304645735
885,646.7260860990859
886,646.8209706082487
887,646.8885964228309
888,646.9283597100009
889,646.941208781787
890,646.9293845379694
891,646.8961540546729
892,646.8455502460852
893,646.7821254304963
894,646.710718589827
895,646.6362247966082
896,646.563350519117
897,646.4963531296074
898,646.4387902522758
899,646.3933175330332
900,646.3615585748125
901,646.3440473365602
902,646.3402350784114
903,646.3485585102895
904,646.3665677038439
905,646.3911099266367
906,646.4185648227749
907,646.4451250357411
908,646.467110328462
909,646.4812950865415
910,646.4852236514341
911,646.477486583304
912,646.4579299823439
913,646.4277646531505
914,646.3895359922636
915,646.3469228420853
916,646.3043616787244
917,646.2665304875388
