frame_number,force
0,597.5945500000454
1,597.449441626598
2,597.3096002251497
3,597.1797676399034
4,597.0637454541522
5,596.9641540012424
6,596.88236620743
7,596.8185694032293
8,596.771890893099
9,596.7405312468474
10,596.7218759879057
11,596.7125943926816
12,596.7087663823203
13,596.7060860494328
14,596.7001714989581
15,596.6869767122307
16,596.6632607993226
17,596.6270362468986
18,596.5779119803228
19,596.5172722785705
20,596.4482636137358
21,596.3755827771165
22,596.3050855383175
23,596.2432707870998
24,596.1967105146975
25,596.171470085601
26,596.1725286151665
27,596.2032146551377
28,596.264716056211
29,596.3557551209879
30,596.4725029794796
31,596.6087522782782
32,596.7563189653547
33,596.9056295110539
34,597.0464556966153
35,597.1687584602786
36,597.2635862834524
37,597.3239478156937
38,597.345552427033
39,597.3272987849409
40,597.2714056271186
41,597.1831318094293
42,597.0701178356228
43,596.9414680711895
44,596.8067430749787
45,596.6750244018286
46,596.5541636820865
47,596.4502699919942
48,596.3674487456752
49,596.3077758043233
50,596.2714569041111
51,596.257090934602
52,596.2619520606681
53,596.2822412303118
54,596.3133084323293
55,596.3498787912041
56,596.3863170894618
57,596.4169509003913
58,596.4364576985083
59,596.4403031674437
60,596.4251855651383
61,596.3894041930619
62,596.3330593876273
63,596.2580245301081
64,596.1676924313259
65,596.0665557849325
66,595.959705376576
67,595.8523154201102
68,595.7491577848422
69,595.6541769236514
70,595.5701694727838
71,595.498623857426
72,595.439760679746
73,595.3927684284378
74,595.3561701820304
75,595.3282183664182
76,595.3072210872605
77,595.291750182763
78,595.2807332634319
79,595.2734592362099
80,595.2695313367088
81,595.268797877468
82,595.2712766693334
83,595.2770622734535
84,595.2861876686234
85,595.2984273126525
86,595.3130673409113
87,595.328696450892
88,595.3430699031039
89,595.3530853650612
90,595.3549033591121
91,595.3442344825554
92,595.3167761981422
93,595.2687290879799
94,595.1972992434311
95,595.1011116019229
96,594.9804881657897
97,594.8375567301777
98,594.6761542246021
99,594.5015005600247
100,594.3196606242843
101,594.1368695206089
102,593.9588356265559
103,593.7901357967937
104,593.6337847822437
105,593.4910202028123
106,593.3613072162847
107,593.2425300226486
108,593.1313063899282
109,593.0233597617835
110,592.9139197410486
111,592.7981657335067
112,592.6717406618437
113,592.5313348835057
114,592.3752949533101
115,592.2041633449304
116,592.0210161471488
117,591.8314639328188
118,591.6432396925406
119,591.4653996804783
120,591.3072599581071
121,591.1772449737061
122,591.0818269945266
123,591.0247030270398
124,591.0063134230217
125,591.023768927147
126,591.0712167127185
127,591.1406265058968
128,591.2229100846023
129,591.3092140890633
130,591.3921702996843
131,591.466872821461
132,591.5313914891941
133,591.5867205068635
134,591.6361820467303
135,591.6844290208103
136,591.7362825254377
137,591.7956642488427
138,591.8648387901767
139,591.9440919813759
140,592.0318689390929
141,592.1252993061577
142,592.2209646308665
143,592.3157297710875
144,592.4074672967599
145,592.4955386279379
146,592.580949941949
147,592.6661737300371
148,592.7547070833883
149,592.8504961997854
150,592.9573647721262
151,593.0785407603076
152,593.2163131711056
153,593.3718063128669
154,593.5448480103883
155,593.7339183418343
156,593.9361785257806
157,594.1475874229247
158,594.3631164636028
159,594.5770723607403
160,594.7835250830816
161,594.976814298783
162,595.1520820963484
163,595.305769240786
164,595.4360176361504
165,595.5429292115241
166,595.6286371561026
167,595.6971629658559
168,595.7540686822897
169,595.8059548098698
170,595.8598828606004
171,595.922804484119
172,596.0010511768379
173,596.0998934965672
174,596.2231509418959
175,596.3728481913074
176,596.5489559179596
177,596.7492832345024
178,596.9695770474545
179,597.2038398604831
180,597.4448288376551
181,597.6846678592698
182,597.9155003697176
183,598.1301256273304
184,598.3225722167847
185,598.4885558968296
186,598.6257544751895
187,598.7338354105271
188,598.8142079947509
189,598.8695353904194
190,598.9031079190103
191,598.9182162262153
192,598.9176504695662
193,598.9033967447056
194,598.8765375913159
195,598.8373213312032
196,598.7853529844951
197,598.7198631740982
198,598.6400112441161
199,598.5451710063566
200,598.4351474343281
201,598.3102912873871
202,598.1715078859229
203,598.0201814101333
204,597.85805090643
205,597.6870796547303
206,597.5093521158259
207,597.3270058122456
208,597.1421712214097
209,596.9568798599981
210,596.7729206636131
211,596.5916618456358
212,596.4138892780768
213,596.239727345104
214,596.0686918759699
215,595.8998790108449
216,595.7322393385524
217,595.5648510940109
218,595.397110677403
219,595.2288031005947
220,595.0600732905438
221,594.8913616146011
222,594.7233785158626
223,594.5571677182816
224,594.3942500611547
225,594.2367792950449
226,594.0876130443688
227,593.9502187810388
228,593.8283845490012
229,593.7257691590517
230,593.6453832277441
231,593.5891162726614
232,593.5574106111757
233,593.5491470548272
234,593.5617663396723
235,593.5916053295807
236,593.634379717999
237,593.6857101591592
238,593.7415846348675
239,593.7986803875474
240,593.8545186825847
241,593.9074707319417
242,593.9566590031709
243,594.0018068215442
244,594.0430874225331
245,594.0810149288261
246,594.1164013238782
247,594.1503701305767
248,594.1843795296554
249,594.2201889561537
250,594.2597121594208
251,594.3047283688877
252,594.3564706318093
253,594.4151735058352
254,594.4797121627292
255,594.5474638407056
256,594.6144652295253
257,594.6758589210637
258,594.7265550186868
259,594.7619951312073
260,594.7788952749878
261,594.7758579550175
262,594.7537728491459
263,594.7159569770612
264,594.6680128414043
265,594.6174105762026
266,594.5728299808568
267,594.5433263514102
268,594.5374079052003
269,594.5621321129482
270,594.6223357929066
271,594.7200980060746
272,594.8544960152246
273,595.0216680812454
274,595.2151583705714
275,595.426491578433
276,595.6459026670586
277,595.863132227511
278,596.0682002101543
279,596.252092144419
280,596.4073211780635
281,596.5283526743319
282,596.6118878299645
283,596.6569979749715
284,596.6650920085295
285,596.6397050959421
286,596.5861270279445
287,596.5109258090857
288,596.4214331314706
289,596.3252336117533
290,596.229667635278
291,596.1413490888286
292,596.0657129894149
293,596.0066272715163
294,595.9661199371636
295,595.9442815391848
296,595.9393911817097
297,595.9482747555448
298,595.9668465461995
299,595.9907330179032
300,596.0158558583773
301,596.0388738513793
302,596.0574398705629
303,596.070286098653
304,596.0771752654183
305,596.0787533997934
306,596.0763406152721
307,596.071704395609
308,596.0668488609584
309,596.0638225291883
310,596.0645302020584
311,596.0705474725862
312,596.0829555206112
313,596.1022173859516
314,596.1281110688069
315,596.1597336686964
316,596.1955918179776
317,596.233783791409
318,596.2722556198959
319,596.3090896311055
320,596.3427710968804
321,596.3723821627551
322,596.3976939006599
323,596.419162863853
324,596.4378721228859
325,596.4554666830214
326,596.4741075765726
327,596.4964223323724
328,596.525397857979
329,596.5641690284046
330,596.6156941265007
331,596.6823541140744
332,596.7655497349774
333,596.8653859520342
334,596.9805193275954
335,597.1082076634506
336,597.2445599459062
337,597.3849496781911
338,597.5245285194375
339,597.6587625359285
340,597.7839117145691
341,597.897378983587
342,597.9978655118174
343,598.0852959940942
344,598.1605293525391
345,598.2249297537545
346,598.2799078765617
347,598.3265367421519
348,598.3653121021233
349,598.3960870188134
350,598.4181754071006
351,598.4305906579544
352,598.4323666117281
353,598.4229039202337
354,598.402288540881
355,598.3715299999956
356,598.3326701244869
357,598.2887311869738
358,598.2435035909825
359,598.2012051351895
360,598.1660721250115
361,598.1419618334094
362,598.13203919326
363,598.1385804387047
364,598.1628751551198
365,598.205182359531
366,598.264712324936
367,598.339645709334
368,598.427228516527
369,598.5239719925451
370,598.6259472855052
371,598.7291220132907
372,598.829665341644
373,598.9241599484261
374,599.0096972835886
375,599.0838815188413
376,599.1448035374096
377,599.1910428984406
378,599.2217120817946
379,599.236510138485
380,599.2357383617878
381,599.2202454719913
382,599.1912884798486
383,599.1503098494034
384,599.0986529277162
385,599.0372694953616
386,598.9665004650853
387,598.8860116227014
388,598.7949326884182
389,598.6921908816953
390,598.5769690700594
391,598.4491747805221
392,598.3097990336644
393,598.1610758067641
394,598.0064050139325
395,597.8500506146335
396,597.6966601705657
397,597.5506773552845
398,597.4157416922468
399,597.2941855619523
400,597.1867330133612
401,597.0924683945643
402,597.0090792135134
403,596.9333057044801
404,596.8614779896712
405,596.7900156984801
406,596.7158068165179
407,596.6364438405708
408,596.5503378752862
409,596.4567396639702
410,596.3556824443792
411,596.2478456408917
412,596.134338850036
413,596.0164270859166
414,595.8952415267144
415,595.7715235275098
416,595.6454415555847
417,595.5165191761672
418,595.3837085375777
419,595.2456198384024
420,595.1008794500428
421,594.9485563860121
422,594.7885756036194
423,594.6220286927772
424,594.4513047443392
425,594.2800021929462
426,594.1126395711558
427,593.9542378686316
428,593.8098746296351
429,593.6843012504013
430,593.5816797623298
431,593.5054460727647
432,593.4582562042268
433,593.4419418687972
434,593.4574086511768
435,593.5044488536665
436,593.5814908750779
437,593.6853490099468
438,593.8110639008128
439,593.9519341474617
440,594.0998241838195
441,594.2457753114011
442,594.3808572388979
443,594.4971243800455
444,594.5885186594563
445,594.6515777131514
446,594.6858344630737
447,594.6938212858871
448,594.6806390778008
449,594.6531367120814
450,594.6188461089662
451,594.5848780990463
452,594.5569743558108
453,594.5388487734671
454,594.5318764229927
455,594.5351272510866
456,594.5457030950566
457,594.5593145008578
458,594.5710155702598
459,594.5759930195079
460,594.5702911825642
461,594.5513690011046
462,594.5184302286932
463,594.4725228130361
464,594.4164449404466
465,594.3545095481519
466,594.292203976269
467,594.2357569381501
468,594.1916223442421
469,594.1659156176875
470,594.1638677433289
471,594.1893702056266
472,594.244669462084
473,594.3302449765596
474,594.4448748176994
475,594.5858570976135
476,594.7493246527588
477,594.9305832397498
478,595.12442415209
479,595.3253926270665
480,595.5280191219703
481,595.7270416536401
482,595.9176546842739
483,596.0957947373364
484,596.2584241802728
485,596.4037427733635
486,596.5312697804992
487,596.6417864513277
488,596.7371745245716
489,596.8202035736939
490,596.8943046822313
491,596.963334983007
492,597.0313092292671
493,597.1020696862423
494,597.1788908722058
495,597.2640633020588
496,597.3585489227545
497,597.4618180944483
498,597.5719395745696
499,597.685911576959
500,597.8001384995744
501,597.9109176652697
502,598.0148138780213
503,598.1088496400164
504,598.1905022276028
505,598.2575567874175
506,598.3079052252933
507,598.3393966415168
508,598.3498301747237
509,598.3371331471277
510,598.2996962571094
511,598.2367687648691
512,598.1487828896453
513,598.0374974388426
514,597.9059147893793
515,597.7579966531401
516,597.598250119911
517,597.431270561181
518,597.2613255781166
519,597.0920518298769
520,596.9263092819459
521,596.7661949244051
522,596.6131751597211
523,596.4682722301606
524,596.3322432119174
525,596.2057097790832
526,596.089215774596
527,595.9832029364543
528,595.8879095703182
529,595.8032163532766
530,595.7284858363067
531,595.6624581983939
532,595.6032601056721
533,595.5485518731273
534,595.4957945685012
535,595.442582678914
536,595.3869737073596
537,595.3277557637115
538,595.264617176229
539,595.198209200774
540,595.1301187277626
541,595.0627760909682
542,594.999301117162
543,594.9432636162194
544,594.8983447104049
545,594.8679305889217
546,594.8547041386242
547,594.8602973535737
548,594.8850488433757
549,594.927898457524
550,594.9864386518954
551,595.0571160908622
552,595.1355453655805
553,595.2168817794517
554,595.2962077833081
555,595.3689027177494
556,595.4309766542137
557,595.4793598487429
558,595.5121522511052
559,595.5288428257064
560,595.5304931928657
561,595.5198449270309
562,595.501276207692
563,595.4805309319356
564,595.4641854564788
565,595.4588924680007
566,595.4705198270207
567,595.5033543651593
568,595.5595430554337
569,595.6388878283116
570,595.7390117283957
571,595.8558156022684
572,595.9840902343985
573,596.1181503806713
574,596.2523903171534
575,596.3816979711246
576,596.5017032145378
577,596.6088836777412
578,596.7005943504184
579,596.7750913332333
580,596.8315774399676
581,596.8702447577772
582,596.8922673408774
583,596.8997122220389
584,596.8953712009801
585,596.8825512122941
586,596.8648816880226
587,596.8461869314893
588,596.830426382045
589,596.821652055919
590,596.823912716367
591,596.8410639857059
592,596.8764938757923
593,596.9328036369332
594,597.0114844696333
595,597.1126245454462
596,597.2346896316175
597,597.3744387943536
598,597.5270370247281
599,597.6863874324258
600,597.8456400756957
601,597.9977878714521
602,598.1362622205304
603,598.2554732377806
604,598.3512612191707
605,598.4212206867876
606,598.4648464189388
607,598.4834635213608
608,598.4799447728681
609,598.458259996179
610,598.4229209689634
611,598.3783882502312
612,598.328509749567
613,598.276063618159
614,598.2224666720697
615,598.1676824102314
616,598.1103317056854
617,598.0479801593117
618,597.9775469937814
619,597.8957585753731
620,597.7995686961114
621,597.6864906553076
622,597.5548232291427
623,597.4037856072044
624,597.233586403555
625,597.0454404340824
626,596.8415409991769
627,596.625010397763
628,596.3998641381468
629,596.1710044769761
630,595.9442109023296
631,595.726052432939
632,595.5236401522772
633,595.3441753900477
634,595.1943087315906
635,595.0793791529544
636,595.0026410272395
637,594.9646104476129
638,594.9626599088756
639,594.9909511441786
640,595.040737677033
641,595.101022110784
642,595.1595204198841
643,595.2038419317721
644,595.222734125611
645,595.2071991050017
646,595.1513015598285
647,595.0525614595274
648,594.911926909325
649,594.733408075312
650,594.5234935592179
651,594.2904681179276
652,594.0437240562553
653,593.793124872738
654,593.548448409985
655,593.3189142899196
656,593.1127904227204
657,592.9370721613708
658,592.797226423268
659,592.6969880379756
660,592.6381936768466
661,592.6206520438882
662,592.6420807019832
663,592.6981727789246
664,592.7828606263953
665,592.8888024659175
666,593.0080493402112
667,593.1327881219438
668,593.2560275085026
669,593.3721089628796
670,593.4769823323211
671,593.5682623823933
672,593.645133984742
673,593.7081733139071
674,593.7591171157779
675,593.800581569055
676,593.8357310586526
677,593.8679217912642
678,593.900372174119
679,593.9359157614853
680,593.9768680410464
681,594.0250053330909
682,594.0816330441297
683,594.1477085290322
684,594.2239690132826
685,594.3110067708553
686,594.4092534188634
687,594.5188790304421
688,594.6396481971311
689,594.7707816685823
690,594.9108583394267
691,595.0577800801188
692,595.2088159252701
693,595.36073441032
694,595.51002220203
695,595.6531759139893
696,595.7870400599737
697,595.9091476448527
698,596.0180062695322
699,596.1132687151787
700,596.1957392560197
701,596.267196169672
702,596.3300494346781
703,596.3868930437679
704,596.4400490771077
705,596.4912197820955
706,596.5413371433365
707,596.5906220797459
708,596.6387803220254
709,596.6852279227863
710,596.729273210879
711,596.7702459722486
712,596.8076068853138
713,596.8410675539831
714,596.8707166632128
715,596.8971105308051
716,596.9212729027535
717,596.9445688604601
718,596.968458637382
719,596.9941754408878
720,597.0223923506906
721,597.0529461004129
722,597.0846741268883
723,597.1154003750327
724,597.142080626839
725,597.1610929236724
726,597.1686355365163
727,597.1611830232105
728,597.1359538568876
729,597.0913422710131
730,597.0272476724609
731,596.9452198013541
732,596.8483583247736
733,596.740959157993
734,596.6279610268961
735,596.5142935503484
736,596.4042482757882
737,596.3009827161761
738,596.2062358100043
739,596.1202930635662
740,596.0421925684952
741,595.9701145485653
742,595.9018649836997
743,595.8353621642633
744,595.7690571798119
745,595.7022475170286
746,595.6352655176618
747,595.5695341538724
748,595.507480386778
749,595.4522960151207
750,595.4075550025718
751,595.3767283056424
752,595.3626598161627
753,595.3670734513342
754,595.3901837972996
755,595.4304854133189
756,595.4847821125394
757,595.5484712632369
758,595.6160355026508
759,595.6816554929082
760,595.7398577548854
761,595.7861215127897
762,595.8173613817244
763,595.8321998904293
764,595.830982536856
765,595.815559335177
766,595.7889064122476
767,595.7546563728986
768,595.7165758946531
769,595.6780236092816
770,595.6414501781534
771,595.6080309515652
772,595.5775165477058
773,595.5483477639441
774,595.518030743134
775,595.4837205565855
776,595.4429151295277
777,595.3941245274987
778,595.337377107773
779,595.2744632286923
780,595.2088762142637
781,595.1454598307603
782,595.0898053543806
783,595.0474751454545
784,595.0231762014871
785,595.0200500603399
786,595.039246082142
787,595.0798837327764
788,595.1394076912899
789,595.2142389540965
790,595.3005573226292
791,595.395030593466
792,595.4953355952298
793,595.6003853561687
794,595.7102612866711
795,595.8259172874684
796,595.9487503611715
797,596.080124893301
798,596.2209234114708
799,596.371191763329
800,596.5299384116505
801,596.6951143350689
802,596.8637451907741
803,597.0321461363337
804,597.1961525024489
805,597.3513359272534
806,597.4932096227285
807,597.6174364416995
808,597.7200425510571
809,597.7976227379627
810,597.8475173425772
811,597.8679538944224
812,597.8581664424755
813,597.8185067282583
814,597.7505382837812
815,597.657086026829
816,597.542222454608
817,597.4111856461496
818,597.2702119056925
819,597.1262383473767
820,596.9864315186067
821,596.8575464614922
822,596.7451896796916
823,596.6531091736466
824,596.5826475220364
825,596.5324745274952
826,596.4986710357753
827,596.4751709356519
828,596.4544997852649
829,596.4286976930534
830,596.390291579483
831,596.3331853206822
832,596.253360392031
833,596.1493176129156
834,596.0222312974307
835,595.8758211986006
836,595.7159749691028
837,595.5501803275612
838,595.3868484872795
839,595.2346119868101
840,595.1016546399604
841,594.9950994184117
842,594.9204643913107
843,594.8811968410578
844,594.8783022415628
845,594.9101000671478
846,594.9721614920876
847,595.0574941378474
848,595.1570145753977
849,595.2602969836742
850,595.3565360473652
851,595.4356325188731
852,595.489289886096
853,595.5119846968169
854,595.501654722774
855,595.4599695413156
856,595.3921168544732
857,595.3061324067812
858,595.211888427197
859,595.1199094712263
860,595.0401945383616
861,594.9811969499697
862,594.9490667211344
863,594.9472096069735
864,594.9761671055005
865,595.0337743311807
866,595.1155214006047
867,595.2150434580367
868,595.3246850657549
869,595.4361026822504
870,595.5408790646088
871,595.6311319296088
872,595.7000981886583
873,595.7426562666174
874,595.7557284199895
875,595.7385073204562
876,595.6924808513643
877,595.6212699510806
878,595.5303260535599
879,595.4265421896229
880,595.3178144528389
881,595.2125673049989
882,595.1192503505881
883,595.0458308527641
884,594.9993287326272
885,594.9854464277109
886,595.0083266692762
887,595.070438664758
888,595.1725634675805
889,595.3138310967303
890,595.4917620098203
891,595.702291356423
892,595.9397999255132
893,596.1972153009601
894,596.4662554574047
895,596.7378569269453
896,597.0027693469673
897,597.252235214068
898,597.4786457986205
899,597.6760854463768
900,597.8407212673142
901,597.9710275025529
902,598.0678431543423
903,598.1342615500964
904,598.1753511339663
905,598.1977052994448
906,598.2088213381865
907,598.216333132468
908,598.2271732825119
909,598.2467920457249
910,598.2785760701084
911,598.32357349387
912,598.3805599017978
913,598.4464042067336
914,598.5166423602633
915,598.5861531314864
916,598.6498466220905
917,598.703298810253
