acceleration,velocity,displacement
-0.015690404746178933,0.0,0.0
-0.016609326791875004,-8.074932884513483e-06,-2.0187332211283707e-09
-0.01752567258301061,-1.660868272823489e-05,-8.189637124315465e-09
-0.01843688169335423,-2.55993212973261e-05,-1.874163813070571e-08
-0.019340425126622235,-3.5043648002320215e-05,-3.390238045561729e-08
-0.020233820483792297,-4.493720940492385e-05,-5.389759480742831e-08
-0.021114646515486394,-5.527432615474352e-05,-7.895047869734514e-08
-0.021980556905909058,-6.604812701009239e-05,-1.0928109198855412e-07
-0.022829293160366516,-7.725058952666127e-05,-1.4510577112274253e-07
-0.02365869649511221,-8.887258694053095e-05,-1.866365652395406e-07
-0.024466718658036023,-0.00010090394072881801,-2.3408069715687784e-07
-0.025251431640814545,-0.00011333347830353066,-2.87640051914965e-07
-0.02601103627355637,-0.00012614909528212338,-3.475106953113785e-07
-0.026743869714855067,-0.00013933782177922625,-4.1388242457671594e-07
-0.02744841186026393,-0.000152885892173006,-4.86938353064774e-07
-0.02812329069266431,-0.00016677881781123808,-5.668545305608351e-07
-0.02876728659191331,-0.0001810014621323825,-6.537996005467402e-07
-0.029379335609558837,-0.00019553811768275052,-7.479344955005235e-07
-0.029958531702719896,-0.0002103725845108202,-8.494121710489161e-07
-0.03050412792099025,-0.00022548824941674773,-9.58377379530808e-07
-0.031015536557808993,-0.00024086816553644754,-1.0749664832691068e-06
-0.031492328305609475,-0.0002564951317523022,-1.1993073075912943e-06
-0.03193423047882642,-0.00027235177144841117,-1.3315190333914726e-06
-0.03234112438240273,-0.00028842061016371844,-1.471712128794505e-06
-0.032713041905085,-0.0003046841517355904,-1.6199883192693322e-06
-0.03305016140974331,-0.00032112495256429746,-1.776440595344304e-06
-0.03335280298111103,-0.00033772569366201106,-1.9411532569008814e-06
-0.033621423079579896,-0.0003544692501771838,-2.11420199286068e-06
-0.03385660864286668,-0.0003713387581077955,-2.2956539949319248e-06
-0.034059070678385636,-0.00038831767793810854,-2.4855681039434007e-06
-0.03422963739470853,-0.0004053898549563821,-2.6839949871670232e-06
-0.03436924692474408,-0.0004225395760362452,-2.89097734491518e-06
-0.03447893969380104,-0.0004397516226908815,-3.1065501445969617e-06
-0.03455985048452348,-0.0004570113202354626,-3.3307408803285478e-06
-0.03461320025154018,-0.0004743045829194785,-3.563569856117283e-06
-0.03464028774304142,-0.0004916179549181239,-3.8050504905766837e-06
-0.034642480992194864,-0.000508938647101933,-4.055189641081698e-06
-0.03462120874502229,-0.0005262545695362373,-4.31398794524124e-06
-0.034577951892774864,-0.0005435543596956866,-4.5814401775492215e-06
-0.034514234979134445,-0.0005608274064136639,-4.857535619076559e-06
-0.03443161785497993,-0.0005780638696221925,-5.142258438085523e-06
-0.03433168754993053,-0.0005952546959734201,-5.435588079484426e-06
-0.03421605041391565,-0.0006123916304643817,-5.737499661093877e-06
-0.0340863245561328,-0.0006294672242068938,-6.047964374761695e-06
-0.033944132584373336,-0.0006464748384920204,-6.366949890436424e-06
-0.03379109463394262,-0.0006634086452965993,-6.694420761383579e-06
-0.03362882167058639,-0.0006802636243727316,-7.030338828800912e-06
-0.033458909050431036,-0.000697035557052986,-7.3746636241573415e-06
-0.03328293032235087,-0.0007137210168961815,-7.727352767644634e-06
-0.03310243126840604,-0.0007303173572938707,-8.088362361192147e-06
-0.03291892419397892,-0.000746822696159467,-8.457647374555481e-06
-0.03273388249282646,-0.0007632358978311683,-8.835162023053139e-06
-0.03254873551754389,-0.0007795565523337608,-9.220860135594371e-06
-0.03236486378439011,-0.0007957849521592443,-9.614695511717622e-06
-0.03218359453789084,-0.0008119220667398145,-1.0016622266442388e-05
-0.03200619769373767,-0.0008279695147977216,-1.0426595161826772e-05
-0.031833882163132494,-0.0008439295347619391,-1.0844569924216686e-05
-0.03166779253901626,-0.0008598049534374764,-1.127050354626654e-05
-0.03150900610469827,-0.000875599153098405,-1.170435457290051e-05
-0.03135853011358031,-0.0008913160371529746,-1.2146083370463355e-05
-0.031217299280460114,-0.0009069599945014847,-1.259565237837697e-05
-0.03108617341701245,-0.0009225358626758528,-1.3053026342671305e-05
-0.030965935142106004,-0.0009380488898156323,-1.3518172530794176e-05
-0.030857287608032576,-0.000953504695503167,-1.3991060927123876e-05
-0.030760852206796044,-0.0009689092304568742,-1.4471664408613887e-05
-0.030677166251169275,-0.0009842687350713655,-1.4959958899995946e-05
-0.030606680656233197,-0.000999589696798216,-1.5455923507963343e-05
-0.030549757673773215,-0.0010148788063807177,-1.5959540633758076e-05
-0.030506668755791017,-0.0010301429129881087,-1.6470796063600283e-05
-0.030477592646975693,-0.0010453889783388003,-1.698967903643201e-05
-0.030462613825330748,-0.0010606240299568769,-1.7516182288505928e-05
-0.03046172141867027,-0.0010758551137678772,-1.8050302074437118e-05
-0.030474808719895045,-0.0010910892463025185,-1.8592038164454718e-05
-0.03050167340839369,-0.0011063333668345906,-1.9141393817738994e-05
-0.030542018561874197,-0.0011215942898271576,-1.969837573190443e-05
-0.030595454514166252,-0.0011368786580961676,-2.0262993968885264e-05
-0.03066150158238203,-0.0011521928971203047,-2.083526185768938e-05
-0.030739593655871596,-0.0011675431709298682,-2.1415195874701923e-05
-0.030829082614546467,-0.0011829353399974726,-2.2002815502433757e-05
-0.030929243528402272,-0.0011983749215332099,-2.2598143067816426e-05
-0.031039280583314947,-0.0012138670525611392,-2.3201203561340012e-05
-0.03115833367370192,-0.0012294164561253934,-2.3812024438511644e-05
-0.03128548559191782,-0.0012450274109417983,-2.4430635405278443e-05
-0.031419769725784655,-0.001260703724771224,-2.50570681892067e-05
-0.03156017815724367,-0.001276448711741981,-2.5691356298335e-05
-0.03170567004545266,-0.001292265173792655,-2.633353476971866e-05
-0.03185518018130686,-0.001308155386349345,-2.6983639909754162e-05
-0.03200762761700961,-0.001324121088298924,-2.764170902841623e-05
-0.03216192429813774,-0.001340163476277711,-2.830778016956039e-05
-0.03231698364538846,-0.0013562832032635926,-2.8981891839445714e-05
-0.032471729040584436,-0.001372480381435086,-2.9664082735620383e-05
-0.032625102167887964,-0.001388754589237204,-3.0354391478288457e-05
-0.03277607115648264,-0.0014051048825682968,-3.105285634623983e-05
-0.032923638470792355,-0.0014215298099751156,-3.175951501937568e-05
-0.03306684849324513,-0.001438027431716125,-3.247440432979849e-05
-0.033204794737018054,-0.0014545953425236908,-3.3197560023358444e-05
-0.03333662661616968,-0.0014712306978619876,-3.392901653345486e-05
-0.033461555694163266,-0.001487930243439571,-3.4668806768780255e-05
-0.0335788613284853,-0.001504690347695233,-3.5416961916563954e-05
-0.03368789562694401,-0.0015215070369340904,-3.617351126272129e-05
-0.03378808763421222,-0.0015383760327493795,-3.693848203014215e-05
-0.033878946680217355,-0.0015552927913279869,-3.771189923616149e-05
-0.03396006484420481,-0.0015722525442090924,-3.849378557004576e-05
-0.03403111851532191,-0.0015892503400489742,-3.9284161291110275e-05
-0.03409186905884813,-0.0016062810869425168,-4.008304414785815e-05
-0.03414216262071492,-0.0016233395948624075,-4.089044931830938e-05
-0.03418192911447454,-0.0016404206177962049,-4.170638937147404e-05
-0.034211180433206013,-0.001657518895183125,-4.253087424971887e-05
-0.034230007920841216,-0.001674629192271637,-4.3363911271582565e-05
-0.03423857913423378,-0.0016917463390354057,-4.4205505154409325e-05
-0.03423713393533057,-0.0017088652673027968,-4.505565805599387e-05
-0.03422597996913169,-0.0017259810457789125,-4.59143696342643e-05
-0.034205487597881654,-0.0017430889126706659,-4.678163712387669e-05
-0.0341760843657644,-0.0017601843056615774,-4.765745542845975e-05
-0.03413824906122845,-0.0017772628890183255,-4.8541817227129726e-05
-0.03409250543494747,-0.0017943205776423696,-4.94347130937949e-05
-0.03403941563067805,-0.001811353557908776,-5.0336131627682685e-05
-0.03397957339638806,-0.0018283583051655426,-5.1246059593451264e-05
-0.03391359715662325,-0.0018453315978037954,-5.21644820691936e-05
-0.03384212303350702,-0.0018622705278513278,-5.309138260060738e-05
-0.033765797899072615,-0.0018791725080844726,-5.402674335959133e-05
-0.03368527252970293,-0.0018960352756916665,-5.497054530553536e-05
-0.03360119491885152,-0.001912856892553805,-5.592276834759673e-05
-0.033514203788390255,-0.0019296357422306156,-5.6883391506292836e-05
-0.033424922327273295,-0.0019463705237595314,-5.7852393072790375e-05
-0.033333952186851236,-0.0019630602423880627,-5.8829750764327275e-05
-0.033241867774812965,-0.0019797041973784787,-5.981544187426891e-05
-0.03314921090495281,-0.0019963019670484203,-6.080944341537563e-05
-0.03305648586896383,-0.0020128533912418993,-6.181173225494821e-05
-0.032964154994377076,-0.0020293585514577347,-6.282228524062312e-05
-0.032872634738932566,-0.002045817748891062,-6.384107931571032e-05
-0.0327822923491413,-0.0020622314806630804,-6.486809162309885e-05
-0.03269344308583549,-0.0020786004145218247,-6.590329959689509e-05
-0.03260634799937983,-0.0020949253622931287,-6.694668104109882e-05
-0.03252121222935731,-0.002111207252350313,-6.799821419475968e-05
-0.03243818381040121,-0.0021274471013602524,-6.905787778318732e-05
-0.03235735298035773,-0.002143645985557942,-7.012565105491687e-05
-0.032278751999002195,-0.002159805011802782,-7.120151380425705e-05
-0.03220235549177467,-0.0021759252886754763,-7.228544637937661e-05
-0.0321280813379277,-0.002192007897882902,-7.33774296760162e-05
-0.032055792130106654,-0.0022080538662499105,-7.44774451170494e-05
-0.03198529723769939,-0.002224064138591862,-7.558547461825984e-05
-0.03191635549576823,-0.002240039551775229,-7.670150054085162e-05
-0.03184867850586997,-0.0022559808102756386,-7.782550563136433e-05
-0.03178193448384672,-0.0022718884635230677,-7.8957472949814e-05
-0.03171575254443705,-0.0022877628852801387,-8.00973857870148e-05
-0.03164972729016579,-0.0023036042552387896,-8.124522757214453e-05
-0.03158342357404652,-0.002319412542954843,-8.240098177169294e-05
-0.031516381323447036,-0.002335187494179216,-8.356463178097645e-05
-0.031448120334940155,-0.002350928619593813,-8.47361608094197e-05
-0.03137814496839345,-0.002366635185919646,-8.591555176079807e-05
-0.03130594867815496,-0.0023823062093312835,-8.71027871096108e-05
-0.031231018321936345,-0.0023979404510813063,-8.829784877471395e-05
-0.031152838190840394,-0.0024135364152095004,-8.950071799128666e-05
-0.03107089371417254,-0.0024290923481857535,-9.071137518213547e-05
-0.03098467481168046,-0.002444606240317217,-9.192979982926122e-05
-0.030893678889648904,-0.0024600758287425493,-9.315597034652616e-05
-0.030797413501319062,-0.002475498601840291,-9.438986395417187e-05
-0.03069539871082133,-0.0024908718048933264,-9.563145655585528e-05
-0.030587169207384045,-0.0025061924468728776,-9.688072261879683e-05
-0.030472276209526142,-0.0025214573082271052,-9.813763505757182e-05
-0.030350289178530745,-0.0025366629495741193,-9.940216512202213e-05
-0.030220797333581576,-0.0025518057212021474,-0.0001006742822897162
-0.030083410937627664,-0.00256688177326995,-0.00010195395416333422
-0.029937762311980566,-0.0025818870665823518,-0.0001032411463732973
-0.02978350654206428,-0.002596817383795863,-0.00010453582248589185
-0.02962032185648568,-0.0026116683408955008,-0.00010583794391706469
-0.029447909692497914,-0.0026264353987827467,-0.00010714746985198426
-0.029265994492007796,-0.002641113874828873,-0.00010846435717038716
-0.02907432329099174,-0.002655698954274623,-0.00010978856037766304
-0.028872665165170657,-0.0026701857013886636,-0.00011112003154157886
-0.028660810580634792,-0.002684569070325115,-0.0001124587202345073
-0.028438570680742473,-0.0026988439156404595,-0.0001138045734809987
-0.028205776529717935,-0.0027130050024430745,-0.00011515753571051959
-0.027962278328877647,-0.0027270470161577234,-0.00011651754871516979
-0.027707944615547958,-0.00274096457189383,-0.00011788455161218267
-0.0274426614431408,-0.002754752223408502,-0.00011925848081100825
-0.027166331530319072,-0.002768404471651867,-0.00012063926998477334
-0.02687887336867691,-0.002781915772876616,-0.00012202685004590546
-0.026580220290575045,-0.002795280546291429,-0.00012342114912569746
-0.026270319508930016,-0.0028084931812413054,-0.00012482209255758065
-0.025949131142170838,-0.0028215480439040806,-0.000126229602863867
-0.025616627234852467,-0.002834439483498336,-0.00012764359974571762
-0.025272790780445847,-0.0028471618380021607,-0.00012906400007609275
-0.024917614746323116,-0.002859709439383853,-0.00013049071789543925
-0.024551101096308033,-0.0028720766183445105,-0.00013192366440987135
-0.024173259813292026,-0.0028842577085719107,-0.00013336274799160045
-0.023784107945470465,-0.002896247050511601,-0.00013480787418137133
-0.023383668725717472,-0.0029080389946793983,-0.00013625894569266908
-0.022971970831251534,-0.0029196279045686406,-0.0001377158624174811
-0.022549047852215977,-0.0029310081592395076,-0.00013917852143343314
-0.022114938025917182,-0.002942174155709041,-0.00014064681701217026
-0.021669684275579734,-0.002953120311284415,-0.00014212064062891862
-0.021213334571034144,-0.0029638410659960685,-0.00014359988097323875
-0.02074594260249245,-0.00297433088528945,-0.00014508442396106013
-0.020267568731156867,-0.0029845842631228622,-0.0001465741527481632
-0.019778281158931748,-0.002994595725595384,-0.00014806894774534277
-0.019278157247051366,-0.00300435983519688,-0.00014956868663554084
-0.018767284908800513,-0.003013871195735843,-0.00015107324439327403
-0.018245764003955226,-0.003023124457964032,-0.000152582493306699
-0.0177137076737793,-0.0030321143258834654,-0.00015409630300266088
-0.017171243575914374,-0.003040835563695889,-0.00015561454047505573
-0.016618515003904606,-0.003049283003340844,-0.00015713707011681493
-0.016055681897166857,-0.003057451552566112,-0.00015866375375579166
-0.015482921758672216,-0.0030653362034800714,-0.0001601944506948032
-0.014900430502357386,-0.003072932041545329,-0.00016172901775605956
-0.014308423256035584,-0.003080234254984927,-0.0001632673093301921
-0.013707135148924356,-0.0030872381445861672,-0.0001648091774300849
-0.01309682211184358,-0.003093939133901359,-0.00016635447174970678
-0.012477761709059742,-0.003100332779856585,-0.00016790303972814626
-0.011850254005574793,-0.003106414783785244,-0.00016945472661905673
-0.011214622460548478,-0.0031121810029017746,-0.0001710093755657285
-0.010571214833463592,-0.0031176274622252776,-0.00017256682768201025
-0.009920404090520871,-0.0031227503669562736,-0.00017412692213930565
-0.009262589295714984,-0.0031275461153028325,-0.00017568949625987041
-0.00859819646272604,-0.0031320113117424427,-0.00017725438561663173
-0.007927679333924994,-0.0031361427806916053,-0.00017882142413974024
-0.007251520044067853,-0.0031399375805361033,-0.00018039044423004717
-0.006570229618678214,-0.0031433930179517898,-0.00018196127687966914
-0.005884348251787504,-0.003146506662419406,-0.00018353375179976192
-0.005194445305639717,-0.003149276360808763,-0.00018510769755556897
-0.0045011189776889855,-0.003151700251879595,-0.00018668294170874107
-0.0038049955915291514,-0.0031537767805218998,-0.00018825931096684144
-0.0031067284892519528,-0.003155504711542095,-0.00018983663133985743
-0.002406996526346364,-0.0031568831427959947,-0.00019141472830344196
-0.0017065021877528544,-0.0031579115174745196,-0.0001929934269685096
-0.0010059693506682895,-0.003158589635359125,-0.000194572552256718
-0.0003061407179598891,-0.003158917662876282,-0.00019615192908127685
0.00039222505961447173,-0.003158896141790868,-0.00019773138253244364
0.0010883565590590143,-0.0031585259963862,-0.0001993107380669879
0.0017814730461397192,-0.0031578085389849003,-0.0002008898217008307
0.0024707882058243318,-0.0031567454736719093,-0.0002024684602039949
0.0031555141215420805,-0.0031553388980900677,-0.00020404648129693538
0.0038348654801021592,-0.003153591303189657,-0.0002056237138472553
0.004508063978647893,-0.0031515055708249695,-0.00020719998806575896
0.005174342905887119,-0.0031490849691038357,-0.00020877513570074116
0.005832951856376044,-0.00314633314541327,-0.00021034899022937044
0.0064831615169575006,-0.0031432541170699365,-0.00021192138704499125
0.007124268450039838,-0.0031398522595781873,-0.00021349216363915328
0.0077555997959793885,-0.0031361322925166826,-0.00021506115977717698
0.008376517822854293,-0.003132099263111974,-0.00021662821766608415
0.008986424260312919,-0.0031277585275911826,-0.00021819318211375993
0.009584764362722467,-0.0031231157304354236,-0.0002197559006782666
0.010171030656280083,-0.003118176781680673,-0.00022131622380629562
0.01074476633566164,-0.003112947832432688,-0.00022287400495982397
0.011305568287238447,-0.003107435248776963,-0.0002244291007301264
0.011853089727839062,-0.0031016455842731937,-0.00022598137093838894
0.012387042458836558,-0.003095585551226525,-0.00022753067872226387
0.012907198739637754,-0.0030892619909269063,-0.00022907689060780223
0.013413392777011375,-0.003082681843047744,-0.0002306198765662959
0.013905521810959614,-0.003075852114400751,-0.000232159510055658
0.01438354676573071,-0.0030687798472565785,-0.00023369566804607234
0.014847492433248002,-0.003061472087456834,-0.0002352282310297507
0.015297447160648245,-0.0030539358525583597,-0.0002367570830147545
0.01573356201732623,-0.003046178100263866,-0.00023828211150296006
0.016156049420963464,-0.0030382056974042936,-0.0002398032074523771
0.016565181210665244,-0.003030025389746386,-0.00024132026522416476
0.01696128616867516,-0.003021643772901551,-0.00024283318251482674
0.017344747008233977,-0.003013067264607324,-0.00024434186027420395
0.017715996861571093,-0.0030043020786398728,-0.00024584620261001576
0.018075515313787156,-0.0029953542005960333,-0.0002473461166798247
0.01842382403132882,-0.002986229365759754,-0.00024884151257141367
0.018761482031538684,-0.002976933039244037,-0.00025033230317266463
0.019089080638842168,-0.0029674703985764416,-0.0002518184040321197
0.01940723817634498,-0.002957846318872645,-0.000253299733211482
0.0197165944486569,-0.0029480653607163944,-0.00025477621113137927
0.020017805081723267,-0.0029381317608337993,-0.00025624776041176684
0.020311535796084867,-0.0029280494256143474,-0.0002577143057083789
0.02059845669794277,-0.0029178219274908403,-0.00025917577354665517
0.02087923667474703,-0.002907452504147668,-0.0002606320921545648
0.02115453797698434,-0.002896944060484735,-0.0002620831912957229
0.02142501105718515,-0.0028862991732261927,-0.0002635290021041506
0.02169128972389997,-0.0028755200980309214,-0.0002649694569219649
0.02195398665241388,-0.002864608778936843,-0.00026640448914120685
0.02221368927396235,-0.0028535668599552486,-0.0002678340330509299
0.022470956044254295,-0.0028423956986256944,-0.00026925802369057514
0.022726313077074553,-0.002831096381345362,-0.0002706763967105679
0.022980251122627617,-0.0028196697402954364,-0.0002720890882409781
0.023233222870648097,-0.0028081163717971177,-0.00027349603476900123
0.02348564056218163,-0.00279643665593891,-0.00027489717302593523
0.02373787389985076,-0.002784630777323402,-0.0002762924398842508
0.02399024825141815,-0.002772698746785585,-0.00027768177226527804
0.024243043140623696,-0.0027606404239375743,-0.00027906510705795885
0.024496491012344357,-0.0027484555403993324,-0.00028044238104904306
0.02475077625289811,-0.002736143723583022,-0.0002818135308650387
0.025006034446527343,-0.0027237045209081655,-0.00028317849292616145
0.025262351853309068,-0.0027111374243332063,-0.0002845372034124718
0.025519765098236568,-0.00269844189509532,-0.0002858895982423289
0.02577826106869388,-0.0026856173885535877,-0.0002872356130632411
0.02603777703164839,-0.002672663379028502,-0.00028857518325513666
0.026298200999889866,-0.0026595793845206176,-0.00028990824394602393
0.02655937239360086,-0.002646364991172245,-0.00029123473003994714
0.02682108305794638,-0.0026330198773093583,-0.00029255457625706755
0.02708307870840653,-0.00261954383686777,-0.00029386771718561185
0.027345060879030342,-0.002605936801970911,-0.0002951740873453215
0.027606689439432137,-0.002592198864391295,-0.00029647362126191204
