frame_number,force
0,639.9046600000696
1,640.0917448348785
2,640.2728903125299
3,640.4429912728217
4,640.5984306961733
5,640.7374187454819
6,640.8599661520102
7,640.9675380913004
8,641.0625060121092
9,641.1475325576107
10,641.22499321692
11,641.2964932152272
12,641.3625139702348
13,641.4222223444764
14,641.4734773637176
15,641.5130586155146
16,641.537113643622
17,641.5417785296005
18,641.5238787172212
19,641.4815885978425
20,641.4149343020352
21,641.3260597865857
22,641.2192210655612
23,641.100512220319
24,640.9773577408685
25,640.8578276391816
26,640.749845632489
27,640.6603758599398
28,640.5946906607172
29,640.5558251354761
30,640.5443030805544
31,640.5581768282597
32,640.5933645620851
33,640.6442021079979
34,640.7040810729904
35,640.766051339453
36,640.8233176291759
37,640.8696167637044
38,640.8994905773037
39,640.9084725020982
40,640.8932088047048
41,640.8515471904955
42,640.7826263395367
43,640.6869695083899
44,640.5665353453687
45,640.4246488909855
46,640.2657550674603
47,640.0949995001308
48,639.9177123031404
49,639.7389114119525
50,639.5629335089084
51,639.393249279839
52,639.2324520431957
53,639.0823547281414
54,638.9441104586122
55,638.8182911945947
56,638.7049007606126
57,638.6033358990869
58,638.5123272138109
59,638.4298966507513
60,638.353369928431
61,638.2794832093061
62,638.2046151050193
63,638.1251473198236
64,638.0379148679228
65,637.9406732363378
66,637.8325014344431
67,637.7140715527839
68,637.5877377964562
69,637.4574270435879
70,637.3283412820989
71,637.2065026586478
72,637.0981906561518
73,637.0093440151712
74,636.94501058798
75,636.9089081029082
76,636.9031245919509
77,636.9279711536144
78,636.9820027993954
79,637.0622193455184
80,637.1644324917523
81,637.2837443969081
82,637.4150461538176
83,637.5534352814499
84,637.6944826524939
85,637.8343366759077
86,637.9697058739092
87,638.0977899585506
88,638.2162303194451
89,638.3231289313098
90,638.4171496125902
91,638.4976778203398
92,638.5649850150091
93,638.6203304248684
94,638.6659411951609
95,638.7048405774461
96,638.7405397623912
97,638.7766584878385
98,638.8165654868723
99,638.8631163792519
100,638.9185280666129
101,638.9843883274091
102,639.0617649071021
103,639.1513511713125
104,639.2535752211613
105,639.3686161848356
106,639.4963111803784
107,639.6359847593985
108,639.7862730020908
109,639.9450296892933
110,640.109380449089
111,640.2759384154306
112,640.4411379267317
113,640.601614110561
114,640.7545705468636
115,640.8981107429911
116,641.0315159827063
117,641.1554179910175
118,641.2717827852521
119,641.3836444389871
120,641.4946051866629
121,641.6082028583907
122,641.7272878140253
123,641.8535346040167
124,641.9871622387803
125,642.1268846193814
126,642.2700729900716
127,642.4130821984311
128,642.5516719432412
129,642.6814481814996
130,642.7982606724423
131,642.898517546626
132,642.9794078509834
133,643.0390446409585
134,643.0765477624558
135,643.0920803297346
136,643.0868385921802
137,643.0629777101291
138,643.0234559124743
139,642.9718071599274
140,642.9118848580666
141,642.8476247860553
142,642.7828518576001
143,642.7211266581123
144,642.6656142518472
145,642.6189595790181
146,642.5831607321641
147,642.5594389534166
148,642.5481136920318
149,642.5485017356345
150,642.5588680324249
151,642.5764615787452
152,642.5976703969224
153,642.6183152976773
154,642.6340685227017
155,642.6409476895566
156,642.635818907368
157,642.6168433386256
158,642.5838054093487
159,642.5382717690807
160,642.4835604713098
161,642.4245450521928
162,642.3673532874598
163,642.3190160726783
164,642.2870689835088
165,642.2790438944764
166,642.3017782263022
167,642.3605490448806
168,642.4581646725812
169,642.5942328805916
170,642.7648174723281
171,642.9626006211485
172,643.1775387930247
173,643.3978974439523
174,643.6115053714316
175,643.8070675141701
176,643.9753806647731
177,644.1103012758576
178,644.2093372712482
179,644.273786498548
180,644.3084101263192
181,644.3206950056156
182,644.3198176363294
183,644.3154639744464
184,644.3166726440337
185,644.3308542041806
186,644.3631047334281
187,644.4158824670991
188,644.489053994992
189,644.5802543034505
190,644.6854607906204
191,644.7996648548241
192,644.9175347274945
193,645.0339917526387
194,645.1446575483461
195,645.2461623098967
196,645.3363292717418
197,645.4142605681371
198,645.4803411454185
199,645.5361547742323
200,645.5842831693238
201,645.6279535397043
202,645.6705275936813
203,645.7148871939966
204,645.7628412285226
205,645.8147078329857
206,645.8691848128386
207,645.9235262573462
208,645.9739514758746
209,646.0161720793639
210,646.0459400924826
211,646.0595658324743
212,646.0543918884056
213,646.0292135470401
214,645.9846106026416
215,645.923133644238
216,645.8492957879281
217,645.7693473044527
218,645.6908302908922
219,645.6219268530441
220,645.5706509238836
221,645.5439882455403
222,645.5471261577236
223,645.5829062833577
224,645.6515789274291
225,645.7508604325966
226,645.8762298490186
227,646.021379997923
228,646.1787611711089
229,646.3401905468727
230,646.497507354645
231,646.643225215041
232,646.7711039989796
233,646.8765718278082
234,646.956969780057
235,647.0116309608645
236,647.041813814979
237,647.0504912439504
238,647.0419848835558
239,647.0214585896573
240,646.9943357809299
241,646.9657363339217
242,646.9400177569628
243,646.9204734481456
244,646.9092114642586
245,646.9072120060972
246,646.9145390944614
247,646.9306639388622
248,646.9548392052868
249,646.9864436039985
250,647.0252145829683
251,647.0713216287381
252,647.1252885842327
253,647.1878145114595
254,647.2595493822131
255,647.3408638906269
256,647.4316374588433
257,647.5310883645359
258,647.637673271017
259,647.7490748902031
260,647.862280378461
261,647.9737417302232
262,648.0796033290165
263,648.1759755669674
264,648.2592271422271
265,648.3262629841444
266,648.3747500361278
267,648.4032593166901
268,648.4113215550656
269,648.3994344180379
270,648.3690813241637
271,648.3228070481114
272,648.2643519963343
273,648.1987925050962
274,648.1325843119942
275,648.0733841948723
276,648.0295593492436
277,648.0093866077669
278,648.0200500600141
279,648.0666106497214
280,648.1511280254352
281,648.2720879299727
282,648.4242502740859
283,648.5989787316092
284,648.7850345648292
285,648.9697339429396
286,649.1403116084787
287,649.2853175454595
288,649.3958814519737
289,649.4666907961534
290,649.4965432043757
291,649.4883756150488
292,649.4487520263007
293,649.3868849635023
294,649.3133383126145
295,649.2386022901603
296,649.171754589451
297,649.1194192442257
298,649.0851855803197
299,649.069549789699
300,649.0703219336979
301,649.0833512888636
302,649.1033938569066
303,649.1249668564471
304,649.1430753685203
305,649.1537394365079
306,649.1542942958317
307,649.1434801230017
308,649.1213753100744
309,649.0892496659777
310,649.0494071390053
311,649.0050439870452
312,648.9600852033117
313,648.9189210132113
314,648.8859805045471
315,648.8651483303545
316,648.8591184236932
317,648.8688415263143
318,648.8932259388573
319,648.929187591991
320,648.9720491263598
321,649.0162049553284
322,649.0559239447454
323,649.0861473057172
324,649.1031459324884
325,649.1049309634178
326,649.0913660661349
327,649.063993637558
328,649.0256362195835
329,648.9798630260469
330,648.9304257723406
331,648.880765393637
332,648.8336652812786
333,648.7910816795792
334,648.75413180708
335,648.7231830021727
336,648.6979762067128
337,648.677734197907
338,648.6612357168144
339,648.6468671420382
340,648.6326828684463
341,648.6165049591079
342,648.5960732021271
343,648.5692351195305
344,648.534156989464
345,648.4895359623818
346,648.4347835345777
347,648.3701333506569
348,648.2966243229511
349,648.215939663106
350,648.1301324938447
351,648.0413099990676
352,647.9513572153294
353,647.8617560561433
354,647.7735111883723
355,647.6871560745265
356,647.6027997143824
357,647.5201900957305
358,647.438796235899
359,647.3579235792524
360,647.2768685340411
361,647.1950955798306
362,647.1123976523907
363,647.0289881103897
364,646.9454807633028
365,646.8627466138672
366,646.7816796473887
367,646.7029386719506
368,646.626744245078
369,646.5527941746469
370,646.480321316131
371,646.4082693696705
372,646.3355264954275
373,646.261146571376
374,646.1845107886289
375,646.1054275448583
376,646.0242010380645
377,645.9416918424338
378,645.8593606301632
379,645.7792624733794
380,645.7039561959441
381,645.6363035284439
382,645.5791537969465
383,645.5349453797893
384,645.5052969853518
385,645.4906863393873
386,645.490300705211
387,645.5020968529209
388,645.5230567660943
389,645.5495945133097
390,645.5780541488001
391,645.6052181349158
392,645.6287197598531
393,645.6472467552456
394,645.6604658385216
395,645.6686916816516
396,645.672427703535
397,645.6719581500623
398,645.6671402611425
399,645.6574535217144
400,645.6422571815452
401,645.6211287686896
402,645.594129867329
403,645.5618777272269
404,645.525380477747
405,645.4856884837692
406,645.4434842651457
407,645.3987538045885
408,645.3506548025784
409,645.2976367536148
410,645.2377918487701
411,645.1693486264905
412,645.0911829923897
413,645.0032219610641
414,644.9066516665941
415,644.8039006010774
416,644.6984297131386
417,644.5943987984676
418,644.4962788685901
419,644.4084506101119
420,644.3347994034972
421,644.2783118265618
422,644.2406929518052
423,644.2220396317689
424,644.2206136427593
425,644.232761307436
426,644.2530210794204
427,644.2744407702036
428,644.2890916166109
429,644.2887285210296
430,644.2655183043414
431,644.2127486909033
432,644.1254388213747
433,644.0007871655685
434,643.8384048615935
435,643.6402941031407
436,643.4105564201126
437,643.154863455862
438,642.8797764689255
439,642.5920252222647
440,642.2978407423049
441,642.0024121829584
442,641.7095363130308
443,641.4215285013265
444,641.1394235309494
445,640.8634126635126
446,640.5933903761269
447,640.3294690836559
448,640.0723651934601
449,639.8236235487793
450,639.5856848706723
451,639.3618025306819
452,639.1558069532929
453,638.9717261543201
454,638.8133028769079
455,638.6834839980031
456,638.5839723271891
457,638.5149123873099
458,638.4747396827081
459,638.4601824242383
460,638.4663862981727
461,638.4871341052949
462,638.5151369821431
463,638.5423814006408
464,638.5605344556197
465,638.5614262313441
466,638.5376193621343
467,638.483044836387
468,638.3936508257038
469,638.2679880377415
470,638.1076410490089
471,637.9174167343447
472,637.7052270529514
473,637.4816495660792
474,637.2591953761754
475,637.0513425719778
476,636.8714053838979
477,636.7313241028785
478,636.6404904507394
479,636.6047522178224
480,636.6257379855224
481,636.7005966285267
482,636.8221840953928
483,636.9796829271708
484,637.1596056850163
485,637.3470940184116
486,637.5273832723879
487,637.687275922501
488,637.8164644991459
489,637.908562115294
490,637.9617272109375
491,637.9788019837414
492,637.9669228224325
493,637.936615310126
494,637.9004618406767
495,637.8715120811339
496,637.8616629871169
497,637.8802428582318
498,637.9329938042235
499,638.0215735728233
500,638.1436125059131
501,638.2932850707068
502,638.4622944456329
503,638.6411227186096
504,638.8203753737738
505,638.9920499924501
506,639.1505727933107
507,639.2934622319552
508,639.4215103706622
509,639.5384448692018
510,639.6501410182583
511,639.7635460475306
512,639.8855129888801
513,640.0217227443402
514,640.1758331639278
515,640.3489477265131
516,640.5394416884343
517,640.743128989684
518,640.9537123221648
519,641.1634321740761
520,641.3638163849882
521,641.5464331429503
522,641.7035664385537
523,641.8287603064002
524,641.9172135295488
525,641.9660364667152
526,641.9743918346696
527,641.943537527114
528,641.8767867119928
529,641.7793976988061
530,641.6583942626667
531,641.5223011987234
532,641.3807756321035
533,641.2441246252494
534,641.1227107261235
535,641.0262561346002
536,640.9630756725883
537,640.9393014432795
538,640.9581948575175
539,641.0196637522379
540,641.1201046270611
541,641.2526568161461
542,641.4078798904635
543,641.5747689026255
544,641.7419443420398
545,641.8988245423757
546,642.0366062647346
547,642.148924176275
548,642.2321227828072
549,642.2851543898053
550,642.3091941158981
551,642.3071039873693
552,642.2828699326476
553,642.2410962477178
554,642.1865973352451
555,642.1240895839867
556,642.0579610868544
557,641.9920893787087
558,641.929692011143
559,641.8732193673329
560,641.8243100835352
561,641.783818193971
562,641.7519011615981
563,641.728146903357
564,641.7117222004715
565,641.701534223803
566,641.696391496869
567,641.6951277528938
568,641.6966414047595
569,641.6998354580925
570,641.7035050683639
571,641.7062623701111
572,641.7065754300395
573,641.7029425956905
574,641.6941635542646
575,641.6796310324752
576,641.6595591906117
577,641.6350832807944
578,641.6081988658079
579,641.5815424000302
580,641.5580413378278
581,641.5404823809198
582,641.5310604754837
583,641.530978868886
584,641.5401728416443
585,641.557218279089
586,641.5794505998192
587,641.603266637933
588,641.6245366228503
589,641.6390409019833
590,641.6428720272471
591,641.6327818299225
592,641.606469337373
593,641.5627904706884
594,641.5018499371333
595,641.4249381344247
596,641.3343072003518
597,641.2328257617272
598,641.1235879240884
599,641.0095580097734
600,640.8933057038313
601,640.7768459427781
602,640.6615680624526
603,640.5482311021176
604,640.4370156935823
605,640.3276436493148
606,640.2195783151693
607,640.1122877852271
608,640.0055118674377
609,639.8994633032622
610,639.7949252141425
611,639.693247354461
612,639.5962579710788
613,639.5060973276179
614,639.4249719103191
615,639.3548439962482
616,639.2971005653352
617,639.2522640385478
618,639.2198014719552
619,639.198067504906
620,639.1843971154486
621,639.1753531378286
622,639.1671198795844
623,639.1560063924076
624,639.1389877015696
625,639.1141899346225
626,639.0812272542732
627,639.0413191035462
628,638.997147098274
629,638.9524540165967
630,638.9114445454335
631,638.8781009843053
632,638.8555474419663
633,638.8455721086339
634,638.8483684341855
635,638.8625116842621
636,638.8851590436532
637,638.9124407343436
638,638.9399880918814
639,638.9635260402729
640,638.9794499982762
641,638.985313660089
642,638.9801707155427
643,638.9647340245883
644,638.9413371659687
645,638.9137062213556
646,638.8865692430527
647,638.8651400272454
648,638.8545186965836
649,638.8590687731643
650,638.8818521188322
651,638.9242040183726
652,638.9855044572519
653,639.0631690517439
654,639.1528590044619
655,639.2488866188629
656,639.3447625944256
657,639.433804884683
658,639.5097291975959
659,639.5671710964358
660,639.602122110492
661,639.6122734291074
662,639.5972547465183
663,639.5587455938903
664,639.5004254607381
665,639.42772495814
666,639.3473626158694
667,639.2667067354231
668,639.1930607059652
669,639.1329908670749
670,639.0917863902134
671,639.0730914725598
672,639.0787148379274
673,639.1086021949084
674,639.1609428628993
675,639.2323750903606
676,639.3182629948393
677,639.4130375519985
678,639.5106129681889
679,639.6048927301102
680,639.6903534949698
681,639.7626460167093
682,639.8191067400803
683,639.8590560679665
684,639.8837825119908
685,639.8961791550472
686,639.900095835673
687,639.899561608808
688,639.8980758785538
689,639.8981379056742
690,639.9010914749575
691,639.9072497340437
692,639.9161904907797
693,639.9270990923997
694,639.9390663702712
695,639.9512913952001
696,639.9631760441725
697,639.974328375309
698,639.984512703459
699,639.993590519104
700,640.0014876772857
701,640.0082084849181
702,640.0139019414629
703,640.0189629357287
704,640.0241211821493
705,640.0304555336274
706,640.0392944176944
707,640.0520155827081
708,640.0698037859725
709,640.0934346872023
710,640.123129929465
711,640.1585008119197
712,640.1985901048085
713,640.2420260000024
714,640.2872900577953
715,640.3330610722638
716,640.3785539009903
717,640.4237613887509
718,640.469538048549
719,640.5175174362668
720,640.5699047408157
721,640.6292111147686
722,640.6979898668051
723,640.7786102030934
724,640.8730820466648
725,640.9829319880231
726,641.1091176363232
727,641.2519526333982
728,641.4110121991899
729,641.5850133024336
730,641.7717019544776
731,641.9678050968015
732,642.1691007538038
733,642.3706292471213
734,642.5670258239201
735,642.7529255523353
736,642.923386970887
737,643.074291626421
738,643.2026900423053
739,643.3070754569042
740,643.3875655129746
741,643.445957601203
742,643.4856208708526
743,643.5112210109368
744,643.5283239490328
745,643.5429471810235
746,643.5611111929916
747,643.5884212264356
748,643.6297044518855
749,643.6887232196639
750,643.7679666642906
751,643.8685076706026
752,643.9899182785969
753,644.1302557904087
754,644.2861452229471
755,644.4529804124162
756,644.6252456031518
757,644.7969328305169
758,644.9620156319979
759,645.1149435355723
760,645.2511286406343
761,645.3673831048327
762,645.4622373614422
763,645.5360562758151
764,645.5909012394371
765,645.6301490928545
766,645.6579372697648
767,645.678535818555
768,645.6957529464676
769,645.7124656837669
770,645.7303294806094
771,645.7496717624263
772,645.7695407920868
773,645.7878735094317
774,645.8017512520405
775,645.8077203269919
776,645.8021663742782
777,645.7817370222554
778,645.7437897146375
779,645.6868101539397
780,645.6107326642682
781,645.5171096766591
782,645.4091041896271
783,645.2912950433814
784,645.1692956587905
785,645.0492115380745
786,644.9369986724504
787,644.8378108667163
788,644.7554248975734
789,644.6918170671873
790,644.6469469921885
791,644.6187861077511
792,644.603601869088
793,644.5964706128353
794,644.5919497277687
795,644.5848056574523
796,644.5706791840724
797,644.5465829047438
798,644.5111707309973
799,644.4647771290539
800,644.4092631729861
801,644.3477180472548
802,644.2840662378871
803,644.2226334727684
804,644.167721436958
805,644.1232268440775
806,644.0923203492706
807,644.0771847383942
808,644.0788066476063
809,644.0968256593835
810,644.129468543175
811,644.1736215785268
812,644.2250965911475
813,644.2791146001026
814,644.3309773240335
815,644.3768403020543
816,644.4144528117246
817,644.4437035506663
818,644.4668285735729
819,644.4882041240481
820,644.5137395918986
821,644.5499740162367
822,644.6030411181594
823,644.677692969333
824,644.7765616933168
825,644.8997934798549
826,645.0451088242553
827,645.2082435767483
828,645.3836456805769
829,645.5652694056199
830,645.7473174505357
831,645.9248162660191
832,646.0939634553919
833,646.2522472365439
834,646.3983851321537
835,646.5321442364834
836,646.6540916910537
837,646.7653032616133
838,646.8670517836235
839,646.9605104179903
840,647.0465214036477
841,647.1254746549512
842,647.1973066466842
843,647.2615926776081
844,647.3176916609217
845,647.3649105498147
846,647.4026648596035
847,647.4306158245877
848,647.4487741617489
849,647.4575754375054
850,647.4579349660945
851,647.4512738561784
852,647.4394896583501
853,647.4248430989481
854,647.4097484586677
855,647.3964830305484
856,647.3868601253672
857,647.3819254448695
858,647.3817299982942
859,647.3852092380159
860,647.3901728211317
861,647.3933993853542
862,647.3908403798353
863,647.3779472211227
864,647.3501190936662
865,647.3032225578245
866,647.2340928752803
867,647.1409256299474
868,647.0235050935061
869,646.8832635115458
870,646.7231964175912
871,646.5476664426501
872,646.3621214722408
873,646.1727456395901
874,645.9860614774447
875,645.808510484006
876,645.6460519524637
877,645.5038227373963
878,645.3858840972135
879,645.295054002917
880,645.2328034717357
881,645.1991931590946
882,645.1928361249927
883,645.2108887565596
884,645.2490955990951
885,645.3019383782417
886,645.3629431203121
887,645.425167911093
888,645.4818391351536
889,645.5270521582338
890,645.5564236776531
891,645.5675836587328
892,645.5604203860039
893,645.5370352056289
894,645.501416890643
895,645.4588972946165
896,645.415481862716
897,645.377149235651
898,645.3491929947284
899,645.3356585541561
900,645.3389216852869
901,645.3594522923439
902,645.3957929607618
903,645.4447560974254
904,645.5018124583347
905,645.561609101637
906,645.6185264537505
907,645.6671852635095
908,645.7028519271739
909,645.7217392121948
910,645.7212261213065
911,645.7000175028928
912,645.6582433099843
913,645.5974702849736
914,645.520576894511
915,645.4314484717211
916,645.3344984199672
