frame_number,force
0,723.0081700085842
1,723.0267890287049
2,723.0454279254458
3,723.0641058050961
4,723.0828402462164
5,723.1016465693991
6,723.1205371500781
7,723.1395207910086
8,723.1586021696858
9,723.177781372658
10,723.1970535248806
11,723.2164085192463
12,723.2358308492509
13,723.2552995455442
14,723.2747882144514
15,723.2942651735959
16,723.3136936768691
17,723.3330322186277
18,723.3522349057394
19,723.371251886018
20,723.3900298218587
21,723.4085123976166
22,723.4266408485288
23,723.4443544985463
24,723.4615912951333
25,723.478288331078
26,723.4943823460407
27,723.5098102029644
28,723.5245093360664
29,723.538418167971
30,723.5514764940442
31,723.5636258324696
32,723.5748097392946
33,723.584974088725
34,723.5940673204325
35,723.6020406571405
36,723.6088482964464
37,723.614447580406
38,723.6187991456025
39,723.621867056356
40,723.623618924782
41,723.6240260228585
42,723.6230633922592
43,723.6207099565644
44,723.6169486378144
45,723.6117664762545
46,723.6051547496368
47,723.597109087239
48,723.5876295738091
49,723.5767208393163
50,723.5643921309983
51,723.5506573646695
52,723.5355351530734
53,723.5190488103632
54,723.5012263330435
55,723.4821003583057
56,723.461708100842
57,723.4400912696403
58,723.4172959670738
59,723.3933725731057
60,723.3683756172289
61,723.3423636402617
62,723.3153990478954
63,723.287547957854
64,723.2588800422969
65,723.2294683665377
66,723.1993892245243
67,723.1687219710885
68,723.1375488506701
69,723.1059548218246
70,723.0740273763157
71,723.0418563510354
72,723.0095337302491
73,722.9771534344953
74,722.9448110908647
75,722.912603777689
76,722.8806297356895
77,722.8489880382374
78,722.8177782155652
79,722.7870998304535
80,722.7570520049567
81,722.7277328992109
82,722.6992391453085
83,722.6716652422274
84,722.6451029212624
85,722.6196404941619
86,722.595362197535
87,722.5723475472745
88,722.550670716167
89,722.5303999465923
90,722.5115970083074
91,722.4943167093152
92,722.4786064662516
93,722.4645059395108
94,722.4520467370714
95,722.4412521897314
96,722.4321371995328
97,722.4247081625273
98,722.4189629661499
99,722.4148910600129
100,722.4124735972352
101,722.4116836420676
102,722.4124864385681
103,722.4148397340198
104,722.4186941493379
105,722.4239935873487
106,722.4306756695071
107,722.4386721926736
108,722.4479095990936
109,722.4583094534921
110,722.4697889210065
111,722.4822612392031
112,722.4956361773588
113,722.5098204767892
114,722.5247182673514
115,722.5402314572756
116,722.5562600958164
117,722.5727027103956
118,722.5894566216772
119,722.6064182413909
120,722.6234833587004
121,722.6405474214343
122,722.657505818412
123,722.6742541682206
124,722.6906886182697
125,722.7067061562718
126,722.7222049348541
127,722.7370846087229
128,722.7512466826005
129,722.7645948673195
130,722.7770354412028
131,722.7884776140157
132,722.7988338909539
133,722.8080204340525
134,722.8159574181583
135,722.8225693786255
136,722.8277855483898
137,722.8315401827343
138,722.8337728704006
139,722.8344288294305
140,722.8334591854579
141,722.8308212294896
142,722.8264786516902
143,722.8204017471919
144,722.8125675895836
145,722.8029601676684
146,722.7915704813419
147,722.7783965928951
148,722.7634436305887
149,722.7467237419867
150,722.7282559955285
151,722.7080662306294
152,722.6861868592187
153,722.6626566242028
154,722.6375203219649
155,722.6108284965114
156,722.5826371127836
157,722.5530072162686
158,722.5220045852776
159,722.4896993812058
160,722.456165801384
161,722.4214817390751
162,722.3857284552221
163,722.3489902659261
164,722.3113542482157
165,722.2729099651111
166,722.2337492099753
167,722.1939657696405
168,722.153655205218
169,722.112914648495
170,722.0718426107406
171,722.0305387999891
172,721.9891039424754
173,721.9476396037475
174,721.9062480052974
175,721.8650318335914
176,721.8240940398605
177,721.7835376300943
178,721.7434654448493
179,721.7039799280348
180,721.665182883411
181,721.627175217337
182,721.5900566662519
183,721.5539255075455
184,721.5188782529807
185,721.4850093245522
186,721.4524107134155
187,721.4211716232921
188,721.3913781005227
189,721.3631126535514
190,721.3364538649614
191,721.3114759993153
192,721.2882486102571
193,721.2668361507151
194,721.2472975902211
195,721.2296860429519
196,721.2140484096051
197,721.2004250365597
198,721.1888493967676
199,721.1793477971983
200,721.1719391167743
201,721.1666345774248
202,721.1634375503916
203,721.1623434004604
204,721.1633393715612
205,721.1664045174853
206,721.1715096811862
207,721.1786175253682
208,721.187682615795
209,721.1986515570851
210,721.211463179226
211,721.2260487723285
212,721.242332367549
213,721.2602310631304
214,721.2796553952097
215,721.3005097529418
216,721.3226928370423
217,721.3460981607684
218,721.3706145926645
219,721.3961269404854
220,721.4225165751468
221,721.4496620925607
222,721.4774400101918
223,721.5057254940738
224,721.5343931105481
225,721.5633175954182
226,721.592374632311
227,721.6214416319087
228,721.6503985035898
229,721.6791284103358
230,721.7075184969384
231,721.7354605813063
232,721.7628517991681
233,721.7895951934132
234,721.8156002405132
235,721.8407833078575
236,721.8650680372398
237,721.888385650936
238,721.9106751778792
239,721.9318835986418
240,721.9519659094642
241,721.9708851074096
242,721.9886121008533
243,722.0051255518093
244,722.0204116584641
245,722.0344638869095
246,722.0472826601653
247,722.0588750106815
248,722.0692542006273
249,722.0784393131985
250,722.0864548180563
251,722.0933301145187
252,722.0990990569259
253,722.1037994673887
254,722.1074726417775
255,722.110162855401
256,722.1119168755837
257,722.1127834890789
258,722.1128130523697
259,722.1120570719803
260,722.1105678201563
261,722.108397988996
262,722.1056003835466
263,722.1022276520398
264,722.0983320497515
265,722.0939652316267
266,722.0891780673736
267,722.0840204717415
268,722.0785412430266
269,722.072787904597
270,722.06680654658
271,722.0606416669559
272,722.0543360126653
273,722.047930422007
274,722.041463670045
275,722.0349723193941
276,722.0284905796158
277,722.0220501790149
278,722.0156802521938
279,722.0094072453862
280,722.0032548402046
281,721.9972438955218
282,721.9913924065876
283,721.9857154799321
284,721.980225322137
285,721.9749312400761
286,721.9698396498477
287,721.9649540916462
288,721.9602752483793
289,721.95580096688
290,721.9515262820925
291,721.9474434465113
292,721.9435419689228
293,721.9398086675593
294,721.9362277428737
295,721.9327808742505
296,721.9294473434536
297,721.9262041862029
298,721.9230263726314
299,721.9198870174022
300,721.9167576202058
301,721.9136083367649
302,721.9104082796457
303,721.9071258476788
304,721.9037290827367
305,721.9001860525975
306,721.8964652582433
307,721.892536063226
308,721.8883691420859
309,721.883936944429
310,721.8792141707934
311,721.8741782553516
312,721.868809848904
313,721.8630932943564
314,721.8570170865032
315,721.8505743080277
316,721.8437630334796
317,721.8365866925851
318,721.829054384108
319,721.8211811319219
320,721.8129880759864
321,721.8045025926244
322,721.795758340912
323,721.7867952346699
324,721.7776593416551
325,721.7684027124265
326,721.7590831409989
327,721.7497638584823
328,721.7405131603014
329,721.7314039678834
330,721.7225133268191
331,721.7139218450574
332,721.705713076322
333,721.697972855357
334,721.6907885926532
335,721.6842485368527
336,721.6784410129458
337,721.6734536438486
338,721.6693725626226
339,721.6662816232158
340,721.6642616191423
341,721.6633895209061
342,721.663737743107
343,721.6653734510131
344,721.6683579148997
345,721.6727459194178
346,721.6785852345727
347,721.6859161540202
348,721.6947711049762
349,721.7051743322058
350,721.7171416566163
351,721.7306803071792
352,721.7457888234973
353,721.7624570255373
354,721.780666047137
355,721.8003884308574
356,721.8215882832259
357,721.8442214906862
358,721.868235997195
359,721.8935721443856
360,721.9201630747996
361,721.9479351979899
362,721.9768087183271
363,722.0066982219184
364,722.0375133179888
365,722.0691593276072
366,722.1015380104644
367,722.1345483191166
368,722.1680871697743
369,722.2020502191439
370,722.2363326376623
371,722.2708298702985
372,722.3054383768558
373,722.3400563447555
374,722.3745843686647
375,722.4089260924285
376,722.4429888090287
377,722.4766840141425
378,722.5099279093281
379,722.5426418525275
380,722.5747527558237
381,722.6061934319147
382,722.6369028908705
383,722.6668265882801
384,722.6959166261082
385,722.7241319085018
386,722.7514382553612
387,722.7778084762197
388,722.803222406413
389,722.8276669073767
390,722.8511358331829
391,722.8736299655818
392,722.8951569193125
393,722.91573101821
394,722.9353731411422
395,722.9541105356021
396,722.971976596018
397,722.989010603378
398,723.0052574225548
399,723.020767153906
400,723.0355947363597
401,723.0497995000204
402,723.0634446672395
403,723.0765968024191
404,723.0893252130485
405,723.1017013074962
406,723.1137979182168
407,723.1256886016641
408,723.1374469280684
409,723.1491457753434
410,723.1608566419497
411,723.1726489938033
412,723.1845896601358
413,723.1967422919333
414,723.2091668937458
415,723.2219194356611
416,723.2350515481421
417,723.2486102992489
418,723.2626380518615
419,723.2771723975511
420,723.292246163266
421,723.30788748669
422,723.3241199556464
423,723.3409628060107
424,723.3584311715482
425,723.3765363785238
426,723.3952862781717
427,723.4146856108982
428,723.4347363969526
429,723.4554383488976
430,723.476789301416
431,723.4987856538771
432,723.5214228208132
433,723.5446956850044
434,723.5685990470264
435,723.5931280639303
436,723.6182786685893
437,723.6440479605475
438,723.6704345590766
439,723.6974389098126
440,723.7250635379773
441,723.7533132433022
442,723.7821952333602
443,723.8117191926568
444,723.841897285236
445,723.8727440897666
446,723.904276468196
447,723.9365133713943
448,723.969475587122
449,724.0031854370042
450,724.0376664300563
451,724.0729428807045
452,724.1090394992123
453,724.1459809621745
454,724.1837914704548
455,724.2224943017483
456,724.2621113649739
457,724.3026627640728
458,724.344166379463
459,724.3866374759856
460,724.4300883461378
461,724.4745279964578
462,724.519961883242
463,724.5663917015321
464,724.6138152286577
465,724.6622262210444
466,724.7116143612625
467,724.7619652517395
468,724.8132604515927
469,724.8654775527873
470,724.9185902911742
471,724.9725686874016
472,725.0273792125479
473,725.082984973361
474,725.1393459118711
475,725.1964190139275
476,725.2541585213179
477,725.3125161428197
478,725.3714412607417
479,725.4308811311671
480,725.4907810781103
481,725.5510846835128
482,725.6117339755435
483,725.6726696166639
484,725.7338310909421
485,725.7951568880796
486,725.8565846802255
487,725.9180514872098
488,725.9794938264058
489,726.0408478448152
490,726.1020494327121
491,726.1630343198412
492,726.2237381564665
493,726.2840965822569
494,726.3440452857809
495,726.403520056355
496,726.4624568289265
497,726.520791722477
498,726.5784610733448
499,726.6354014664016
500,726.6915497684106
501,726.7468431686116
502,726.801219231296
503,726.8546159637616
504,726.9069719010168
505,726.9582262069063
506,727.0083187906482
507,727.057190437977
508,727.1047829564044
509,727.1510393339458
510,727.1959039100624
511,727.2393225570253
512,727.281242869799
513,727.3216143628265
514,727.3603886722946
515,727.3975197619408
516,727.4329641290645
517,727.4666810056136
518,727.4986325477139
519,727.5287840063246
520,727.557103871909
521,727.5835639868905
522,727.6081396210532
523,727.6308095070553
524,727.6515558358176
525,727.6703642141707
526,727.6872235890183
527,727.7021261429032
528,727.7150671654147
529,727.7260449042066
530,727.7350603996044
531,727.7421173081163
532,727.7472217217631
533,727.7503819910402
534,727.7516085592473
535,727.7509138149294
536,727.7483119673966
537,727.7438189481536
538,727.7374523392076
539,727.7292313280605
540,727.7191766885996
541,727.707310786718
542,727.6936576092385
543,727.6782428147756
544,727.6610938055776
545,727.6422398198814
546,727.6217120444642
547,727.5995437465382
548,727.5757704228621
549,727.5504299624058
550,727.5235628176177
551,727.4952121783255
552,727.4654241413567
553,727.4342478683185
554,727.4017357240101
555,727.3679433885399
556,727.3329299370183
557,727.2967578815579
558,727.2594931711963
559,727.2212051462443
560,727.1819664445281
561,727.1418528581412
562,727.1009431405421
563,727.0593187646596
564,727.0170636327659
565,726.9742637385341
566,726.9310067816597
567,726.8873817363185
568,726.8434783765163
569,726.799386763269
570,726.755196699503
571,726.7109971582254
572,726.6668756883162
573,726.6229178009165
574,726.5792063386458
575,726.5358208303323
576,726.4928368353882
577,726.4503252836722
578,726.4083518183131
579,726.3669761506846
580,726.3262514385063
581,726.2862236993101
582,726.2469312717093
583,726.2084043360221
584,726.1706645043172
585,726.1337244883209
586,726.0975878517861
587,726.0622488515646
588,726.0276923687188
589,725.9938939279662
590,725.9608198011421
591,725.9284271886993
592,725.8966644727285
593,725.8654715352375
594,725.8347801359257
595,725.8045143441772
596,725.7745910205439
597,725.744920343698
598,725.7154063796312
599,725.6859476905274
600,725.6564379810113
601,725.6267667792056
602,725.5968201493483
603,725.5664814322115
604,725.5356320099729
605,725.5041520934457
606,725.4719215305395
607,725.4388206345201
608,725.4047310292522
609,725.369536507296
610,725.3331238964528
611,725.295383931135
612,725.256212125826
613,725.2155096478554
614,725.1731841856538
615,725.1291508072268
616,725.0833328023488
617,725.0356625009696
618,724.9860820596034
619,724.9345442074141
620,724.8810129445048
621,724.8254641861328
622,724.7678863476059
623,724.708280865148
624,724.646662647916
625,724.5830604559073
626,724.517517198384
627,724.450090148101
628,724.3808510679254
629,724.309886247913
630,724.2372964523482
631,724.1631967775738
632,724.0877164225764
633,724.0109983750045
634,723.9331990154841
635,723.8544876431629
636,723.7750459260131
637,723.6950672804483
638,723.6147561854591
639,723.5343274361633
640,723.454005340692
641,723.3740228633804
642,723.2946207164663
643,723.2160464016155
644,723.1385532015931
645,723.0623991219721
646,722.9878457835226
647,722.9151572674702
648,722.8445989171527
649,722.7764361002185
650,722.7109329356966
651,722.6483509905642
652,722.5889479510683
653,722.5329762750728
654,722.4806818331002
655,722.4323025472257
656,722.3880670380112
657,722.3481932899717
658,722.3128873459139
659,722.2823420403867
660,722.2567357826043
661,722.2362313992688
662,722.2209750474307
663,722.2110952067536
664,722.2067017595281
665,722.2078851659073
666,722.2147157412443
667,722.2272430417747
668,722.2454953638966
669,722.2694793609247
670,722.2991797799987
671,722.3345593214153
672,722.3755586228285
673,722.422096370404
674,722.4740695375318
675,722.531353749651
676,722.5938037721804
677,722.6612541178997
678,722.7335197702058
679,722.810397018974
680,722.8916644055353
681,722.9770837719192
682,723.0664014073428
683,723.1593492830286
684,723.255646365211
685,723.3549999951745
686,723.4571073241027
687,723.5616567898334
688,723.6683296226822
689,723.7768013681845
690,723.8867434156034
691,723.9978245220793
692,724.1097123231234
693,724.2220748209181
694,724.3345818429406
695,724.4469064647052
696,724.5587263912035
697,724.6697252915045
698,724.779594080574
699,724.8880321424293
700,724.9947484891785
701,725.0994628508272
702,725.2019066908822
703,725.3018241430132
704,725.398972864555
705,725.4931248035267
706,725.5840668770932
707,725.6716015609787
708,725.755547391265
709,725.8357393820656
710,725.9120293640215
711,725.9842862488024
712,726.0523962242783
713,726.1162628849578
714,726.1758073031365
715,726.2309680470418
716,726.2817011521762
717,726.3279800513029
718,726.3697954679034
719,726.4071552774113
720,726.4400843393431
721,726.4686243013379
722,726.4928333736527
723,726.5127860707414
724,726.5285729157647
725,726.5403001041959
726,726.5480891234433
727,726.55207632586
728,726.5524124525192
729,726.5492621053806
730,726.5428031665879
731,726.5332261653741
732,726.5207335945553
733,726.5055391794785
734,726.4878671028607
735,726.4679511894964
736,726.4460340551441
737,726.4223662237789
738,726.397205216929
739,726.3708146182214
740,726.3434631156155
741,726.315423523246
742,726.2869717846226
743,726.2583859592612
744,726.2299451952726
745,726.2019286905107
746,726.1746146444056
747,726.1482792019264
748,726.1231953906373
749,726.0996320516516
750,726.0778527653565
751,726.0581147730716
752,726.0406678963079
753,726.0257534559101
754,726.0136031939427
755,726.0044382016022
756,725.9984678566847
757,725.9958887745773
758,725.9968837777941
759,726.0016208905354
760,726.0102523658592
761,726.02291375347
762,726.0397230163717
763,726.060779705356
764,726.0861642014706
765,726.1159370374635
766,726.1501383091097
767,726.1887871863278
768,726.2318815325395
769,726.2793976390876
770,726.3312900796254
771,726.3874916872879
772,726.4479136552953
773,726.5124457596735
774,726.5809567012438
775,726.6532945632176
776,726.7292873805197
777,726.8087438169957
778,726.8914539466361
779,726.9771901346995
780,727.0657080139068
781,727.1567475498096
782,727.2500341885429
783,727.3452800796335
784,727.4421853657108
785,727.540439529279
786,727.6397227845083
787,727.7397075001168
788,727.8400596381389
789,727.9404401925325
790,728.0405066111463
791,728.1399141848852
792,728.238317389248
793,728.3353711656968
794,728.430732133052
795,728.5240597216447
796,728.615017225049
797,728.7032727661381
798,728.7885001763716
799,728.870379789587
800,728.9485991537704
801,729.0228536659972
802,729.0928471368808
803,729.1582922916214
804,729.2189112152043
805,729.2744357492554
806,729.3246078475192
807,729.3691798965497
808,729.4079150085515
809,729.4405872941367
810,729.4669821234017
811,729.486896383846
812,729.5001387430964
813,729.506529923255
814,729.5059029922871
815,729.4981036765698
816,729.4829906976582
817,729.4604361354973
818,729.4303258195638
819,729.3925597484057
820,729.3470525365051
821,729.2937338856316
822,729.2325490764256
823,729.1634594751026
824,729.0864430498126
825,729.0014948909869
826,728.9086277295893
827,728.8078724464788
828,728.6992785653904
829,728.5829147217374
830,728.4588690996992
831,728.3272498306065
832,728.1881853459129
833,728.0418246776708
834,727.8883376984242
835,727.7279152910894
836,727.5607694383957
837,727.387133221424
838,727.2072607177846
839,727.0214267914586
840,726.8299267678602
841,726.6330759891788
842,726.4312092464754
843,726.2246800862068
844,726.0138599899125
845,725.7991374269791
846,725.5809167816956
847,725.3596171572318
848,725.1356710610676
849,724.909522979057
850,724.6816278483159
851,724.4524494415125
852,724.2224586762884
853,723.9921318634588
854,723.7619489067981
855,723.5323914660235
856,723.3039410930069
857,723.077077349032
858,722.8522759083768
859,722.6300066517202
860,722.4107317528677
861,722.1949037639267
862,721.9829637060589
863,721.7753391740717
864,721.5724424634593
865,721.3746687288841
866,721.1823941837232
867,720.9959743504581
868,720.8157423709007
869,720.6420073839689
870,720.4750529776711
871,720.3151357216332
872,720.1624837872378
873,720.0172956640293
874,719.8797389826121
875,719.7499494550364
876,719.6280299436675
877,719.5140496694047
878,719.4080435703424
879,719.3100118223686
880,719.2199195332249
881,719.1376966209124
882,719.063237886098
883,718.9964032865678
884,718.937018419893
885,718.8848752185247
886,718.8397328594439
887,718.8013188879497
888,718.7693305519581
889,718.7434363396367
890,718.723277709908
891,718.7084710025748
892,718.698609512403
893,718.693265709234
894,718.6919935843449
895,718.6943311024373
896,718.6998027391826
897,718.7079220857796
898,718.7181945033755
899,718.7301198103913
900,718.743194984669
901,718.7569168608367
902,718.7707848026658
903,718.78430333082
904,718.7969846875524
905,718.8083513208712
906,718.817938271617
907,718.8252954482382
908,718.8299897755411
909,718.8316072046812
910,718.8297545721388
911,718.8240612961108
912,718.8141809002544
913,718.799792357086
914,718.7806012463798
915,718.7563407274076
916,718.7267723272498
917,718.6916865498946
